,video_id,frame_seq,time_seconds,m1,m3,m4,m5,m6,m7,m8,m9,m10,m11,m12,m13,m14,m15,m16,m17,e1,e2,e3,b1,b2,b3
0,220,0,0.0,30.94779789479453,152.822643224663,20.60009947797755,29.233921098916426,42.95119368915924,46.35022382544935,32.66196858838977,113.31355149587797,84.11707286840823,68.66699825992515,75.53369808591759,72.10034817292131,41.20019895595499,39.48352399945691,8.583374782490637,22.316774434475633,18.883424521479355,20.67150384971633,20.600099477977494,58.36694852093626,61.80029843393254,56.7542191079286
1,220,1,0.0333666666666666,24.095346920739562,154.54315946614574,22.317391024993526,29.234728803390293,42.918059663449185,46.383284696985726,30.94865295199766,106.45063160044707,77.25250739420824,65.2354506884426,72.10234023459441,68.66889546151845,39.48461489037311,36.05117011729726,5.150167159613943,17.167223865379583,17.252846460700347,18.96181852559906,18.883946251917564,58.36856114229073,61.802005915366635,58.469457606780374
2,220,2,0.0667333333333332,22.479799467859866,158.62858611410255,19.04354898678485,29.360738229359367,44.827169785211254,48.27541361484282,34.654421599095556,105.18556800124945,75.86136425189608,64.6545718055932,70.68899850744862,68.96487659263272,35.34449925372428,35.34449925372428,4.310304787039513,16.37915819075033,17.32721079954775,20.76117710262318,20.689462977789844,58.620145103737855,62.06838893336948,58.721476458718755
3,220,3,0.1000999999999998,22.0989912040767,155.9690450213876,18.72095087658856,27.11864406779671,44.06779661016958,47.45762711864427,34.067374986850496,101.69491525423734,74.57627118644064,63.5593220338983,69.49152542372883,66.10169491525426,33.8983050847458,33.89830508474574,5.084745762711805,15.254237288135641,20.338983050847446,22.098991204076775,22.033898305084733,59.32203389830511,61.016949152542395,57.72673344381839
4,220,4,0.1334666666666664,22.480008293802342,158.6581664872738,20.689655172413723,29.361010975735127,44.82758620689651,48.27586206896535,34.52583516293245,106.9104551581207,77.5862068965518,66.37931034482762,70.68965517241378,67.24137931034483,34.48275862068965,37.931034482758605,6.8965517241379075,15.517241379310349,20.76136996343503,22.48000829380221,20.689655172413723,56.896551724137964,62.068965517241395,60.56609679396661
5,220,5,0.166833333333333,27.32870594743237,152.62161469167842,20.338252733137665,28.812524705278406,44.06621425513163,47.45592304398792,33.93943279937463,110.17857220797585,81.37066375058063,67.7941757771257,72.87873896041015,67.7941757771257,36.43936948020507,39.82907826906137,9.321699169354815,16.101116747067408,18.720278658025133,20.40874948778823,20.338252733137722,55.93019501612872,61.014758199413166,59.41667369607557
6,220,6,0.2001999999999996,36.404841630525794,159.34499837682898,20.779220779220736,31.16883116883116,45.0216450216451,50.21645021645031,36.363636363636374,124.68734910749566,93.52252548149454,75.32467532467524,76.19047619047615,72.72727272727275,38.095238095238074,50.2164502164502,17.316017316017337,17.316017316017337,7.139576840896388,10.532922130386575,9.523809523809575,57.14285714285717,62.33766233766238,58.97622983870597
7,220,7,0.2335666666666662,41.37777285210609,160.34813874834794,20.760598552434164,29.30925577024186,44.85906360398773,50.02785877674681,36.24657737914663,127.58146629399391,98.27221052375205,77.583324097699,77.583324097699,75.85925022886124,40.515735917687266,50.86017913071373,19.826849491634107,21.550923360471984,5.452000279905763,5.452000279905637,5.172221606513233,58.61851154048367,62.066659278159136,62.16236736782109
8,220,8,0.2669333333333328,43.32100832204392,159.30333622482306,19.046012941199592,27.70329155083573,46.749304492035435,51.94367165781705,36.4017719529091,126.39626770068821,98.69297614985248,77.04977962576197,77.91550748672557,76.18405176479837,40.68920946528999,49.34648807492624,18.18028508023599,21.6431965240904,5.475343749021221,6.925822887708932,6.06009502674533,58.86949454552604,64.06386171130771,64.15738564681027
9,220,9,0.3002999999999994,43.134311123415614,156.88343590308773,18.96393181246117,27.63772311480309,46.54783263058653,49.99582023285234,34.52294896390111,124.13952528343223,96.5436528634387,74.99373034927834,75.85572724984473,75.85572724984473,41.375851227188036,48.27182643171932,18.96393181246117,22.411919414726867,7.1082085399807555,10.34396280679698,9.481965906230528,60.33978303964915,63.78777064191479,62.159480485664865
10,220,10,0.333666666666666,44.4736505881874,157.25203438747417,18.80187367676325,27.401542246446564,44.44079232689501,49.5685760569213,34.22792972405081,124.78777748359114,97.42789087050028,75.20749470705289,75.20749470705289,75.20749470705289,41.02226984021064,49.56857605692119,20.51113492010529,22.22039616344739,10.397030245492319,10.255567460052703,9.400936838381654,61.53340476031599,64.95192724700024,61.62829056033311
11,220,11,0.3670333333333326,41.019648381579714,150.41508817664115,17.176765177374445,27.39979119732843,44.43795241337784,49.56540846107532,32.65330341496903,117.93148909704144,90.6011794834951,70.07523265186512,75.2026886995626,73.49353668366348,41.874224389529104,43.58337640542845,16.236944151042053,24.78270423053766,10.396365840894994,11.964064111294078,11.10948810334446,54.6928645087728,61.5294725723694,61.742746946949275
12,220,12,0.4003999999999992,39.69116115410162,148.28037606653263,19.043018301611784,29.30925577024186,43.10184672094397,48.274068327457144,29.35992003583561,117.24969940939071,87.94466837139299,68.10091781909125,74.13517636002348,72.41110249118572,43.96388365536285,43.96388365536268,14.654627885120817,24.99907109814751,12.191043239217015,15.612152888924514,14.65462788512093,56.8944376716459,62.06665927815919,63.883858354456294
13,220,13,0.4337666666666658,31.44104803493451,144.98868799613732,20.960698689956303,33.23370758155537,41.921397379912605,47.19390772438871,29.69432314410483,115.29707479971529,82.09606986899564,66.37554585152839,75.10917030567691,73.36244541484712,44.54148471615724,41.048034934497764,6.113537117903888,25.327510917030622,15.720524017467255,17.467248908296938,16.593886462882097,55.895196506550235,62.88209606986902,63.100058928169034
14,220,14,0.4671333333333324,39.69116115410161,144.83246696325108,20.688886426053102,31.081183683910552,41.37777285210609,46.549994458619494,29.309255770241805,120.73442002323051,89.6684172805054,69.82499168792901,72.41110249118572,74.13517636002348,43.963883655362736,47.41203139303832,12.930554016283168,23.274997229309633,17.326727943444165,19.043018301611728,18.1027756227964,58.61851154048367,63.790733146996956,60.73538099958392
15,220,15,0.5004999999999991,36.68664995948526,133.92307024935727,22.608481962428073,33.04316594508714,38.260507936416616,41.73873593063627,29.564937950867318,121.78765863256572,88.76298820075576,70.43411688294879,76.52101587283317,74.78190187572335,46.086520923410944,46.086520923410944,11.30424098121398,23.47803896098287,17.391139971098482,20.9417056794997,20.869367965318133,57.390761904624924,60.868989898844575,61.26521208014167
16,220,16,0.5338666666666656,31.22546599357729,127.63279671256367,25.86206896551721,34.48275862068965,39.692635976625226,44.82758620689651,31.034482758620697,122.46235073848109,87.99862175982649,72.41379310344826,79.31034482758628,75.86206896551732,46.55172413793116,44.8275862068964,8.620689655172328,20.68965517241395,17.241379310344826,20.76136996343503,20.689655172413836,56.89655172413791,62.068965517241395,62.284109890305
17,220,17,0.5672333333333321,22.774289078066232,131.01476196982603,24.453915316272173,38.42758121128497,40.17428944816152,43.6677059219146,31.440748263778517,117.04248628095947,78.62127613330313,67.2482671197485,73.36174594881658,75.10845418569323,42.79435180347639,42.79435180347639,0.8733541184383284,18.340436487204215,19.21379060564243,22.774289078066193,21.8338529609573,57.64137181692735,62.88149652755709,61.53274066692207
18,220,18,0.6005999999999987,17.86485763188532,133.36887783123223,26.664296612298813,39.14801463431351,39.1076350313715,42.662874579678146,32.04649621994146,115.55895850920788,76.43765028859013,67.54955141782375,79.99288983689667,76.43765028859013,46.21811412798479,37.33001525721829,1.7776197741533224,19.553817515685978,21.331437289839073,23.177326214391456,23.109057063992395,58.661452547057536,63.994311869517276,64.21612990679361
19,220,19,0.6339666666666652,14.402626600827336,136.24404728077866,24.452050313576024,38.46432489723192,40.171225515160586,43.69929309897201,34.97513756735061,111.83536858413314,73.3769405545622,66.36985085113503,73.35615094072813,75.10272596312649,39.297938003961576,37.551362981563216,2.619862533597484,14.845887690385553,19.291551665991015,22.772552173771608,21.832187779978597,59.38355076154187,64.62327582873672,61.354274481409334
20,220,20,0.6673333333333318,16.17323942131287,126.41444844161063,28.067745856609122,40.347384668875634,36.88066026485116,40.34738466887552,31.624905272717555,115.79274054827331,75.45246230351238,67.53801346746565,80.69476933775121,75.43206698963701,46.487204075008776,37.71603349481859,2.6313511740570448,20.17369233443776,22.87241453712787,24.621849133904565,24.559277624532967,57.88972582925629,64.90666229340854,63.37132806484948
21,220,21,0.7006999999999983,31.22546599357729,153.45796172452836,20.689655172413723,31.08233858158612,41.37931034482767,46.55172413793116,34.52583516293238,117.2920782875513,86.22413620724122,70.68965517241372,67.24137931034477,68.9655172413793,33.62068965517233,49.13793103448279,16.379310344827672,12.931034482758605,20.68965517241378,24.199429047617613,23.27586206896558,53.448275862068954,60.34482758620692,62.284109890305
22,220,22,0.7340666666666649,32.801219104427794,160.34069202133094,20.75963440959272,29.307894619258263,41.37585122718792,46.5478326305863,34.65184654593676,117.23157847703271,87.92368385777445,71.54574274701258,68.95975204531328,67.23575824418049,33.617879122090244,49.13382333228583,19.825928713027565,12.929953508496169,20.759634409592664,22.478129069799223,22.41191941472681,58.6157892385163,63.78777064191485,63.99710208363064
23,220,23,0.7674333333333314,30.94181447810886,163.06162347871796,20.59611667508591,25.802293851676218,42.90857640642889,48.05760557520034,36.206296435967566,113.27864171297244,87.55032114478593,72.08640836280063,66.93737919402918,65.22103613777199,30.036003484500384,47.199434047071804,19.73794514695726,11.156229865671548,20.66750724157396,22.37837556100904,22.31245973134304,58.35566391274335,63.50469308151486,63.874716274638544
24,220,24,0.800799999999998,31.034482758620697,162.078136204221,20.761369963435047,25.919476514436013,43.10344827586209,48.27586206896558,36.37072949953268,113.79310344827582,87.94793617142652,72.41379310344826,68.9655172413793,67.24137931034477,31.896551724137908,45.689655172413836,18.103448275862092,12.931034482758605,20.68965517241378,24.199429047617613,24.13793103448279,58.620689655172384,63.79310344827587,62.45093198715462
25,220,25,0.8341666666666645,33.08796226175635,166.95020994124388,20.868776242655485,26.143874859149005,43.476617172198985,46.98694041094752,34.954767600614986,114.77826933460511,88.70934704663418,72.17118450585014,66.08445810174231,66.08445810174231,31.303164363983228,48.6938112328628,20.868776242655485,12.173452808215643,20.868776242655485,22.67462937912593,22.607840929543443,55.65006998041457,60.86726404107844,64.55655479948588
26,220,26,0.867533333333331,35.13121366682269,166.67429689821225,21.052429090413966,26.315536363017372,42.14139168720708,45.647321761893636,36.88349794814258,119.2970981790121,92.98156181599472,75.43787090731655,70.17476363471303,68.42039454384519,32.45582818105481,49.999519089732985,21.929613635847772,13.157768181508686,21.12540133379478,24.810525617134335,23.683982726715612,57.894179998638265,63.15728727124173,65.28987751699711
27,220,27,0.9008999999999976,34.63073667705953,166.2275360498861,20.778442006235764,27.758647128351416,45.01995768017741,46.78354902209109,36.40347723349242,119.47604153585559,91.7877859937844,74.45608385567806,69.26147335411912,69.26147335411912,32.89919984320659,50.21456818173647,20.778442006235764,13.852294670823767,20.778442006235764,24.303277597413704,24.241515673941706,55.409178683295295,62.335326018707235,64.44016164381182
28,220,28,0.934266666666664,43.47784992774609,163.48596607297725,17.391139971098482,27.880118296026843,45.21696392485592,48.72623762954173,40.15056443943003,128.70618601996142,100.92856346431029,79.12968686849797,71.30367388150364,73.04278787861358,32.17360894653223,56.5212049060699,26.956266955202523,14.782468975433744,22.60848196242796,24.40962815169143,23.47803896098293,55.6516479075151,62.60810389595446,64.55838526506045
29,220,29,0.9676333333333308,45.21568185908677,163.48133064983867,17.39064686887957,26.143874859149005,45.215681859087,48.72485606306965,40.1494260245563,128.70253673037965,102.66375094625535,79.99697559684597,71.30165216240613,73.04071684929414,32.17269670742712,56.519602323858635,26.955502646763307,14.78204983854755,20.868776242655485,24.408936049746185,24.3469056164314,57.38913466730253,62.6063287279664,64.55655479948588
30,220,30,1.0009999999999972,46.98694041094729,165.22029797286123,19.129711555767585,26.14387485914889,46.95474654597501,50.46285088579679,40.03627570273952,132.18035692336787,106.08294590016533,82.60557262717793,73.04071684929409,74.7797815361821,33.911761394315135,58.258667010746535,28.69456733365132,16.521114525435564,19.12971155576753,24.408936049746202,23.477373272987393,57.38913466730253,62.6063287279664,62.823335717397434
31,220,31,1.0343666666666638,44.664493054891544,166.51865196866257,18.882555066837426,27.46553464267265,44.63149379434299,51.52647944413931,39.481706048842,130.47258245810934,103.01005888271979,80.68000801285092,72.09702843701581,73.81362435218279,33.47362034575724,57.50596315809594,28.32383260025631,16.30766119408679,18.882555066837483,22.381672437836052,22.31574689717155,54.93106928534536,63.51404886118053,62.01165619815751
32,220,32,1.0677333333333303,46.98472018137616,165.20333868795728,19.20768965319108,27.878010437457156,45.2135453251251,48.69151035013465,38.257615275105934,132.1741111296516,104.33895075028892,80.86268683147392,73.03726552520226,73.03726552520226,34.779650250096324,59.12540542516365,29.562702712581768,15.650842612543329,20.867790150057772,26.31558057396112,25.215246431319827,59.125405425163706,64.34235296267815,62.98862559686784
33,220,33,1.1010999999999969,48.72485606306954,160.0317524821566,19.129711555767585,27.879327793034076,43.476617172198985,50.43287591975081,38.259423111535,133.95314378571751,106.09719957116009,81.73604028373398,74.77978153618204,78.25791090995796,38.25942311153494,57.38913466730264,26.085970303319414,19.129711555767358,22.607840929543443,24.408936049746185,24.3469056164314,57.38913466730253,64.34539341485436,62.823335717397434
34,220,34,1.1344666666666634,48.513941794981314,159.33902637328978,19.04690517238282,27.758647128351313,43.28842084632447,50.21456818173647,38.09381034476547,133.37330360634127,105.6379388364582,81.38223119108994,74.45608385567806,77.91915752338406,38.09381034476564,57.14071551714824,25.97305250779459,19.04690517238282,22.509978840088763,24.303277597413704,24.241515673941706,57.14071551714835,64.06686285256023,62.55139365450945
35,220,35,1.16783333333333,37.63707658144307,158.94726782718573,22.217150947932623,32.47122061620928,42.72529028448571,47.88283345778873,34.22293084789377,126.46685924207799,93.99563862586871,75.19651090069493,75.19651090069505,76.90552251207447,41.870784478796054,50.41584253569329,16.235610308104583,21.362645142242854,23.926162559312047,23.987121034056067,23.926162559312047,54.688371564141846,61.52441800965954,61.737674864038894
36,220,36,1.2011999999999965,36.24657737914651,153.45225982913104,20.688886426053045,31.033329639079625,41.413675481725804,46.58191081098665,32.80274249640915,120.68517081864286,89.65184117956323,71.54906555676689,75.85925022886124,77.583324097699,43.96388365536268,43.96388365536279,11.206480147445518,23.274997229309633,22.479173024948242,24.198529891838675,24.137034163728572,56.89443767164596,63.790733146996956,62.281795657302574
37,220,37,1.234566666666663,39.862971511221836,147.27227194473093,19.04690517238282,29.487009750515348,41.55688401247153,45.05324415990434,32.944735089695804,121.21994585898824,91.77145219420788,71.85877860489859,74.45608385567812,79.65069435723706,44.154189263251055,44.15418926325094,12.986526253897296,25.107284090868234,20.778442006235764,24.303277597413704,23.375747257015234,55.40917868329535,62.335326018707235,62.43144839811491
38,220,38,1.2679333333333296,38.300012859626214,147.86560442153439,19.130253968208365,29.564937950867375,41.77495176038305,45.25039606541212,34.82573065238254,121.73797979768915,92.17304184682177,73.04278787861358,76.52101587283323,79.99924386705288,43.47784992774615,43.47784992774609,12.173797979768892,24.347595959537784,20.9417056794997,24.409628151691447,24.34759595953784,57.390761904624924,62.60810389595446,64.55838526506045
39,220,39,1.301299999999996,36.401771952909115,143.75254069004689,20.849487834577868,29.434747272763047,36.36057016047198,41.590993677788695,31.166202994690252,117.78990325087655,88.37211595730207,70.12395673805304,74.45259604287116,77.91550748672569,45.01784877010823,41.554937326253594,8.657278609636137,24.240380106981434,22.57542061377984,24.302139137284417,24.24038010698132,58.86949454552604,64.06386171130777,64.15738564681027
