,frame_seq,m1,m3,m4,m5,m6,m7,m8,m9,m10,m11,m12,m13,m14,m15,m16,m17,e1,e2,e3,b1,b2,b3
0,84,12.0,48.373546489791295,6.0,10.0,12.165525060596439,13.152946437965905,10.04987562112089,38.01315561749642,28.0178514522438,22.0,23.0,17.0,10.0,18.0,9.0,6.0,6.0,6.0,6.0,20.0,21.0,21.095023109728988
1,85,14.0,49.09175083453431,6.0,10.04987562112089,13.038404810405298,14.142135623730951,10.04987562112089,40.049968789001575,30.01666203960727,23.0,23.0,20.0,11.5,18.5,7.5,6.5,6.082762530298219,6.0,6.0,20.0,22.0,23.021728866442675
2,86,14.0,50.08991914547278,5.0990195135927845,11.045361017187261,13.038404810405298,15.033296378372908,10.0,40.049968789001575,29.017236257093817,22.0,22.0,19.0,10.5,19.5,8.5,6.5,6.082762530298219,7.0710678118654755,6.5,20.0,23.0,23.0
3,87,15.033296378372908,49.09175083453431,5.0,11.0,13.038404810405298,14.035668847618199,9.219544457292887,40.11234224026316,29.154759474226502,21.5,21.0,18.0,10.5,20.5,9.5,6.5,5.0990195135927845,6.082762530298219,6.0,21.0,25.0,23.08679276123039
4,88,16.0312195418814,49.09175083453431,4.0,10.0,13.038404810405298,14.142135623730951,10.04987562112089,40.049968789001575,30.066592756745816,22.0,21.0,18.0,9.5,20.5,9.5,5.5,6.0,6.082762530298219,6.0,21.0,23.0,25.019992006393608
5,89,16.0312195418814,50.15974481593781,5.0,10.0,13.038404810405298,14.035668847618199,9.055385138137417,40.049968789001575,30.066592756745816,22.0,21.0,17.0,10.0,21.0,10.0,6.0,5.0,6.082762530298219,6.0,21.0,24.0,22.02271554554524
6,90,15.033296378372908,49.040799340956916,5.0,10.0,13.038404810405298,14.035668847618199,9.055385138137417,39.05124837953327,29.068883707497267,21.5,19.0,17.0,9.0,21.0,10.0,5.0,6.082762530298219,6.082762530298219,6.0,21.0,22.0,23.021728866442675
7,91,16.0312195418814,50.039984012787215,5.0,9.0,13.038404810405298,15.033296378372908,8.0,38.01315561749642,29.017236257093817,21.0,17.0,15.0,8.0,22.0,12.0,4.0,6.0,6.082762530298219,5.5,21.0,23.0,22.02271554554524
8,92,17.029386365926403,50.0,4.0,9.0,13.0,15.0,8.06225774829855,38.05259518088089,29.068883707497267,20.5,15.0,15.0,7.0,23.0,13.0,3.0,6.0,6.082762530298219,6.0,21.0,22.0,21.095023109728988
9,93,17.0,49.0,4.0,9.0,13.038404810405298,15.0,8.06225774829855,38.01315561749642,29.017236257093817,20.5,15.0,15.0,7.0,23.0,13.0,4.0,6.0,6.082762530298219,6.0,22.0,22.0,22.02271554554524
10,94,17.0,51.03920062069938,3.0,9.055385138137417,14.0,15.033296378372908,9.055385138137417,38.0,29.017236257093817,20.5,13.0,15.0,5.0,24.0,13.0,2.0,6.082762530298219,7.0,7.0,23.0,21.0,23.0
11,95,17.0,50.08991914547278,4.0,9.0,14.035668847618199,15.033296378372908,8.0,38.0,29.0,20.5,12.0,15.0,5.5,24.5,13.5,1.5,7.0710678118654755,6.0,6.5,24.0,20.0,23.021728866442675
12,96,16.0,50.08991914547278,4.123105625617661,9.0,13.038404810405298,16.0312195418814,8.06225774829855,37.0,28.0,20.0,12.0,15.0,5.5,23.5,12.5,1.5,7.0710678118654755,7.0710678118654755,7.0,24.0,20.0,23.0
13,97,16.0,49.09175083453431,4.0,10.0,13.038404810405298,14.035668847618199,8.0,38.0,28.0,20.0,12.0,15.0,5.5,24.5,12.5,1.5,7.0710678118654755,7.0710678118654755,7.0,24.0,20.0,22.02271554554524
14,98,16.0,49.09175083453431,4.0,9.0,12.041594578792296,14.035668847618199,7.0,36.0,27.0,19.0,10.0,13.0,4.5,24.5,13.5,0.5,7.0710678118654755,7.0710678118654755,7.0,23.0,19.0,23.021728866442675
15,99,15.0,50.08991914547278,4.0,9.0,13.0,15.033296378372908,8.0,36.0,27.0,19.5,10.0,13.0,3.5,24.5,13.5,0.5,7.0710678118654755,6.0,6.5,23.0,19.0,22.02271554554524
16,100,14.035668847618199,52.08646657242167,4.0,9.055385138137417,13.0,15.0,7.0710678118654755,34.0147027033899,25.0,18.0,8.0,11.0,2.5,24.5,13.5,0.5,7.0710678118654755,7.0,7.0,24.0,20.0,22.02271554554524
17,101,13.038404810405298,51.03920062069938,4.123105625617661,10.0,13.0,15.033296378372908,8.0,35.0,25.0,18.5,9.0,11.0,2.0,25.0,13.0,1.0,7.0710678118654755,8.0,7.5,24.0,20.0,22.02271554554524
18,102,13.0,51.03920062069938,4.0,9.0,14.0,15.033296378372908,7.0,33.0,24.0,17.5,9.0,11.0,3.0,23.0,13.0,0.0,6.082762530298219,6.082762530298219,6.0,24.0,20.0,22.02271554554524
19,103,13.038404810405298,50.039984012787215,4.0,9.055385138137417,13.0,15.0,8.06225774829855,34.0147027033899,25.0,18.5,10.0,12.0,3.0,23.0,13.0,0.0,7.0710678118654755,7.0,7.0,23.0,19.0,23.0
20,104,13.038404810405298,49.040799340956916,4.0,10.04987562112089,13.0,15.0,7.0710678118654755,34.0147027033899,24.0,17.5,9.0,11.0,3.0,24.0,13.0,0.0,7.0710678118654755,7.0,7.5,24.0,21.0,24.0
21,105,15.0,49.01020301937138,3.0,9.0,13.038404810405298,15.0,8.0,35.0,26.0,18.5,12.0,11.0,3.5,23.5,13.5,1.5,7.0710678118654755,7.0710678118654755,7.0,23.0,21.0,25.0
22,106,14.0,51.0098029794274,4.0,9.0,13.0,15.033296378372908,8.0,35.0,26.0,19.0,12.0,11.0,3.5,23.5,13.5,0.5,8.06225774829855,7.0,7.0,23.0,21.0,25.0
23,107,14.0,51.0,4.0,9.0,13.038404810405298,15.033296378372908,8.06225774829855,35.014282800023196,26.019223662515376,19.0,12.0,12.0,4.0,23.0,13.0,1.0,8.0,7.0,7.5,22.0,20.0,24.0
24,108,13.0,50.00999900019995,4.0,9.0,13.038404810405298,15.033296378372908,8.0,34.0,25.0,18.5,13.0,12.0,4.5,21.5,11.5,1.5,7.0710678118654755,7.0,7.5,22.0,21.0,23.0
25,109,12.0,49.01020301937138,4.0,9.0,13.0,15.033296378372908,8.06225774829855,33.015148038438355,24.020824298928627,18.0,12.0,11.0,3.5,21.5,12.5,0.5,8.0,8.0,7.5,22.0,21.0,23.021728866442675
26,110,13.0,50.00999900019995,4.0,8.0,14.035668847618199,14.035668847618199,8.06225774829855,33.015148038438355,25.019992006393608,18.5,12.0,11.0,3.5,21.5,12.5,0.5,8.06225774829855,8.06225774829855,7.5,22.0,20.0,23.0
27,111,12.0,49.01020301937138,4.0,9.0,13.0,14.035668847618199,8.06225774829855,33.015148038438355,24.020824298928627,18.0,12.0,11.0,3.5,21.5,11.5,0.5,7.0710678118654755,8.06225774829855,7.5,22.0,21.0,23.0
28,112,11.0,48.010415536631214,4.0,10.0,13.0,14.035668847618199,8.06225774829855,33.015148038438355,23.021728866442675,17.5,12.0,11.0,3.5,21.5,11.5,0.5,7.0710678118654755,8.0,7.5,22.0,21.0,23.0
29,113,11.0,48.010415536631214,4.0,10.0,13.038404810405298,14.0,8.06225774829855,33.015148038438355,23.021728866442675,17.5,12.0,11.0,3.5,21.5,11.5,0.5,8.06225774829855,7.0710678118654755,7.0,22.0,20.0,24.0
30,114,11.045361017187261,47.01063709417264,4.0,9.055385138137417,12.0,14.0,8.06225774829855,32.01562118716424,23.0,17.5,12.0,11.0,3.5,20.5,10.5,0.5,7.280109889280518,7.0710678118654755,7.5,22.0,21.0,24.020824298928627
31,115,11.0,48.0,4.0,9.0,13.0,14.0,9.055385138137417,33.015148038438355,24.020824298928627,18.5,13.0,13.0,4.0,20.0,10.0,1.0,8.06225774829855,8.06225774829855,7.5,23.0,20.0,24.0
32,116,11.0,48.010415536631214,4.0,9.0,13.0,14.035668847618199,8.06225774829855,32.01562118716424,23.021728866442675,17.5,12.0,11.0,3.5,20.5,11.5,0.5,7.0710678118654755,7.0710678118654755,7.0,23.0,21.0,24.0
33,117,10.0,47.01063709417264,4.0,9.0,13.0,15.033296378372908,9.0,32.0,23.0,18.0,13.0,12.0,3.5,19.5,9.5,0.5,6.082762530298219,7.0,7.0,23.0,21.0,23.0
34,118,11.0,48.0,4.0,9.055385138137417,13.0,14.035668847618199,9.0,33.015148038438355,24.0,18.5,12.0,12.0,3.0,21.0,12.0,0.0,4.123105625617661,4.123105625617661,4.0,23.0,20.0,23.021728866442675
35,119,12.0,49.09175083453431,4.0,9.055385138137417,13.0,14.142135623730951,8.06225774829855,33.0,24.020824298928627,18.0,14.0,11.0,4.5,20.5,10.5,1.5,3.0,3.0,3.0,23.0,22.0,22.0
36,120,12.0,48.16637831516918,5.0,9.0,13.152946437965905,14.142135623730951,8.06225774829855,34.0147027033899,25.019992006393608,19.0,17.0,13.0,7.0,19.0,10.0,4.0,2.0,3.0,3.0,22.0,23.0,23.021728866442675
37,121,11.045361017187261,46.389654018972806,5.0,10.0,12.041594578792296,13.152946437965905,9.0,35.014282800023196,25.019992006393608,19.5,20.0,14.0,8.0,18.0,9.0,4.0,3.0,4.123105625617661,3.5,21.0,24.0,22.090722034374522
38,122,13.038404810405298,46.52956049652737,5.0,9.055385138137417,12.165525060596439,13.341664064126334,9.055385138137417,36.124783736376884,27.073972741361768,20.5,22.0,15.0,9.5,17.5,8.5,5.5,3.1622776601683795,3.1622776601683795,3.0,19.0,25.0,23.021728866442675
39,123,12.041594578792296,46.69047011971501,5.0990195135927845,9.055385138137417,12.36931687685298,13.341664064126334,9.055385138137417,35.22782990761707,26.1725046566048,20.0,23.0,15.0,10.0,16.0,8.0,7.0,3.1622776601683795,3.1622776601683795,3.0,19.0,26.0,20.09975124224178
40,124,13.038404810405298,45.12205669071391,5.0990195135927845,10.04987562112089,12.36931687685298,13.341664064126334,9.055385138137417,37.21558813185679,27.16615541441225,20.5,25.0,15.0,11.0,17.0,8.0,8.0,4.123105625617661,4.47213595499958,3.5,18.0,26.0,21.095023109728988
41,125,14.035668847618199,45.35416188179427,5.0,9.219544457292887,11.40175425099138,13.341664064126334,9.219544457292887,37.33630940518894,28.160255680657446,21.0,26.0,15.0,11.5,16.5,8.5,8.5,3.1622776601683795,4.123105625617661,4.0,16.0,26.0,20.223748416156685
42,126,16.0312195418814,45.60701700396552,4.123105625617661,9.219544457292887,12.36931687685298,13.601470508735444,9.055385138137417,38.3275357934736,29.154759474226502,21.0,27.0,15.0,12.0,17.0,9.0,9.0,3.1622776601683795,4.123105625617661,3.5,16.0,29.0,20.396078054371138
43,127,15.033296378372908,44.9221548904324,5.0990195135927845,9.219544457292887,11.40175425099138,13.0,10.198039027185569,39.45883931389772,30.265491900843113,22.5,29.0,16.0,12.5,16.5,8.5,9.5,4.123105625617661,3.605551275463989,2.5,15.0,28.0,20.396078054371138
44,128,13.0,43.965895873961216,7.0710678118654755,10.198039027185569,11.40175425099138,12.649110640673518,9.219544457292887,39.319206502675,29.154759474226502,22.5,27.0,14.0,11.5,18.5,9.5,6.5,3.1622776601683795,4.47213595499958,3.5,15.0,30.0,20.396078054371138
45,129,11.045361017187261,43.657759905886145,7.0710678118654755,11.180339887498949,11.704699910719626,13.92838827718412,10.198039027185569,39.45883931389772,28.284271247461902,22.5,29.0,14.0,11.5,17.5,8.5,6.5,5.385164807134504,6.708203932499369,5.5,15.0,31.0,21.587033144922902
46,130,9.055385138137417,40.85339643163099,8.06225774829855,11.180339887498949,10.770329614269007,12.529964086141668,12.649110640673518,40.792156108742276,29.614185789921695,24.5,31.0,16.0,11.5,16.5,7.5,5.5,5.385164807134504,5.385164807134504,5.5,16.0,33.0,21.587033144922902
47,131,10.04987562112089,40.496913462633174,8.06225774829855,11.180339887498949,10.770329614269007,12.083045973594572,12.36931687685298,41.593268686170845,30.4138126514911,25.0,31.0,17.0,12.0,17.0,7.0,6.0,6.082762530298219,6.708203932499369,6.0,16.0,33.0,22.80350850198276
48,132,10.04987562112089,41.43669871020132,7.0710678118654755,11.180339887498949,10.44030650891055,12.083045973594572,14.560219778561036,42.7551166528639,31.575306807693888,26.0,32.0,18.0,11.0,17.0,7.0,6.0,7.280109889280518,7.615773105863909,7.0,18.0,34.0,23.769728648009426
49,133,9.055385138137417,41.43669871020132,7.0710678118654755,11.180339887498949,10.770329614269007,13.0,15.297058540778355,42.579337712087536,31.400636936215164,26.5,33.0,19.0,11.0,16.0,6.0,6.0,6.324555320336759,6.324555320336759,6.0,17.0,32.0,22.561028345356956
50,134,6.324555320336759,40.496913462633174,7.0,11.180339887498949,10.770329614269007,12.083045973594572,16.492422502470642,40.792156108742276,29.614185789921695,26.0,33.0,19.0,10.0,14.0,5.0,5.0,7.280109889280518,7.280109889280518,7.0,17.0,33.0,22.561028345356956
51,135,5.385164807134504,42.720018726587654,6.082762530298219,9.219544457292887,9.848857801796104,12.083045973594572,17.26267650163207,37.8549864614954,28.635642126552707,25.5,31.0,16.0,6.5,13.5,5.5,3.5,8.06225774829855,8.54400374531753,7.5,17.0,36.0,24.041630560342615
52,136,3.1622776601683795,43.657759905886145,6.082762530298219,8.54400374531753,10.295630140987,12.083045973594572,17.46424919657298,35.17101079013795,26.68332812825267,24.5,30.0,15.0,5.5,11.5,4.5,2.5,8.246211251235321,8.54400374531753,8.5,15.0,35.0,24.041630560342615
53,137,3.1622776601683795,44.384682042344295,6.082762530298219,8.54400374531753,10.295630140987,11.180339887498949,17.46424919657298,35.17101079013795,26.68332812825267,24.5,31.0,14.0,5.5,11.5,4.5,2.5,8.54400374531753,8.54400374531753,8.0,15.0,36.0,25.298221281347036
54,138,3.605551275463989,44.94441010848846,6.082762530298219,9.486832980505138,10.770329614269007,11.180339887498949,16.492422502470642,35.4400902933387,25.96150997149434,23.5,30.0,14.0,6.0,12.0,5.0,2.0,8.246211251235321,8.54400374531753,8.0,15.0,36.0,25.298221281347036
55,139,4.47213595499958,46.61544808322666,6.082762530298219,10.44030650891055,10.295630140987,11.661903789690601,16.492422502470642,37.36308338453881,26.92582403567252,24.0,31.0,13.0,6.0,14.0,6.0,3.0,8.54400374531753,8.54400374531753,8.0,15.0,37.0,25.298221281347036
56,140,7.0710678118654755,46.61544808322666,8.246211251235321,12.36931687685298,13.0,14.317821063276353,14.560219778561036,42.20189569201838,29.832867780352597,25.5,33.0,15.0,10.0,17.0,7.0,5.0,9.219544457292887,8.54400374531753,8.0,15.0,37.0,24.041630560342615
57,141,12.165525060596439,47.53945729601885,7.0710678118654755,12.36931687685298,13.0,14.317821063276353,13.601470508735444,45.12205669071391,32.7566787083184,26.0,33.0,15.0,11.0,20.0,10.0,6.0,9.219544457292887,8.94427190999916,8.0,14.0,37.0,27.202941017470888
58,142,12.165525060596439,48.84669896727925,7.0710678118654755,13.341664064126334,13.0,14.317821063276353,13.601470508735444,46.09772228646444,32.7566787083184,26.0,33.0,14.0,10.5,21.5,10.5,5.5,8.246211251235321,8.54400374531753,8.0,15.0,38.0,25.0
59,143,10.198039027185569,49.76946855251722,9.055385138137417,12.36931687685298,13.92838827718412,15.652475842498529,11.704699910719626,43.174066289845804,30.805843601498726,25.0,32.0,13.0,11.5,19.5,9.5,5.5,8.246211251235321,8.06225774829855,7.0,15.0,38.0,25.632011235952593
60,144,13.152946437965905,49.39635614091387,6.082762530298219,11.40175425099138,13.92838827718412,15.231546211727817,10.44030650891055,41.0,29.614185789921695,22.5,30.0,12.0,11.0,19.0,10.0,7.0,8.246211251235321,7.615773105863909,7.0,15.0,38.0,25.298221281347036
61,145,12.165525060596439,51.62363799656123,6.082762530298219,11.40175425099138,13.0,14.317821063276353,10.770329614269007,40.26164427839479,28.861739379323623,22.0,30.0,11.0,10.5,18.5,10.5,7.5,8.246211251235321,8.94427190999916,8.0,15.0,38.0,25.298221281347036
62,146,12.165525060596439,50.695167422546305,6.082762530298219,10.44030650891055,13.92838827718412,16.15549442140351,10.44030650891055,39.05124837953327,28.635642126552707,22.0,29.0,10.0,9.5,18.5,10.5,6.5,8.246211251235321,8.54400374531753,8.0,14.0,38.0,24.351591323771842
63,147,12.041594578792296,52.0,6.324555320336759,10.44030650891055,13.0,15.652475842498529,9.486832980505138,38.07886552931954,27.65863337187866,21.0,29.0,9.0,10.0,18.0,10.0,7.0,8.54400374531753,8.54400374531753,8.0,15.0,39.0,25.298221281347036
64,148,12.165525060596439,51.62363799656123,6.082762530298219,11.40175425099138,13.92838827718412,15.231546211727817,9.848857801796104,39.293765408777,27.892651361962706,21.0,29.0,10.0,10.5,18.5,9.5,7.5,8.246211251235321,8.94427190999916,8.0,14.0,38.0,24.351591323771842
65,149,12.165525060596439,51.62363799656123,6.082762530298219,11.40175425099138,13.92838827718412,15.231546211727817,10.770329614269007,40.26164427839479,28.861739379323623,22.0,30.0,11.0,10.5,18.5,10.5,7.5,8.246211251235321,8.94427190999916,8.5,14.0,37.0,24.351591323771842
66,150,12.041594578792296,49.76946855251722,6.324555320336759,10.44030650891055,13.0,15.231546211727817,10.770329614269007,39.293765408777,28.861739379323623,22.0,29.0,10.0,9.5,18.5,10.5,6.5,8.246211251235321,8.54400374531753,8.0,13.0,37.0,24.351591323771842
67,151,4.47213595499958,49.76946855251722,8.246211251235321,12.36931687685298,12.083045973594572,14.7648230602334,12.36931687685298,37.36308338453881,25.0,22.0,30.0,11.0,8.5,15.5,6.5,3.5,8.246211251235321,8.94427190999916,8.0,13.0,38.0,25.632011235952593
68,152,2.23606797749979,47.92702786528704,8.06225774829855,12.36931687685298,12.083045973594572,13.416407864998739,13.0,34.785054261852174,22.47220505424423,20.5,30.0,11.0,8.5,12.5,3.5,3.5,9.219544457292887,8.94427190999916,8.5,13.0,37.0,24.351591323771842
69,153,1.4142135623730951,47.92702786528704,8.246211251235321,11.704699910719626,13.0,13.416407864998739,12.649110640673518,33.83784863137726,22.135943621178654,20.5,30.0,11.0,8.5,11.5,2.5,3.5,8.246211251235321,8.54400374531753,8.5,13.0,37.0,24.351591323771842
70,154,3.1622776601683795,47.92702786528704,7.0710678118654755,12.36931687685298,12.529964086141668,13.416407864998739,13.92838827718412,35.11409973215888,22.847319317591726,20.5,30.0,11.0,7.5,12.5,3.5,3.5,8.246211251235321,8.94427190999916,8.0,13.0,38.0,24.351591323771842
71,155,3.605551275463989,47.92702786528704,8.06225774829855,12.36931687685298,12.083045973594572,14.317821063276353,13.0,36.68787265568828,24.351591323771842,21.5,30.0,11.0,8.5,14.5,4.5,3.5,8.246211251235321,8.54400374531753,8.0,13.0,37.0,24.351591323771842
72,156,7.280109889280518,48.84669896727925,6.082762530298219,10.770329614269007,13.0,13.892443989449804,12.649110640673518,36.68787265568828,25.96150997149434,21.5,30.0,11.0,8.5,14.5,6.5,5.5,8.246211251235321,7.615773105863909,7.5,14.0,34.0,25.96150997149434
73,157,7.280109889280518,48.84669896727925,6.324555320336759,10.44030650891055,13.0,13.416407864998739,12.649110640673518,36.68787265568828,26.248809496813376,21.5,31.0,12.0,9.5,13.5,5.5,6.5,8.246211251235321,8.94427190999916,8.0,13.0,35.0,25.96150997149434
74,158,8.54400374531753,48.84669896727925,5.0990195135927845,10.198039027185569,13.0,14.317821063276353,12.649110640673518,36.40054944640259,26.248809496813376,21.0,30.0,11.0,8.5,14.5,6.5,5.5,5.385164807134504,4.47213595499958,4.5,13.0,31.0,26.476404589747453
75,159,6.324555320336759,47.92702786528704,6.324555320336759,11.40175425099138,13.0,14.317821063276353,12.649110640673518,36.68787265568828,25.298221281347036,21.0,30.0,11.0,8.5,14.5,5.5,5.5,3.605551275463989,4.242640687119285,3.0,13.0,32.0,23.53720459187964
76,160,3.605551275463989,46.61544808322666,6.324555320336759,10.44030650891055,12.649110640673518,14.317821063276353,13.601470508735444,33.83784863137726,23.40939982143925,20.5,29.0,11.0,7.0,12.0,4.0,3.0,3.605551275463989,4.242640687119285,2.5,15.0,36.0,25.298221281347036
77,161,3.605551275463989,46.61544808322666,6.324555320336759,10.44030650891055,12.649110640673518,14.317821063276353,13.601470508735444,33.83784863137726,23.40939982143925,20.5,29.0,11.0,7.0,12.0,4.0,3.0,3.605551275463989,4.242640687119285,2.5,15.0,36.0,25.298221281347036
78,162,3.605551275463989,46.61544808322666,6.082762530298219,10.44030650891055,12.083045973594572,13.416407864998739,13.0,32.89376840679705,22.47220505424423,19.5,29.0,11.0,8.0,11.0,3.0,4.0,3.605551275463989,4.242640687119285,3.0,14.0,36.0,24.041630560342615
79,163,3.605551275463989,46.61544808322666,7.0710678118654755,11.40175425099138,12.083045973594572,13.416407864998739,13.601470508735444,35.4400902933387,24.041630560342615,21.5,30.0,12.0,8.0,13.0,4.0,4.0,4.242640687119285,4.242640687119285,3.0,15.0,36.0,24.041630560342615
80,164,13.152946437965905,48.46648326421054,5.0990195135927845,11.40175425099138,12.649110640673518,14.317821063276353,12.36931687685298,41.97618372363071,30.59411708155671,23.5,32.0,14.0,11.0,18.0,9.0,8.0,3.605551275463989,4.242640687119285,2.5,15.0,36.0,25.0
81,165,13.152946437965905,49.39635614091387,5.0990195135927845,10.44030650891055,13.92838827718412,15.231546211727817,11.40175425099138,40.024992192379,29.614185789921695,22.5,31.0,13.0,11.0,17.0,9.0,9.0,3.605551275463989,4.242640687119285,3.0,14.0,34.0,25.0
82,166,12.165525060596439,50.32891812864648,5.0990195135927845,10.44030650891055,13.0,15.231546211727817,11.40175425099138,39.05124837953327,28.635642126552707,22.0,30.0,12.0,10.0,17.0,9.0,8.0,4.47213595499958,5.0,4.0,14.0,35.0,23.08679276123039
83,167,12.165525060596439,49.9799959983992,5.0990195135927845,10.44030650891055,13.0,15.231546211727817,11.40175425099138,39.05124837953327,28.635642126552707,22.0,29.0,12.0,9.5,17.5,9.5,7.5,5.0,5.830951894845301,5.0,15.0,35.0,24.041630560342615
84,168,12.165525060596439,49.040799340956916,5.0990195135927845,9.486832980505138,13.92838827718412,15.231546211727817,10.44030650891055,37.107950630558946,27.65863337187866,21.0,28.0,11.0,9.5,16.5,9.5,7.5,5.385164807134504,5.830951894845301,5.0,15.0,35.0,23.769728648009426
85,169,11.180339887498949,49.9799959983992,5.0990195135927845,10.198039027185569,13.0,15.231546211727817,11.40175425099138,37.8549864614954,27.65863337187866,21.5,29.0,12.0,9.5,16.5,8.5,7.5,6.324555320336759,6.708203932499369,6.0,14.0,34.0,24.041630560342615
86,170,11.180339887498949,49.040799340956916,5.0990195135927845,10.44030650891055,13.601470508735444,15.231546211727817,10.44030650891055,37.107950630558946,26.68332812825267,20.5,28.0,11.0,9.5,16.5,8.5,6.5,6.324555320336759,6.708203932499369,6.0,15.0,34.0,22.80350850198276
87,171,5.385164807134504,49.040799340956916,7.0710678118654755,11.180339887498949,11.704699910719626,13.0,12.649110640673518,36.138621999185304,25.0,21.5,29.0,12.0,8.5,14.5,5.5,3.5,7.280109889280518,7.615773105863909,7.0,15.0,34.0,24.041630560342615
88,172,5.385164807134504,47.75981574503821,7.0710678118654755,12.165525060596439,11.704699910719626,13.92838827718412,12.649110640673518,37.107950630558946,25.0,21.5,29.0,13.0,9.0,15.0,5.0,4.0,7.280109889280518,8.54400374531753,7.5,14.0,34.0,25.0
89,173,2.23606797749979,48.703182647543684,8.06225774829855,11.180339887498949,12.649110640673518,13.92838827718412,13.601470508735444,34.20526275297414,23.08679276123039,21.5,29.0,13.0,8.0,12.0,3.0,3.0,8.246211251235321,7.615773105863909,7.5,15.0,34.0,24.041630560342615
90,174,2.23606797749979,47.75981574503821,8.06225774829855,12.165525060596439,13.0,13.416407864998739,13.601470508735444,35.17101079013795,23.08679276123039,21.5,29.0,13.0,8.0,13.0,3.0,3.0,8.246211251235321,7.615773105863909,7.5,15.0,34.0,24.041630560342615
91,175,3.605551275463989,48.104053883222775,7.0710678118654755,11.180339887498949,11.704699910719626,13.0,12.649110640673518,34.20526275297414,23.08679276123039,20.5,29.0,12.0,8.5,12.5,3.5,3.5,8.06225774829855,7.615773105863909,7.0,14.0,34.0,24.73863375370596
92,176,2.8284271247461903,48.104053883222775,7.0710678118654755,12.36931687685298,11.704699910719626,13.0,13.341664064126334,35.17101079013795,22.80350850198276,21.0,29.0,12.0,7.5,13.5,3.5,2.5,8.246211251235321,7.615773105863909,7.5,14.0,34.0,24.041630560342615
93,177,2.8284271247461903,47.75981574503821,8.06225774829855,12.36931687685298,12.083045973594572,13.416407864998739,13.601470508735444,36.40054944640259,24.041630560342615,22.0,29.0,13.0,8.0,14.0,4.0,3.0,8.246211251235321,8.54400374531753,8.5,16.0,35.0,25.0
94,178,2.8284271247461903,47.75981574503821,7.0710678118654755,12.36931687685298,11.704699910719626,13.0,13.601470508735444,35.4400902933387,23.08679276123039,21.0,29.0,13.0,8.0,13.0,3.0,3.0,8.246211251235321,8.246211251235321,8.0,16.0,34.0,25.0
95,179,3.605551275463989,47.75981574503821,8.06225774829855,11.180339887498949,12.083045973594572,13.0,12.649110640673518,35.17101079013795,24.041630560342615,21.5,29.0,13.0,9.0,13.0,3.0,4.0,8.246211251235321,8.54400374531753,8.0,15.0,33.0,24.041630560342615
96,180,2.8284271247461903,47.75981574503821,8.06225774829855,12.36931687685298,13.0,14.317821063276353,12.649110640673518,35.4400902933387,23.08679276123039,21.0,28.0,12.0,8.0,14.0,4.0,3.0,8.246211251235321,8.246211251235321,8.0,15.0,33.0,24.73863375370596
97,181,3.605551275463989,47.75981574503821,8.06225774829855,12.36931687685298,12.649110640673518,13.92838827718412,13.341664064126334,37.107950630558946,24.73863375370596,22.5,30.0,14.0,9.0,14.0,4.0,4.0,8.246211251235321,8.54400374531753,8.0,15.0,33.0,24.73863375370596
98,182,6.082762530298219,47.75981574503821,7.0710678118654755,12.36931687685298,12.649110640673518,14.317821063276353,13.601470508735444,39.05124837953327,26.68332812825267,23.0,30.0,14.0,9.0,16.0,6.0,4.0,8.246211251235321,8.54400374531753,8.0,15.0,33.0,23.769728648009426
99,183,15.132745950421556,49.9799959983992,5.0990195135927845,10.198039027185569,12.649110640673518,13.92838827718412,11.40175425099138,41.773197148410844,31.575306807693888,23.5,30.0,13.0,10.5,19.5,11.5,7.5,8.06225774829855,8.54400374531753,8.0,16.0,34.0,24.73863375370596
100,184,15.132745950421556,48.703182647543684,5.0990195135927845,11.180339887498949,12.649110640673518,15.231546211727817,11.40175425099138,42.7551166528639,31.575306807693888,23.5,29.0,13.0,10.0,21.0,12.0,7.0,8.246211251235321,8.54400374531753,8.0,16.0,34.0,24.73863375370596
101,185,16.1245154965971,48.38388161361178,5.0990195135927845,11.180339887498949,11.704699910719626,14.317821063276353,10.44030650891055,42.7551166528639,31.575306807693888,23.0,29.0,14.0,11.5,20.5,11.5,8.5,8.246211251235321,8.54400374531753,8.5,16.0,34.0,24.73863375370596
102,186,16.0312195418814,49.33558553417604,5.385164807134504,10.44030650891055,12.649110640673518,14.560219778561036,10.198039027185569,41.773197148410844,31.400636936215164,23.0,29.0,14.0,11.5,19.5,10.5,8.5,8.06225774829855,8.54400374531753,8.0,16.0,34.0,23.769728648009426
103,187,16.0312195418814,49.33558553417604,5.0990195135927845,10.44030650891055,13.601470508735444,15.231546211727817,10.44030650891055,41.773197148410844,31.400636936215164,23.0,29.0,14.0,11.5,19.5,10.5,8.5,9.219544457292887,8.54400374531753,8.0,16.0,34.0,23.769728648009426
104,188,13.152946437965905,49.33558553417604,5.0990195135927845,10.44030650891055,12.649110640673518,14.866068747318506,10.198039027185569,38.8329756778952,28.442925306655784,21.5,28.0,13.0,10.5,17.5,9.5,7.5,8.246211251235321,8.246211251235321,8.0,15.0,33.0,23.769728648009426
105,189,12.165525060596439,50.59644256269407,5.385164807134504,10.198039027185569,12.649110640673518,14.866068747318506,10.198039027185569,37.8549864614954,27.65863337187866,21.0,27.0,11.0,9.0,18.0,10.0,7.0,8.06225774829855,8.246211251235321,8.0,16.0,33.0,24.73863375370596
106,190,10.198039027185569,51.54609587543949,5.0990195135927845,10.198039027185569,13.601470508735444,14.866068747318506,10.44030650891055,35.90264614203248,25.709920264364882,20.0,26.0,10.0,8.0,17.0,9.0,6.0,8.246211251235321,8.246211251235321,8.0,16.0,33.0,23.53720459187964
107,191,11.180339887498949,50.28916384272063,5.0990195135927845,10.198039027185569,13.601470508735444,14.866068747318506,10.44030650891055,36.87817782917155,26.68332812825267,20.5,27.0,12.0,9.5,16.5,8.5,6.5,8.06225774829855,8.54400374531753,8.0,16.0,33.0,23.53720459187964
108,192,11.180339887498949,50.28916384272063,5.385164807134504,9.219544457292887,12.649110640673518,13.92838827718412,10.198039027185569,35.90264614203248,26.68332812825267,20.5,26.0,11.0,8.5,16.5,8.5,6.5,8.246211251235321,7.615773105863909,7.5,15.0,32.0,23.769728648009426
109,193,11.180339887498949,51.24451190127583,5.0990195135927845,9.486832980505138,13.601470508735444,14.866068747318506,10.198039027185569,35.90264614203248,26.476404589747453,20.5,26.0,11.0,8.5,16.5,8.5,6.5,6.324555320336759,6.708203932499369,6.5,16.0,33.0,24.515301344262525
110,194,11.180339887498949,50.695167422546305,5.0990195135927845,9.219544457292887,13.341664064126334,14.866068747318506,10.198039027185569,35.6931365951495,26.476404589747453,20.5,25.0,12.0,8.5,16.5,8.5,5.5,2.8284271247461903,2.8284271247461903,2.5,17.0,31.0,23.53720459187964
111,195,11.180339887498949,50.695167422546305,5.0990195135927845,9.219544457292887,13.341664064126334,14.866068747318506,10.198039027185569,35.6931365951495,26.476404589747453,20.5,25.0,12.0,8.5,16.5,8.5,5.5,2.8284271247461903,2.8284271247461903,2.5,17.0,31.0,23.53720459187964
112,196,11.045361017187261,50.695167422546305,5.0990195135927845,9.219544457292887,13.341664064126334,14.560219778561036,10.198039027185569,35.510561809129406,26.30589287593181,20.5,26.0,13.0,9.5,15.5,7.5,6.5,2.23606797749979,2.23606797749979,2.0,17.0,31.0,24.331050121192877
113,197,13.038404810405298,52.630789467763066,4.123105625617661,9.219544457292887,14.560219778561036,15.811388300841896,11.180339887498949,37.48332962798263,28.284271247461902,21.5,26.0,13.0,8.5,17.5,9.5,6.5,2.23606797749979,3.1622776601683795,3.0,18.0,31.0,24.515301344262525
114,198,13.152946437965905,51.19570294468082,4.0,10.04987562112089,13.341664064126334,15.524174696260024,10.198039027185569,37.33630940518894,27.294688127912362,20.5,24.0,13.0,8.5,18.5,9.5,6.5,2.8284271247461903,2.23606797749979,2.0,18.0,28.0,23.345235059857504
115,199,13.038404810405298,51.419840528729765,5.0990195135927845,10.04987562112089,13.341664064126334,15.524174696260024,10.198039027185569,38.3275357934736,28.284271247461902,21.5,26.0,14.0,10.0,18.0,9.0,7.0,3.1622776601683795,2.23606797749979,2.0,19.0,29.0,24.331050121192877
116,200,15.033296378372908,52.172789842982326,4.123105625617661,9.055385138137417,14.317821063276353,15.297058540778355,10.04987562112089,38.2099463490856,29.154759474226502,21.5,25.0,14.0,9.5,18.5,10.5,6.5,3.605551275463989,3.605551275463989,2.5,19.0,29.0,24.186773244895647
117,201,15.033296378372908,50.99019513592785,4.0,10.198039027185569,13.341664064126334,15.524174696260024,11.180339887498949,40.311288741492746,30.14962686336267,22.5,25.0,15.0,9.0,20.0,11.0,7.0,4.123105625617661,4.47213595499958,4.0,20.0,29.0,24.186773244895647
118,202,16.0312195418814,51.19570294468082,4.0,9.055385138137417,13.152946437965905,15.297058540778355,11.180339887498949,40.19950248448356,31.144823004794873,23.0,26.0,15.0,9.5,19.5,10.5,6.5,4.123105625617661,4.123105625617661,4.0,20.0,29.0,25.317977802344327
119,203,16.0312195418814,51.78802950489621,5.0990195135927845,10.04987562112089,14.317821063276353,14.560219778561036,11.180339887498949,42.2965719651132,32.2490309931942,24.0,26.0,17.0,10.5,20.5,10.5,7.5,6.082762530298219,6.082762530298219,5.5,20.0,29.0,25.179356624028344
120,204,17.0,50.80354318352215,5.0990195135927845,10.04987562112089,14.317821063276353,15.297058540778355,10.198039027185569,42.190046219457976,32.14031735997639,23.5,26.0,17.0,11.5,20.5,11.5,8.5,6.0,7.280109889280518,7.0,20.0,29.0,24.186773244895647
121,205,21.0,50.635955604688654,4.0,10.04987562112089,14.142135623730951,15.297058540778355,11.180339887498949,46.09772228646444,36.05551275463989,25.5,27.0,19.0,12.0,23.0,13.0,9.0,7.0710678118654755,6.082762530298219,6.0,21.0,29.0,24.186773244895647
122,206,22.0,49.49747468305833,5.0990195135927845,10.04987562112089,13.152946437965905,16.278820596099706,11.180339887498949,48.16637831516918,38.118237105091836,27.0,28.0,21.0,13.5,23.5,13.5,10.5,7.0710678118654755,7.280109889280518,6.5,21.0,29.0,24.186773244895647
123,207,22.0,49.49747468305833,5.0990195135927845,10.04987562112089,13.152946437965905,16.278820596099706,11.180339887498949,48.16637831516918,38.118237105091836,27.0,28.0,21.0,13.5,23.5,13.5,10.5,7.0710678118654755,7.280109889280518,6.5,21.0,29.0,24.186773244895647
124,208,23.0,49.49747468305833,5.0,10.04987562112089,13.152946437965905,15.132745950421556,11.180339887498949,49.09175083453431,39.05124837953327,27.5,28.0,21.0,13.5,24.5,14.5,9.5,7.0710678118654755,7.280109889280518,7.0,21.0,29.0,25.179356624028344
125,209,23.0,50.35871324805669,6.0,10.04987562112089,14.142135623730951,15.297058540778355,11.180339887498949,50.08991914547278,40.049968789001575,28.5,28.0,22.0,14.0,25.0,16.0,10.0,7.0,7.0710678118654755,7.0,22.0,30.0,25.317977802344327
126,210,24.0,50.48762224545735,6.082762530298219,10.0,13.038404810405298,15.132745950421556,11.180339887498949,51.088159097779204,41.10960958218893,29.0,29.0,22.0,14.5,25.5,15.5,9.5,7.0710678118654755,6.082762530298219,6.5,22.0,29.0,24.186773244895647
127,211,24.020824298928627,51.35172830587107,5.0,11.045361017187261,14.142135623730951,16.278820596099706,12.165525060596439,52.15361924162119,41.10960958218893,29.0,29.0,23.0,14.0,26.0,15.0,10.0,4.123105625617661,5.385164807134504,5.0,22.0,28.0,26.1725046566048
128,212,24.0,52.3450093132096,5.0990195135927845,10.0,14.035668847618199,15.297058540778355,13.152946437965905,52.08646657242167,42.1070065428546,30.0,29.0,23.0,13.0,26.0,16.0,9.0,4.0,4.123105625617661,3.5,24.0,29.0,25.179356624028344
129,213,25.019992006393608,51.35172830587107,5.0,10.0,15.033296378372908,17.11724276862369,13.152946437965905,53.08483775994799,43.104524124504614,30.5,30.0,24.0,14.0,26.0,16.0,10.0,4.0,3.1622776601683795,3.0,23.0,28.0,25.079872407968907
130,214,24.0,50.24937810560445,5.0990195135927845,11.0,14.035668847618199,15.132745950421556,12.041594578792296,52.03844732503075,41.048751503547585,29.0,28.0,23.0,13.5,26.5,15.5,8.5,4.0,5.0990195135927845,4.5,24.0,29.0,25.179356624028344
131,215,23.0,50.24937810560445,6.0,10.04987562112089,14.035668847618199,16.1245154965971,12.165525060596439,51.088159097779204,41.048751503547585,29.5,29.0,24.0,14.5,24.5,14.5,9.5,6.082762530298219,6.082762530298219,6.0,24.0,29.0,25.179356624028344
132,216,22.0,50.24937810560445,5.0,10.04987562112089,14.035668847618199,15.132745950421556,13.152946437965905,50.08991914547278,40.049968789001575,29.0,29.0,24.0,13.5,23.5,13.5,8.5,7.0710678118654755,7.0710678118654755,7.5,24.0,29.0,25.079872407968907
133,217,13.038404810405298,48.373546489791295,7.0,11.0,12.165525060596439,13.152946437965905,14.035668847618199,45.044422518220834,34.058772731852805,27.5,28.0,22.0,11.0,20.0,9.0,5.0,8.0,8.06225774829855,8.0,24.0,29.0,25.179356624028344
134,218,7.0710678118654755,45.39823785126467,8.0,12.0,11.180339887498949,13.152946437965905,13.152946437965905,40.11234224026316,28.160255680657446,24.5,27.0,21.0,11.0,16.0,4.0,4.0,8.06225774829855,8.06225774829855,8.0,24.0,29.0,24.186773244895647
135,219,7.0710678118654755,45.27692569068709,8.0,11.0,11.180339887498949,12.165525060596439,14.142135623730951,40.11234224026316,29.154759474226502,25.5,27.0,22.0,10.5,15.5,4.5,3.5,8.0,8.06225774829855,8.0,24.0,30.0,24.186773244895647
136,220,3.0,44.553338819890925,7.0,12.041594578792296,11.180339887498949,12.36931687685298,15.297058540778355,37.21558813185679,25.179356624028344,23.5,27.0,20.0,8.5,13.5,2.5,2.5,8.0,8.06225774829855,8.0,24.0,30.0,24.186773244895647
137,221,3.0,43.56604182158393,7.0710678118654755,11.045361017187261,11.180339887498949,12.165525060596439,15.132745950421556,36.22154055254967,25.179356624028344,23.5,27.0,20.0,8.5,12.5,1.5,2.5,9.055385138137417,9.219544457292887,8.5,23.0,29.0,25.179356624028344
138,222,2.0,42.579337712087536,7.0710678118654755,12.041594578792296,11.40175425099138,12.36931687685298,15.297058540778355,36.345563690772494,24.331050121192877,23.0,27.0,20.0,8.5,12.5,1.5,3.5,8.06225774829855,8.06225774829855,8.0,23.0,29.0,24.08318915758459
139,223,4.123105625617661,43.73785545725808,7.0,12.0,11.180339887498949,12.165525060596439,13.341664064126334,36.22154055254967,24.331050121192877,22.0,27.0,19.0,10.0,13.0,2.0,4.0,9.055385138137417,9.219544457292887,9.0,22.0,29.0,25.079872407968907
140,224,6.082762530298219,44.553338819890925,8.0,11.045361017187261,12.165525060596439,13.341664064126334,13.341664064126334,38.3275357934736,27.294688127912362,24.0,27.0,20.0,10.5,14.5,3.5,4.5,8.06225774829855,9.219544457292887,9.0,22.0,30.0,23.345235059857504
141,225,8.06225774829855,47.51841748206689,6.082762530298219,12.041594578792296,11.180339887498949,13.152946437965905,12.165525060596439,38.3275357934736,26.30589287593181,22.0,26.0,19.0,10.5,15.5,4.5,5.5,8.0,9.055385138137417,9.0,23.0,31.0,23.194827009486403
142,226,8.06225774829855,46.52956049652737,6.082762530298219,12.0,13.152946437965905,13.341664064126334,12.165525060596439,38.2099463490856,26.30589287593181,22.0,26.0,19.0,10.5,15.5,4.5,5.5,9.0,8.246211251235321,8.0,22.0,30.0,24.186773244895647
143,227,7.0,47.38143096192854,7.0710678118654755,11.045361017187261,13.152946437965905,14.317821063276353,12.165525060596439,37.21558813185679,26.1725046566048,22.5,25.0,19.0,10.0,15.0,4.0,4.0,9.055385138137417,8.06225774829855,8.0,23.0,30.0,23.194827009486403
144,228,2.23606797749979,43.41658669218482,7.0,12.041594578792296,11.045361017187261,12.165525060596439,14.142135623730951,35.22782990761707,23.194827009486403,22.0,25.0,19.0,8.0,13.0,1.0,2.0,9.055385138137417,9.055385138137417,9.0,23.0,30.0,22.20360331117452
145,229,2.0,43.41658669218482,7.0,12.041594578792296,11.180339887498949,11.180339887498949,13.341664064126334,34.23448553724738,22.20360331117452,21.0,24.0,18.0,8.0,13.0,1.0,2.0,8.0,9.055385138137417,9.0,24.0,29.0,23.08679276123039
146,230,1.4142135623730951,43.41658669218482,8.0,12.0,11.180339887498949,12.165525060596439,14.317821063276353,35.22782990761707,23.345235059857504,22.5,25.0,19.0,8.0,13.0,1.0,2.0,8.0,9.055385138137417,9.0,24.0,29.0,23.194827009486403
147,231,2.23606797749979,42.42640687119285,7.0,12.041594578792296,10.198039027185569,11.40175425099138,14.142135623730951,35.22782990761707,23.194827009486403,22.0,25.0,19.0,8.0,13.0,2.0,2.0,9.0,9.219544457292887,9.0,24.0,29.0,23.08679276123039
148,232,3.0,41.593268686170845,8.06225774829855,12.041594578792296,10.198039027185569,11.40175425099138,14.317821063276353,37.33630940518894,25.317977802344327,23.5,27.0,20.0,9.5,13.5,1.5,2.5,7.0,7.0710678118654755,6.5,24.0,29.0,23.08679276123039
149,233,4.123105625617661,40.607881008493905,7.0,12.041594578792296,10.198039027185569,11.40175425099138,15.297058540778355,38.3275357934736,26.30589287593181,24.0,28.0,21.0,9.5,13.5,2.5,3.5,5.0990195135927845,5.0,5.0,25.0,28.0,23.021728866442675
150,234,4.0,39.6232255123179,7.0,13.038404810405298,10.198039027185569,11.40175425099138,15.524174696260024,39.319206502675,26.30589287593181,24.0,28.0,21.0,9.5,14.5,2.5,3.5,4.0,5.0,4.5,24.0,29.0,24.020824298928627
151,235,5.0990195135927845,39.6232255123179,8.0,11.045361017187261,10.198039027185569,11.40175425099138,15.297058540778355,39.319206502675,28.284271247461902,25.5,29.0,22.0,10.5,13.5,2.5,4.5,5.0,5.0,5.0,25.0,29.0,23.021728866442675
152,236,5.0,39.6232255123179,7.0,12.041594578792296,9.219544457292887,11.180339887498949,16.278820596099706,40.19950248448356,28.160255680657446,25.5,30.0,23.0,10.5,13.5,2.5,5.5,7.0,7.0710678118654755,6.5,24.0,27.0,22.02271554554524
153,237,7.0710678118654755,40.44749683231337,7.0,12.0,10.198039027185569,12.165525060596439,15.132745950421556,41.10960958218893,29.154759474226502,25.5,29.0,23.0,11.0,15.0,4.0,5.0,7.0,7.0,6.5,25.0,27.0,23.021728866442675
154,238,8.06225774829855,39.20459156782532,8.0,12.0,10.04987562112089,12.36931687685298,14.142135623730951,42.1070065428546,30.14962686336267,26.0,28.0,24.0,12.0,16.0,4.0,5.0,7.0,7.0,6.5,26.0,26.0,24.0
155,239,8.0,42.1070065428546,8.0,13.0,11.180339887498949,13.152946437965905,13.038404810405298,42.01190307520001,29.017236257093817,25.0,26.0,23.0,11.5,17.5,4.5,4.5,8.0,8.0,8.0,28.0,28.0,23.0
156,240,10.0,43.104524124504614,7.0710678118654755,12.0,11.0,13.152946437965905,12.041594578792296,41.0,29.0,24.0,24.0,21.0,10.5,18.5,6.5,3.5,7.0,8.06225774829855,8.0,27.0,26.0,24.0
157,241,11.0,44.10215414239989,6.0,12.041594578792296,11.0,13.152946437965905,12.041594578792296,41.0,29.017236257093817,23.5,23.0,20.0,9.5,19.5,7.5,3.5,8.0,8.06225774829855,8.0,27.0,26.0,24.0
158,242,9.0,43.04648650006177,7.0,12.041594578792296,11.0,13.038404810405298,12.041594578792296,40.0,28.0178514522438,23.5,23.0,21.0,10.0,18.0,6.0,3.0,8.06225774829855,8.06225774829855,8.0,27.0,26.0,23.0
159,243,9.0,44.181444068749045,7.0,12.0,12.041594578792296,13.152946437965905,11.0,39.0,27.0,22.5,22.0,18.0,9.0,19.0,7.0,3.0,7.0,8.06225774829855,8.0,27.0,26.0,23.0
160,244,10.0,44.181444068749045,6.0,11.0,11.045361017187261,13.038404810405298,11.045361017187261,38.01315561749642,27.018512172212592,22.0,22.0,18.0,9.0,18.0,7.0,4.0,6.0,6.0,5.5,26.0,25.0,23.0
161,245,5.0,44.28317965096906,8.0,12.0,11.045361017187261,13.152946437965905,11.045361017187261,36.013886210738214,24.020824298928627,21.5,22.0,17.0,8.5,16.5,4.5,1.5,3.0,3.1622776601683795,3.0,27.0,28.0,24.020824298928627
162,246,2.23606797749979,44.553338819890925,7.0,11.0,11.180339887498949,13.341664064126334,12.041594578792296,32.0624390837628,21.095023109728988,20.0,22.0,15.0,6.5,13.5,3.5,1.5,3.0,3.0,2.5,26.0,29.0,24.020824298928627
163,247,3.1622776601683795,42.7551166528639,6.0,11.045361017187261,10.198039027185569,12.36931687685298,12.041594578792296,32.14031735997639,21.095023109728988,19.5,23.0,15.0,7.0,13.0,3.0,2.0,5.0,5.385164807134504,5.0,25.0,30.0,24.08318915758459
164,248,2.23606797749979,44.91102314577124,6.0,11.045361017187261,11.40175425099138,12.649110640673518,13.152946437965905,32.2490309931942,21.213203435596427,20.0,24.0,15.0,6.5,12.5,2.5,2.5,6.0,6.082762530298219,6.0,23.0,29.0,23.08679276123039
165,249,2.8284271247461903,43.41658669218482,7.0,11.045361017187261,10.44030650891055,12.649110640673518,12.165525060596439,32.38826948140329,21.37755832643195,20.0,25.0,14.0,7.5,12.5,2.5,2.5,8.0,6.324555320336759,6.5,21.0,30.0,24.08318915758459
166,250,3.605551275463989,44.64302857109943,6.0,12.041594578792296,11.704699910719626,13.92838827718412,12.36931687685298,33.54101966249684,21.587033144922902,19.5,25.0,13.0,7.0,14.0,4.0,3.0,8.0,7.280109889280518,7.5,20.0,31.0,23.194827009486403
167,251,8.246211251235321,42.720018726587654,7.0,12.041594578792296,10.770329614269007,13.0,11.180339887498949,38.3275357934736,26.30589287593181,22.0,25.0,13.0,8.0,19.0,8.0,3.0,8.0,8.246211251235321,8.0,20.0,33.0,22.360679774997898
168,252,9.055385138137417,43.68065933568311,8.0,13.152946437965905,11.40175425099138,13.92838827718412,11.40175425099138,41.43669871020132,28.284271247461902,23.5,27.0,15.0,10.0,20.0,8.0,4.0,8.06225774829855,8.246211251235321,8.0,20.0,33.0,23.345235059857504
169,253,10.04987562112089,44.384682042344295,8.0,13.038404810405298,12.649110640673518,14.560219778561036,11.40175425099138,42.2965719651132,29.274562336608895,24.0,27.0,16.0,10.5,20.5,8.5,4.5,8.06225774829855,8.246211251235321,8.5,20.0,33.0,23.345235059857504
170,254,14.0,47.53945729601885,6.082762530298219,12.165525060596439,12.36931687685298,14.866068747318506,10.198039027185569,42.2965719651132,30.14962686336267,23.0,25.0,13.0,9.0,23.0,13.0,5.0,9.055385138137417,8.246211251235321,8.0,20.0,33.0,24.331050121192877
171,255,15.033296378372908,47.53945729601885,5.0990195135927845,12.041594578792296,12.36931687685298,14.866068747318506,10.04987562112089,42.190046219457976,30.14962686336267,22.5,25.0,13.0,9.0,23.0,13.0,5.0,9.0,8.246211251235321,8.5,20.0,33.0,23.345235059857504
172,256,16.0312195418814,48.27007354458868,4.123105625617661,11.045361017187261,12.36931687685298,14.560219778561036,10.04987562112089,41.19465984809196,30.14962686336267,22.0,24.0,13.0,8.5,22.5,12.5,5.5,9.055385138137417,9.486832980505138,9.0,20.0,32.0,24.331050121192877
173,257,14.035668847618199,49.24428900898052,5.0990195135927845,11.045361017187261,12.36931687685298,15.524174696260024,10.04987562112089,40.19950248448356,29.154759474226502,22.0,24.0,13.0,8.5,21.5,11.5,5.5,9.055385138137417,9.219544457292887,9.0,20.0,33.0,24.186773244895647
174,258,13.038404810405298,49.47726750741192,5.0,11.180339887498949,12.36931687685298,14.866068747318506,10.198039027185569,39.319206502675,28.160255680657446,21.5,24.0,12.0,8.0,21.0,11.0,5.0,9.055385138137417,8.246211251235321,8.5,21.0,32.0,25.179356624028344
175,259,12.165525060596439,49.24428900898052,5.0,10.04987562112089,12.36931687685298,14.560219778561036,10.04987562112089,37.21558813185679,27.16615541441225,21.0,23.0,12.0,7.5,19.5,10.5,4.5,9.0,9.219544457292887,9.0,21.0,33.0,24.331050121192877
176,260,12.041594578792296,51.19570294468082,4.123105625617661,11.045361017187261,12.165525060596439,14.560219778561036,10.04987562112089,37.21558813185679,26.1725046566048,20.0,23.0,12.0,7.5,19.5,10.5,4.5,9.0,9.486832980505138,9.0,21.0,32.0,24.186773244895647
177,261,12.041594578792296,51.19570294468082,5.0990195135927845,10.04987562112089,12.36931687685298,14.560219778561036,10.04987562112089,37.21558813185679,27.16615541441225,21.0,23.0,12.0,7.5,19.5,9.5,4.5,9.055385138137417,9.219544457292887,9.0,21.0,32.0,23.345235059857504
178,262,11.045361017187261,51.19570294468082,4.123105625617661,10.04987562112089,13.341664064126334,14.560219778561036,10.04987562112089,35.22782990761707,25.179356624028344,19.5,21.0,10.0,5.5,19.5,10.5,3.5,9.0,9.219544457292887,9.0,21.0,32.0,24.331050121192877
179,263,11.045361017187261,51.19570294468082,5.0,10.04987562112089,13.341664064126334,14.560219778561036,10.04987562112089,36.124783736376884,26.076809620810597,20.5,22.0,11.0,6.5,19.5,9.5,3.5,8.0,9.219544457292887,8.5,22.0,31.0,24.186773244895647
180,264,12.041594578792296,50.80354318352215,4.123105625617661,10.04987562112089,12.36931687685298,14.560219778561036,10.04987562112089,36.22154055254967,26.1725046566048,20.0,21.0,12.0,6.5,19.5,10.5,4.5,9.0,8.246211251235321,8.5,21.0,31.0,23.194827009486403
181,265,12.041594578792296,50.80354318352215,4.123105625617661,10.04987562112089,12.36931687685298,14.560219778561036,10.04987562112089,36.22154055254967,26.1725046566048,20.0,21.0,12.0,6.5,19.5,10.5,4.5,9.0,8.246211251235321,8.5,21.0,31.0,23.194827009486403
182,266,12.041594578792296,50.99019513592785,4.123105625617661,10.04987562112089,13.152946437965905,15.524174696260024,10.04987562112089,36.22154055254967,26.1725046566048,20.0,22.0,12.0,7.0,19.0,10.0,4.0,9.0,9.219544457292887,9.0,22.0,32.0,24.186773244895647
183,267,13.038404810405298,50.99019513592785,4.0,10.04987562112089,13.152946437965905,14.560219778561036,10.04987562112089,37.12142238654117,27.073972741361768,20.5,22.0,12.0,7.0,20.0,11.0,4.0,8.06225774829855,9.486832980505138,8.5,21.0,31.0,24.186773244895647
184,268,13.152946437965905,50.00999900019995,5.0,10.04987562112089,12.36931687685298,14.317821063276353,10.04987562112089,38.2099463490856,28.160255680657446,21.5,23.0,13.0,8.0,20.0,11.0,5.0,8.06225774829855,8.246211251235321,8.0,21.0,31.0,24.186773244895647
185,269,13.038404810405298,49.03060268852505,5.0,10.198039027185569,12.36931687685298,14.317821063276353,10.04987562112089,38.2099463490856,28.071337695236398,21.5,23.0,13.0,8.0,20.0,11.0,5.0,8.0,8.246211251235321,8.5,22.0,31.0,24.186773244895647
186,270,12.041594578792296,49.03060268852505,5.0990195135927845,11.045361017187261,12.36931687685298,14.560219778561036,10.04987562112089,38.2099463490856,27.16615541441225,21.0,23.0,13.0,8.0,20.0,10.0,5.0,8.06225774829855,8.246211251235321,8.0,21.0,30.0,23.194827009486403
187,271,13.152946437965905,49.03060268852505,5.0,10.04987562112089,12.36931687685298,14.317821063276353,10.04987562112089,38.2099463490856,28.160255680657446,21.5,23.0,13.0,8.0,20.0,10.0,5.0,8.0,8.246211251235321,8.0,21.0,29.0,23.194827009486403
188,272,12.041594578792296,48.662100242385755,5.0,10.04987562112089,13.341664064126334,14.317821063276353,10.198039027185569,37.21558813185679,27.16615541441225,21.0,22.0,14.0,8.0,19.0,9.0,5.0,9.0,8.246211251235321,8.5,21.0,29.0,24.186773244895647
189,273,10.04987562112089,44.721359549995796,5.0990195135927845,12.0,12.165525060596439,12.36931687685298,10.04987562112089,37.12142238654117,25.179356624028344,20.0,23.0,15.0,9.0,18.0,7.0,5.0,8.0,8.246211251235321,8.5,22.0,29.0,24.08318915758459
190,274,10.04987562112089,44.553338819890925,6.0,11.045361017187261,11.180339887498949,13.341664064126334,10.198039027185569,37.21558813185679,26.1725046566048,21.0,23.0,16.0,9.5,17.5,6.5,4.5,8.0,8.06225774829855,8.0,22.0,29.0,24.08318915758459
191,275,10.04987562112089,43.73785545725808,5.0,11.045361017187261,12.165525060596439,12.36931687685298,12.165525060596439,38.2099463490856,27.16615541441225,22.0,25.0,17.0,9.0,17.0,6.0,5.0,6.082762530298219,6.082762530298219,5.5,22.0,28.0,24.08318915758459
192,276,8.06225774829855,43.93176527297759,6.0,12.041594578792296,11.180339887498949,12.36931687685298,11.180339887498949,37.21558813185679,25.179356624028344,21.0,25.0,16.0,9.5,16.5,5.5,4.5,6.0,6.324555320336759,5.5,22.0,29.0,23.08679276123039
193,277,9.055385138137417,41.773197148410844,6.0,12.041594578792296,10.198039027185569,12.36931687685298,11.180339887498949,38.2099463490856,26.1725046566048,21.5,25.0,17.0,10.0,17.0,5.0,5.0,6.082762530298219,6.324555320336759,6.0,23.0,29.0,23.08679276123039
194,278,7.280109889280518,42.95346318982906,6.0,11.045361017187261,11.180339887498949,13.341664064126334,12.165525060596439,36.345563690772494,25.317977802344327,21.5,25.0,16.0,8.5,15.5,4.5,3.5,6.0,6.082762530298219,6.5,21.0,28.0,23.08679276123039
195,279,3.605551275463989,41.97618372363071,7.0,12.041594578792296,10.44030650891055,11.704699910719626,13.341664064126334,35.510561809129406,23.53720459187964,21.5,25.0,16.0,7.5,14.5,3.5,2.5,7.0,7.280109889280518,7.0,21.0,28.0,23.08679276123039
196,280,2.23606797749979,41.97618372363071,7.0,12.041594578792296,10.44030650891055,11.40175425099138,13.341664064126334,34.36568055487916,22.360679774997898,21.0,25.0,16.0,7.5,13.5,2.5,2.5,8.0,8.246211251235321,8.0,21.0,29.0,23.08679276123039
197,281,3.1622776601683795,41.97618372363071,7.0,12.041594578792296,10.44030650891055,11.704699910719626,12.36931687685298,34.36568055487916,22.360679774997898,20.5,24.0,15.0,7.5,14.5,3.5,2.5,9.0,9.219544457292887,9.0,22.0,30.0,23.194827009486403
198,282,5.0990195135927845,41.773197148410844,7.0,12.041594578792296,10.198039027185569,11.40175425099138,13.341664064126334,37.33630940518894,25.317977802344327,22.5,25.0,17.0,8.0,16.0,5.0,3.0,9.055385138137417,8.246211251235321,8.5,21.0,29.0,23.194827009486403
199,283,8.06225774829855,40.792156108742276,7.0,12.041594578792296,10.198039027185569,12.649110640673518,12.165525060596439,39.20459156782532,27.16615541441225,23.0,26.0,18.0,10.0,17.0,6.0,4.0,9.0,9.219544457292887,8.5,21.0,28.0,22.20360331117452
200,284,8.06225774829855,42.579337712087536,6.0,11.0,10.198039027185569,12.36931687685298,11.180339887498949,36.124783736376884,25.179356624028344,21.0,23.0,16.0,8.5,16.5,6.5,3.5,8.0,8.246211251235321,8.0,22.0,28.0,23.021728866442675
201,285,7.0710678118654755,42.7551166528639,6.0,11.045361017187261,10.198039027185569,12.36931687685298,11.045361017187261,35.12833614050059,24.08318915758459,20.5,23.0,15.0,8.0,16.0,6.0,3.0,8.0,9.219544457292887,8.5,22.0,27.0,22.090722034374522
202,286,8.06225774829855,42.579337712087536,5.0,10.0,11.180339887498949,12.36931687685298,12.165525060596439,35.12833614050059,25.179356624028344,21.0,23.0,16.0,7.5,15.5,5.5,3.5,9.0,9.219544457292887,8.5,21.0,27.0,24.08318915758459
203,287,8.06225774829855,42.579337712087536,5.0,10.04987562112089,10.198039027185569,11.40175425099138,12.165525060596439,35.22782990761707,25.179356624028344,21.0,23.0,16.0,7.5,15.5,5.5,3.5,9.0,8.246211251235321,8.0,21.0,27.0,23.08679276123039
204,288,6.082762530298219,41.593268686170845,6.0,11.0,10.198039027185569,11.40175425099138,12.165525060596439,35.12833614050059,24.186773244895647,21.0,23.0,16.0,7.5,15.5,5.5,3.5,9.0,8.246211251235321,8.0,21.0,27.0,22.090722034374522
205,289,5.0990195135927845,41.593268686170845,7.0,11.045361017187261,10.198039027185569,12.36931687685298,12.165525060596439,35.22782990761707,24.186773244895647,21.5,23.0,16.0,7.5,15.5,5.5,2.5,9.0,8.246211251235321,8.0,21.0,27.0,22.02271554554524
206,290,5.0990195135927845,40.607881008493905,7.0,11.045361017187261,10.198039027185569,11.40175425099138,12.165525060596439,35.22782990761707,24.186773244895647,21.5,24.0,17.0,8.5,14.5,3.5,2.5,8.0,9.219544457292887,9.0,21.0,27.0,23.08679276123039
207,291,5.0990195135927845,40.607881008493905,6.0,11.045361017187261,10.198039027185569,11.40175425099138,13.152946437965905,35.22782990761707,24.186773244895647,21.5,24.0,17.0,7.5,14.5,4.5,2.5,8.06225774829855,8.06225774829855,8.0,22.0,27.0,24.08318915758459
208,292,5.0990195135927845,40.792156108742276,7.0,11.045361017187261,10.198039027185569,11.40175425099138,13.152946437965905,36.22154055254967,25.179356624028344,22.5,25.0,17.0,8.0,15.0,4.0,2.0,8.0,8.06225774829855,8.0,21.0,27.0,23.194827009486403
209,293,6.082762530298219,40.607881008493905,7.0,11.045361017187261,10.198039027185569,11.40175425099138,12.165525060596439,36.22154055254967,25.179356624028344,22.0,24.0,17.0,8.5,15.5,4.5,2.5,8.0,8.06225774829855,8.0,22.0,28.0,21.095023109728988
210,294,4.123105625617661,42.42640687119285,8.0,12.0,10.198039027185569,11.180339887498949,12.165525060596439,36.124783736376884,24.186773244895647,22.0,23.0,17.0,8.0,16.0,5.0,2.0,8.0,8.06225774829855,8.5,22.0,27.0,22.090722034374522
211,295,10.04987562112089,43.41658669218482,5.0,10.04987562112089,10.04987562112089,13.152946437965905,11.045361017187261,36.124783736376884,26.076809620810597,21.0,22.0,16.0,8.0,17.0,7.0,4.0,7.0,7.0710678118654755,7.0,22.0,26.0,23.08679276123039
212,296,10.0,44.28317965096906,5.0990195135927845,10.04987562112089,11.045361017187261,13.152946437965905,10.04987562112089,35.12833614050059,25.079872407968907,20.0,21.0,16.0,8.5,16.5,6.5,4.5,4.0,4.123105625617661,3.5,22.0,25.0,23.021728866442675
213,297,11.0,45.27692569068709,4.123105625617661,10.04987562112089,11.045361017187261,13.152946437965905,10.04987562112089,35.12833614050059,25.079872407968907,19.5,20.0,15.0,7.5,17.5,7.5,4.5,4.0,4.123105625617661,4.0,23.0,24.0,23.021728866442675
214,298,10.0,46.2709412050371,5.0,10.0,12.041594578792296,13.038404810405298,10.04987562112089,35.014282800023196,25.019992006393608,20.0,20.0,15.0,7.5,17.5,7.5,3.5,5.0,6.082762530298219,5.5,23.0,25.0,23.021728866442675
215,299,12.0,45.17742799230607,4.0,10.04987562112089,12.041594578792296,13.152946437965905,10.0,36.013886210738214,26.0,20.0,20.0,16.0,8.0,18.0,8.0,4.0,6.0,6.082762530298219,6.0,23.0,25.0,23.021728866442675
216,300,12.041594578792296,45.17742799230607,4.0,10.0,12.041594578792296,13.152946437965905,10.0,36.013886210738214,26.019223662515376,20.0,20.0,16.0,8.0,18.0,8.0,4.0,6.0,7.0710678118654755,6.5,23.0,25.0,22.02271554554524
217,301,13.0,44.181444068749045,4.0,10.0,11.045361017187261,13.152946437965905,10.04987562112089,37.013511046643494,27.018512172212592,20.5,20.0,16.0,8.0,19.0,9.0,5.0,7.0710678118654755,6.082762530298219,6.0,23.0,25.0,23.0
218,302,11.045361017187261,45.27692569068709,5.0,10.0,11.180339887498949,12.165525060596439,10.0,36.013886210738214,26.019223662515376,20.5,20.0,15.0,7.5,18.5,8.5,3.5,7.0710678118654755,7.0710678118654755,6.5,24.0,25.0,23.0
219,303,7.0,43.289721643826724,6.0,11.0,11.045361017187261,12.165525060596439,11.045361017187261,35.014282800023196,24.020824298928627,20.5,20.0,15.0,6.5,17.5,6.5,1.5,6.0,6.082762530298219,6.5,22.0,24.0,21.02379604162864
220,304,4.123105625617661,43.41658669218482,7.0,12.0,10.198039027185569,12.165525060596439,11.0,34.0147027033899,22.02271554554524,20.0,21.0,15.0,7.0,16.0,5.0,1.0,7.0,8.06225774829855,7.5,23.0,25.0,21.02379604162864
221,305,5.0990195135927845,43.289721643826724,6.0,11.0,10.198039027185569,12.165525060596439,11.0,33.015148038438355,22.02271554554524,19.5,20.0,15.0,6.5,15.5,4.5,1.5,8.0,7.0710678118654755,7.0,22.0,25.0,21.02379604162864
222,306,4.0,43.289721643826724,7.0710678118654755,12.041594578792296,11.180339887498949,11.180339887498949,11.0,34.058772731852805,22.02271554554524,20.0,20.0,15.0,6.5,16.5,5.5,1.5,7.0,7.0710678118654755,7.0,23.0,26.0,22.02271554554524
223,307,7.0,43.289721643826724,6.082762530298219,11.0,11.045361017187261,12.165525060596439,11.0,35.014282800023196,24.020824298928627,20.5,20.0,15.0,6.5,17.5,6.5,1.5,8.0,8.06225774829855,8.0,23.0,26.0,22.090722034374522
224,308,4.123105625617661,43.289721643826724,6.0,12.0,10.04987562112089,12.165525060596439,12.0,34.0147027033899,22.02271554554524,20.0,20.0,15.0,5.5,16.5,5.5,0.5,8.0,8.06225774829855,7.5,23.0,26.0,23.08679276123039
225,309,3.0,43.289721643826724,6.082762530298219,12.041594578792296,11.180339887498949,12.165525060596439,12.0,33.06055050963308,21.02379604162864,19.5,20.0,15.0,5.5,15.5,3.5,0.5,7.0,8.06225774829855,7.5,22.0,25.0,23.021728866442675
226,310,4.123105625617661,44.181444068749045,7.0,11.0,11.180339887498949,12.165525060596439,11.0,33.015148038438355,22.02271554554524,20.0,19.0,15.0,6.0,16.0,5.0,0.0,8.06225774829855,8.06225774829855,8.0,23.0,25.0,23.021728866442675
227,311,9.0,44.181444068749045,5.0,11.0,11.045361017187261,12.165525060596439,10.04987562112089,35.014282800023196,24.020824298928627,19.5,19.0,15.0,7.0,18.0,7.0,3.0,8.06225774829855,8.06225774829855,8.0,24.0,25.0,23.021728866442675
228,312,8.0,44.181444068749045,5.0,11.0,11.180339887498949,12.165525060596439,11.045361017187261,35.014282800023196,24.020824298928627,20.0,19.0,15.0,6.0,18.0,7.0,3.0,8.06225774829855,7.0710678118654755,7.5,23.0,24.0,23.0
229,313,12.0,45.09988913511872,5.0,11.0,12.041594578792296,14.142135623730951,10.0,38.0,27.0,21.0,19.0,16.0,7.5,20.5,9.5,3.5,8.0,8.06225774829855,8.0,23.0,25.0,22.02271554554524
230,314,16.0,47.265209192385896,4.0,10.0,12.165525060596439,13.152946437965905,10.04987562112089,40.01249804748511,30.01666203960727,22.0,20.0,15.0,7.5,22.5,12.5,4.5,8.0,8.06225774829855,8.0,23.0,26.0,22.02271554554524
231,315,16.0312195418814,46.2709412050371,4.0,11.0,12.041594578792296,13.152946437965905,10.0,41.012193308819754,30.01666203960727,22.0,20.0,15.0,7.5,23.5,12.5,4.5,9.055385138137417,8.246211251235321,8.0,23.0,25.0,23.08679276123039
232,316,16.0,47.16990566028302,4.0,10.04987562112089,13.038404810405298,14.142135623730951,10.04987562112089,40.049968789001575,30.01666203960727,22.0,20.0,16.0,8.0,22.0,12.0,5.0,8.0,8.06225774829855,8.0,22.0,26.0,22.02271554554524
233,317,14.0,47.16990566028302,5.0,10.0,12.041594578792296,14.035668847618199,9.055385138137417,38.01315561749642,28.0178514522438,21.0,18.0,14.0,7.0,22.0,12.0,3.0,9.0,9.219544457292887,9.0,22.0,26.0,23.021728866442675
234,318,13.038404810405298,48.16637831516918,4.0,10.0,13.152946437965905,14.142135623730951,9.0,36.013886210738214,26.019223662515376,19.5,18.0,14.0,7.0,20.0,10.0,4.0,8.06225774829855,8.06225774829855,8.0,22.0,26.0,23.021728866442675
235,319,11.0,48.16637831516918,4.0,10.04987562112089,12.041594578792296,14.142135623730951,10.04987562112089,35.05709628591621,25.019992006393608,19.5,17.0,13.0,5.0,20.0,10.0,2.0,6.0,6.082762530298219,5.5,21.0,25.0,23.021728866442675
236,320,10.0,48.25971404805462,4.123105625617661,10.04987562112089,12.165525060596439,14.142135623730951,10.04987562112089,34.0147027033899,24.0,19.0,17.0,12.0,4.5,19.5,10.5,2.5,5.0,5.0990195135927845,5.0,22.0,26.0,23.021728866442675
237,321,11.0,48.25971404805462,4.123105625617661,9.055385138137417,12.165525060596439,14.142135623730951,10.0,34.058772731852805,25.019992006393608,19.5,17.0,12.0,4.5,19.5,10.5,2.5,6.0,6.082762530298219,6.0,21.0,25.0,22.02271554554524
238,322,12.041594578792296,48.25971404805462,4.0,10.0,13.038404810405298,14.142135623730951,9.055385138137417,35.05709628591621,25.079872407968907,19.0,17.0,12.0,5.5,20.5,10.5,2.5,8.0,8.06225774829855,7.5,21.0,26.0,25.079872407968907
239,323,12.041594578792296,48.25971404805462,4.0,10.0,13.038404810405298,14.142135623730951,9.055385138137417,35.05709628591621,25.079872407968907,19.0,17.0,12.0,5.5,20.5,10.5,2.5,8.0,8.06225774829855,7.5,21.0,26.0,25.079872407968907
240,324,11.0,48.25971404805462,4.123105625617661,9.055385138137417,13.038404810405298,14.142135623730951,10.0,34.058772731852805,25.019992006393608,19.5,18.0,13.0,5.5,18.5,9.5,2.5,8.0,8.246211251235321,8.0,21.0,25.0,23.08679276123039
241,325,11.0,47.38143096192854,4.0,10.04987562112089,12.041594578792296,14.142135623730951,10.04987562112089,35.05709628591621,25.019992006393608,19.5,19.0,13.0,6.0,19.0,9.0,3.0,8.0,8.246211251235321,8.0,22.0,26.0,23.021728866442675
242,326,10.04987562112089,47.38143096192854,5.0,10.0,12.165525060596439,13.152946437965905,10.04987562112089,35.05709628591621,25.079872407968907,20.0,19.0,13.0,6.0,19.0,9.0,3.0,9.0,7.280109889280518,7.0,21.0,25.0,24.08318915758459
243,327,9.055385138137417,46.389654018972806,4.0,10.0,12.165525060596439,13.152946437965905,11.045361017187261,34.058772731852805,24.08318915758459,19.5,20.0,14.0,6.0,17.0,7.0,3.0,8.0,8.246211251235321,8.0,22.0,26.0,24.08318915758459
244,328,3.1622776601683795,47.265209192385896,6.0,11.045361017187261,11.180339887498949,13.152946437965905,12.041594578792296,32.14031735997639,21.095023109728988,19.5,19.0,14.0,4.5,15.5,5.5,0.5,8.06225774829855,8.06225774829855,8.0,21.0,25.0,23.021728866442675
245,329,3.1622776601683795,45.39823785126467,6.0,10.04987562112089,12.165525060596439,13.152946437965905,12.041594578792296,31.144823004794873,21.095023109728988,19.5,20.0,14.0,5.0,14.0,4.0,1.0,9.0,9.219544457292887,8.5,22.0,26.0,23.08679276123039
246,330,3.1622776601683795,46.389654018972806,6.0,10.04987562112089,11.045361017187261,12.165525060596439,12.041594578792296,31.144823004794873,21.095023109728988,19.5,20.0,14.0,5.0,14.0,4.0,0.0,9.0,9.055385138137417,8.5,21.0,25.0,23.08679276123039
247,331,3.1622776601683795,45.39823785126467,5.0,10.04987562112089,11.180339887498949,12.165525060596439,13.038404810405298,31.144823004794873,21.095023109728988,19.5,21.0,15.0,5.0,13.0,3.0,1.0,8.0,8.06225774829855,8.5,22.0,26.0,23.08679276123039
248,332,3.0,45.39823785126467,5.0,10.04987562112089,10.198039027185569,12.165525060596439,13.152946437965905,31.144823004794873,21.095023109728988,19.5,21.0,15.0,5.0,13.0,3.0,1.0,8.06225774829855,8.246211251235321,8.0,21.0,25.0,24.08318915758459
249,333,3.1622776601683795,45.39823785126467,6.0,10.04987562112089,11.180339887498949,12.165525060596439,13.038404810405298,32.14031735997639,22.090722034374522,20.5,21.0,15.0,5.0,14.0,4.0,1.0,8.0,8.246211251235321,8.0,22.0,26.0,22.02271554554524
250,334,2.23606797749979,44.40720662234904,6.0,10.04987562112089,11.180339887498949,12.36931687685298,13.038404810405298,31.144823004794873,21.095023109728988,20.0,21.0,15.0,5.0,13.0,4.0,1.0,9.0,8.06225774829855,8.0,21.0,25.0,23.021728866442675
251,335,2.23606797749979,44.40720662234904,6.0,10.04987562112089,11.180339887498949,12.36931687685298,13.038404810405298,31.144823004794873,21.095023109728988,20.0,21.0,15.0,5.0,13.0,4.0,1.0,9.0,8.06225774829855,8.0,21.0,25.0,23.021728866442675
252,336,3.1622776601683795,46.52956049652737,5.0,10.0,11.180339887498949,12.36931687685298,13.038404810405298,31.064449134018133,21.095023109728988,19.5,21.0,14.0,4.5,13.5,4.5,0.5,9.0,9.055385138137417,9.0,21.0,25.0,23.021728866442675
253,337,3.1622776601683795,45.39823785126467,6.0,10.04987562112089,12.165525060596439,12.36931687685298,12.041594578792296,31.144823004794873,21.095023109728988,19.5,20.0,14.0,5.0,14.0,4.0,0.0,8.0,8.06225774829855,8.0,22.0,25.0,23.08679276123039
254,338,3.0,45.39823785126467,6.0,11.045361017187261,11.180339887498949,12.165525060596439,13.152946437965905,33.13608305156178,22.090722034374522,20.5,22.0,16.0,6.0,14.0,4.0,2.0,9.0,8.246211251235321,8.0,22.0,26.0,22.02271554554524
255,339,5.0990195135927845,44.40720662234904,7.0,10.0,12.165525060596439,13.341664064126334,11.045361017187261,33.06055050963308,23.08679276123039,20.5,21.0,15.0,7.0,15.0,5.0,2.0,9.055385138137417,8.06225774829855,8.0,21.0,25.0,24.08318915758459
256,340,9.055385138137417,45.39823785126467,5.0,11.0,12.041594578792296,12.165525060596439,11.045361017187261,36.05551275463989,25.079872407968907,20.5,21.0,15.0,7.0,18.0,7.0,3.0,9.0,9.055385138137417,9.0,23.0,26.0,23.021728866442675
257,341,14.0,45.27692569068709,4.0,11.045361017187261,12.041594578792296,13.152946437965905,11.045361017187261,40.049968789001575,29.017236257093817,22.0,23.0,18.0,9.5,19.5,8.5,5.5,5.0,5.0990195135927845,5.0,24.0,26.0,24.020824298928627
258,342,14.035668847618199,46.389654018972806,5.0,11.0,13.038404810405298,14.142135623730951,11.045361017187261,41.048751503547585,30.066592756745816,23.0,24.0,18.0,10.0,20.0,9.0,6.0,3.0,3.1622776601683795,3.0,23.0,24.0,23.021728866442675
259,343,15.033296378372908,45.17742799230607,5.0,11.0,12.041594578792296,14.142135623730951,11.045361017187261,42.04759208325728,31.064449134018133,23.5,24.0,20.0,11.0,20.0,9.0,7.0,2.0,2.0,2.0,24.0,24.0,23.0
260,344,17.0,46.17358552246078,5.0,11.045361017187261,12.041594578792296,15.132745950421556,11.045361017187261,44.04543109109048,33.015148038438355,24.5,26.0,22.0,13.0,20.0,9.0,8.0,3.0,3.0,3.0,26.0,27.0,22.0
261,345,16.0,46.17358552246078,6.0,11.045361017187261,13.038404810405298,14.142135623730951,12.041594578792296,45.044422518220834,34.0147027033899,26.0,27.0,23.0,13.0,20.0,9.0,8.0,3.0,3.1622776601683795,2.5,26.0,27.0,23.021728866442675
262,346,16.0,46.17358552246078,6.0,11.045361017187261,13.038404810405298,15.132745950421556,11.045361017187261,44.04543109109048,33.015148038438355,25.0,26.0,22.0,13.0,20.0,9.0,8.0,3.0,3.1622776601683795,3.0,26.0,27.0,23.021728866442675
263,347,16.0,46.09772228646444,6.0,11.0,13.038404810405298,14.035668847618199,11.045361017187261,44.01136216933077,33.015148038438355,25.0,26.0,23.0,13.5,19.5,8.5,8.5,2.0,3.0,3.0,25.0,26.0,23.0
264,348,17.0,46.09772228646444,6.0,11.0,13.038404810405298,15.132745950421556,12.041594578792296,46.010868281309364,35.014282800023196,26.5,27.0,24.0,13.5,20.5,9.5,8.5,3.1622776601683795,3.0,2.5,26.0,25.0,24.0
265,349,17.0,47.095647357266465,6.0,11.0,14.035668847618199,15.132745950421556,11.045361017187261,45.0111097397076,34.0147027033899,25.5,26.0,23.0,13.5,20.5,8.5,8.5,3.0,4.0,3.5,27.0,26.0,23.0
266,350,17.0,47.042533945356304,6.082762530298219,11.0,13.0,15.033296378372908,12.041594578792296,46.0,35.0,26.5,27.0,25.0,14.0,20.0,8.0,8.0,4.0,5.0,4.5,28.0,26.0,24.0
267,351,17.0,47.01063709417264,6.082762530298219,11.0,13.0,14.035668847618199,11.045361017187261,45.0,34.0,25.5,26.0,25.0,14.5,19.5,7.5,8.5,5.0990195135927845,5.0,5.0,28.0,25.0,25.0
268,352,15.0,47.0,6.0,12.041594578792296,13.0,15.033296378372908,11.0,44.01136216933077,32.0,24.5,25.0,25.0,14.0,19.0,7.0,8.0,6.082762530298219,7.0,6.5,29.0,25.0,25.019992006393608
269,353,15.0,45.0111097397076,6.0,11.045361017187261,12.0,14.035668847618199,12.0,44.01136216933077,33.0,25.5,26.0,25.0,13.5,18.5,6.5,8.5,7.0710678118654755,7.0,6.5,29.0,25.0,24.020824298928627
270,354,14.0,45.0,6.082762530298219,12.0,13.0,14.0,12.041594578792296,44.0,32.0,25.0,26.0,26.0,14.0,18.0,6.0,8.0,7.0,7.0,7.0,30.0,25.0,25.019992006393608
271,355,14.035668847618199,45.0,6.0,12.0,12.0,14.0,12.0,44.01136216933077,32.01562118716424,25.0,27.0,27.0,15.0,17.0,4.0,9.0,7.0710678118654755,7.0710678118654755,7.0,29.0,25.0,24.020824298928627
272,356,14.035668847618199,45.0111097397076,7.0,12.0,12.0,14.035668847618199,11.045361017187261,44.0,32.0,25.0,27.0,26.0,15.5,17.5,4.5,8.5,8.06225774829855,8.06225774829855,8.0,29.0,25.0,24.020824298928627
273,357,16.0,45.0111097397076,7.0710678118654755,13.0,11.0,13.0,12.041594578792296,48.0,35.0,27.0,29.0,28.0,16.5,19.5,6.5,9.5,8.0,9.0,8.5,30.0,27.0,25.0
274,358,16.0,45.0,7.0710678118654755,13.0,11.0,13.038404810405298,12.041594578792296,48.0,35.0,27.0,28.0,28.0,16.0,20.0,6.0,9.0,9.0,9.0,8.5,30.0,27.0,24.0
275,359,18.0,45.0,9.055385138137417,14.0,11.0,13.038404810405298,12.041594578792296,53.0,39.0,30.0,31.0,31.0,19.0,22.0,8.0,10.0,8.0,9.0,8.5,30.0,28.0,24.0
276,360,16.0,45.0111097397076,10.0,15.033296378372908,12.041594578792296,14.035668847618199,12.041594578792296,53.0,38.01315561749642,30.0,32.0,31.0,19.5,21.5,6.5,9.5,8.06225774829855,9.0,8.5,30.0,28.0,24.0
277,361,13.0,45.0111097397076,10.0,14.0,12.0,14.0,14.035668847618199,51.0098029794274,37.013511046643494,30.5,32.0,31.0,17.5,19.5,4.5,7.5,9.0,9.055385138137417,8.5,30.0,28.0,25.019992006393608
278,362,11.0,46.010868281309364,9.0,14.0,12.0,14.035668847618199,13.152946437965905,47.042533945356304,33.06055050963308,27.5,29.0,28.0,15.5,18.5,4.5,6.5,9.0,9.055385138137417,9.0,30.0,29.0,25.0
279,363,6.082762530298219,46.09772228646444,10.04987562112089,14.0,11.045361017187261,13.152946437965905,14.317821063276353,44.10215414239989,30.14962686336267,27.0,30.0,27.0,14.5,15.5,1.5,4.5,9.0,8.06225774829855,8.0,29.0,28.0,25.0
280,364,5.0,44.181444068749045,9.0,13.038404810405298,10.04987562112089,12.165525060596439,14.317821063276353,41.19465984809196,28.160255680657446,25.5,29.0,25.0,13.0,14.0,1.0,4.0,9.0,9.055385138137417,9.0,29.0,28.0,25.0
281,365,4.123105625617661,43.18564576337837,9.0,14.0,11.045361017187261,12.165525060596439,15.132745950421556,42.1070065428546,28.160255680657446,26.0,29.0,25.0,12.0,15.0,1.0,4.0,8.0,9.0,8.5,30.0,30.0,25.019992006393608
282,366,3.0,45.17742799230607,9.0,14.0,10.04987562112089,13.152946437965905,14.142135623730951,40.049968789001575,26.076809620810597,24.5,28.0,24.0,12.0,14.0,1.0,4.0,9.055385138137417,9.055385138137417,9.0,29.0,29.0,26.0
283,367,2.0,44.10215414239989,10.0,14.0,11.045361017187261,13.152946437965905,13.152946437965905,39.05124837953327,25.079872407968907,24.0,26.0,23.0,11.5,14.5,1.5,2.5,7.0,8.0,7.5,31.0,31.0,25.0
284,368,7.0,46.09772228646444,8.06225774829855,13.0,13.038404810405298,13.152946437965905,12.165525060596439,40.01249804748511,27.018512172212592,23.5,26.0,23.0,12.5,15.5,2.5,4.5,5.0,5.0990195135927845,5.0,29.0,26.0,23.021728866442675
285,369,11.0,47.095647357266465,6.0,11.045361017187261,12.041594578792296,14.142135623730951,12.0,40.01249804748511,29.0,23.5,24.0,21.0,10.5,17.5,6.5,5.5,5.0,6.0,5.5,30.0,28.0,24.020824298928627
286,370,11.0,47.095647357266465,6.0,11.045361017187261,12.041594578792296,14.142135623730951,12.0,40.01249804748511,29.0,23.5,24.0,21.0,10.5,17.5,6.5,5.5,5.0,6.0,5.5,30.0,28.0,24.020824298928627
287,371,12.0,48.041648597857254,7.0710678118654755,11.045361017187261,13.038404810405298,15.033296378372908,11.045361017187261,41.012193308819754,30.0,24.0,24.0,22.0,12.0,18.0,7.0,6.0,7.0,7.0710678118654755,7.0,31.0,28.0,25.0
288,372,12.041594578792296,48.093658625644196,6.0,12.0,13.0,14.142135623730951,11.0,41.012193308819754,29.017236257093817,23.0,24.0,21.0,11.5,18.5,6.5,5.5,8.0,8.0,7.5,29.0,26.0,23.08679276123039
289,373,12.0,48.041648597857254,6.082762530298219,11.0,12.041594578792296,14.035668847618199,11.0,40.01249804748511,29.017236257093817,23.0,23.0,21.0,11.0,18.0,7.0,6.0,8.06225774829855,9.055385138137417,8.5,31.0,28.0,25.0
290,374,11.0,49.09175083453431,6.0,11.045361017187261,13.038404810405298,14.035668847618199,11.045361017187261,39.05124837953327,28.0178514522438,22.5,23.0,20.0,10.5,17.5,6.5,5.5,9.055385138137417,9.055385138137417,8.5,30.0,27.0,24.020824298928627
291,375,13.0,49.040799340956916,6.0,11.045361017187261,14.035668847618199,15.132745950421556,10.04987562112089,40.049968789001575,29.017236257093817,22.5,21.0,19.0,10.0,20.0,9.0,5.0,9.055385138137417,9.055385138137417,9.0,30.0,28.0,24.0
292,376,17.029386365926403,50.039984012787215,6.0,11.0,13.038404810405298,15.033296378372908,11.180339887498949,45.09988913511872,34.132096331752024,25.5,23.0,21.0,11.0,23.0,12.0,6.0,9.055385138137417,10.04987562112089,9.5,30.0,28.0,24.0
293,377,20.024984394500787,51.0,5.0990195135927845,12.0,12.0,15.033296378372908,11.045361017187261,48.093658625644196,36.124783736376884,26.0,22.0,22.0,11.0,26.0,14.0,6.0,9.055385138137417,9.055385138137417,9.0,31.0,28.0,27.073972741361768
294,378,21.02379604162864,51.0098029794274,6.0,11.045361017187261,13.038404810405298,16.0312195418814,12.165525060596439,50.15974481593781,39.11521443121589,28.5,22.0,23.0,10.5,27.5,15.5,4.5,8.06225774829855,8.06225774829855,8.0,31.0,27.0,26.076809620810597
295,379,18.027756377319946,51.0,7.0,12.041594578792296,15.033296378372908,16.0,12.165525060596439,49.16299421312742,37.12142238654117,28.0,22.0,22.0,10.0,27.0,14.0,3.0,8.06225774829855,8.06225774829855,8.0,32.0,28.0,27.018512172212592
296,380,18.027756377319946,52.0,6.0,13.038404810405298,13.038404810405298,16.0312195418814,12.165525060596439,49.16299421312742,36.124783736376884,27.0,21.0,21.0,9.0,28.0,15.0,3.0,8.246211251235321,8.0,8.0,32.0,29.0,27.018512172212592
297,381,18.027756377319946,52.0,6.0,13.038404810405298,13.038404810405298,16.0312195418814,12.165525060596439,49.16299421312742,36.124783736376884,27.0,21.0,21.0,9.0,28.0,15.0,3.0,8.246211251235321,8.0,8.0,32.0,29.0,27.018512172212592
298,382,17.0,53.009433122794285,6.082762530298219,12.041594578792296,14.035668847618199,15.033296378372908,11.045361017187261,46.09772228646444,34.058772731852805,25.5,20.0,21.0,9.5,25.5,13.5,3.5,9.055385138137417,9.0,9.0,31.0,28.0,27.018512172212592
299,383,16.0,52.009614495783374,6.082762530298219,12.041594578792296,14.035668847618199,15.033296378372908,10.04987562112089,44.10215414239989,32.0624390837628,24.0,19.0,20.0,9.5,24.5,11.5,3.5,10.198039027185569,9.055385138137417,9.5,31.0,28.0,26.0
300,384,15.033296378372908,53.009433122794285,6.082762530298219,12.0,14.0,15.0,9.055385138137417,42.1070065428546,30.14962686336267,22.5,18.0,19.0,9.5,23.5,10.5,3.5,9.219544457292887,9.055385138137417,9.5,30.0,28.0,26.019223662515376
301,385,15.0,52.009614495783374,6.082762530298219,11.045361017187261,13.0,16.0312195418814,10.198039027185569,42.190046219457976,31.144823004794873,23.5,19.0,20.0,9.5,22.5,10.5,3.5,9.219544457292887,9.055385138137417,9.0,31.0,28.0,27.0
302,386,13.0,52.009614495783374,6.082762530298219,12.041594578792296,14.0,16.0,11.045361017187261,42.1070065428546,30.066592756745816,23.5,20.0,21.0,9.5,21.5,9.5,4.5,10.04987562112089,9.055385138137417,9.5,31.0,27.0,26.0
303,387,12.0,53.009433122794285,7.0,12.041594578792296,14.0,15.033296378372908,11.045361017187261,42.04759208325728,30.01666203960727,24.0,20.0,21.0,9.5,21.5,8.5,2.5,9.055385138137417,9.055385138137417,9.0,31.0,28.0,26.0
304,388,14.0,52.0,6.082762530298219,12.041594578792296,14.0,16.0312195418814,11.045361017187261,43.104524124504614,31.064449134018133,24.0,21.0,21.0,10.0,22.0,9.0,4.0,5.0990195135927845,6.0,6.0,31.0,27.0,26.076809620810597
305,389,13.038404810405298,51.0,6.0,12.041594578792296,14.035668847618199,15.0,13.038404810405298,44.10215414239989,32.0624390837628,25.5,22.0,22.0,9.0,22.0,9.0,3.0,3.1622776601683795,4.0,3.5,30.0,25.0,25.179356624028344
306,390,11.0,50.00999900019995,7.0710678118654755,13.0,14.0,15.033296378372908,13.038404810405298,44.04543109109048,31.064449134018133,25.5,23.0,22.0,9.5,21.5,8.5,2.5,3.1622776601683795,4.0,4.0,30.0,26.0,26.076809620810597
307,391,11.0,49.040799340956916,8.0,13.038404810405298,13.0,16.0312195418814,13.038404810405298,45.044422518220834,32.01562118716424,26.5,25.0,23.0,11.0,21.0,7.0,3.0,4.123105625617661,4.0,3.5,31.0,28.0,26.019223662515376
308,392,11.0,48.010415536631214,8.06225774829855,13.0,14.0,15.0,13.0,45.0111097397076,32.01562118716424,26.5,24.0,23.0,10.5,21.5,7.5,2.5,5.0,6.0,5.5,30.0,28.0,26.0
309,393,11.0,48.010415536631214,8.06225774829855,13.0,13.0,15.033296378372908,14.0,46.010868281309364,33.015148038438355,27.5,25.0,24.0,10.5,21.5,7.5,2.5,5.0,5.0,5.5,30.0,28.0,26.0
310,394,9.0,47.01063709417264,8.0,13.0,13.038404810405298,15.033296378372908,14.0,44.0,31.0,26.5,25.0,24.0,10.5,19.5,6.5,3.5,6.082762530298219,6.082762530298219,6.0,30.0,28.0,26.0
311,395,6.082762530298219,45.044422518220834,8.0,12.041594578792296,12.041594578792296,13.038404810405298,15.0,41.0,29.017236257093817,26.0,26.0,24.0,10.0,16.0,4.0,3.0,7.0710678118654755,7.0,7.0,29.0,28.0,25.019992006393608
312,396,2.23606797749979,46.04345773288535,8.0,13.0,11.045361017187261,13.0,16.0312195418814,39.05124837953327,26.076809620810597,25.0,26.0,24.0,9.0,14.0,1.0,2.0,7.0,7.0,7.0,27.0,26.0,26.019223662515376
313,397,3.1622776601683795,42.1070065428546,8.0,12.0,10.04987562112089,12.041594578792296,15.033296378372908,38.05259518088089,26.076809620810597,24.5,27.0,24.0,10.5,12.5,0.5,3.5,7.0,7.0,7.0,29.0,30.0,25.079872407968907
314,398,7.0710678118654755,43.18564576337837,9.0,13.0,11.180339887498949,12.165525060596439,15.132745950421556,44.10215414239989,31.144823004794873,27.5,31.0,27.0,14.0,15.0,2.0,6.0,7.0,8.0,7.5,26.0,28.0,26.076809620810597
315,399,9.055385138137417,45.17742799230607,9.0,14.0,13.152946437965905,14.142135623730951,14.142135623730951,46.09772228646444,32.14031735997639,27.5,30.0,26.0,14.0,18.0,5.0,6.0,7.0710678118654755,7.0710678118654755,7.0,26.0,29.0,25.079872407968907
316,400,11.045361017187261,46.2709412050371,9.0,14.0,13.152946437965905,15.132745950421556,14.142135623730951,48.093658625644196,34.132096331752024,28.5,31.0,26.0,14.5,19.5,5.5,6.5,7.0,7.0710678118654755,7.0,25.0,29.0,25.179356624028344
317,401,13.0,47.16990566028302,9.0,14.035668847618199,13.152946437965905,15.132745950421556,14.035668847618199,50.039984012787215,36.013886210738214,29.5,31.0,27.0,15.0,21.0,8.0,7.0,6.082762530298219,6.082762530298219,6.5,25.0,29.0,24.08318915758459
318,402,14.0,48.25971404805462,10.0,14.035668847618199,13.152946437965905,15.132745950421556,12.165525060596439,50.08991914547278,36.05551275463989,29.0,30.0,25.0,15.5,22.5,9.5,6.5,7.0710678118654755,7.0710678118654755,7.0,25.0,29.0,24.186773244895647
319,403,16.0,47.265209192385896,9.055385138137417,13.038404810405298,13.152946437965905,15.132745950421556,13.152946437965905,51.15662224971465,38.118237105091836,30.0,31.0,26.0,15.5,22.5,9.5,7.5,7.0,8.06225774829855,7.5,24.0,29.0,25.079872407968907
320,404,16.0,48.25971404805462,9.0,13.038404810405298,13.152946437965905,15.132745950421556,13.152946437965905,51.088159097779204,38.05259518088089,30.0,30.0,25.0,14.5,23.5,10.5,6.5,7.0,7.0710678118654755,7.0,24.0,29.0,24.186773244895647
321,405,15.0,47.16990566028302,9.055385138137417,13.0,13.038404810405298,15.132745950421556,13.038404810405298,50.039984012787215,37.05401462729781,29.5,29.0,25.0,14.0,23.0,10.0,6.0,7.0710678118654755,7.280109889280518,7.0,24.0,29.0,24.186773244895647
322,406,15.0,47.16990566028302,8.0,12.041594578792296,14.142135623730951,16.1245154965971,13.038404810405298,48.041648597857254,36.013886210738214,28.5,28.0,24.0,13.0,22.0,10.0,6.0,8.06225774829855,8.06225774829855,7.5,24.0,29.0,23.194827009486403
323,407,13.0,46.2709412050371,6.082762530298219,10.04987562112089,13.038404810405298,15.033296378372908,11.045361017187261,40.11234224026316,30.066592756745816,23.5,26.0,21.0,12.5,16.5,6.5,7.5,7.0,8.06225774829855,8.0,24.0,28.0,24.08318915758459
324,408,3.1622776601683795,44.28317965096906,7.0,11.045361017187261,12.165525060596439,13.341664064126334,12.041594578792296,33.13608305156178,22.090722034374522,20.5,23.0,18.0,8.5,12.5,1.5,2.5,7.0,8.06225774829855,7.5,24.0,27.0,22.090722034374522
325,409,2.23606797749979,42.42640687119285,7.0,11.045361017187261,11.045361017187261,12.165525060596439,13.038404810405298,33.13608305156178,22.090722034374522,21.0,24.0,18.0,8.0,12.0,2.0,2.0,8.06225774829855,8.246211251235321,7.5,24.0,29.0,23.08679276123039
326,410,3.1622776601683795,41.43669871020132,7.0,11.045361017187261,11.180339887498949,12.165525060596439,13.152946437965905,34.23448553724738,23.194827009486403,21.5,24.0,18.0,8.0,13.0,2.0,3.0,7.0710678118654755,8.246211251235321,8.0,24.0,29.0,22.20360331117452
327,411,4.123105625617661,40.44749683231337,7.0,12.041594578792296,11.180339887498949,12.165525060596439,13.038404810405298,36.124783736376884,24.08318915758459,22.0,24.0,18.0,8.0,15.0,4.0,3.0,8.0,8.06225774829855,7.5,23.0,29.0,22.090722034374522
328,412,7.0,43.56604182158393,7.0710678118654755,11.045361017187261,11.180339887498949,12.36931687685298,11.180339887498949,36.22154055254967,25.179356624028344,21.5,24.0,17.0,9.5,15.5,4.5,3.5,8.0,8.06225774829855,7.5,23.0,29.0,23.194827009486403
329,413,9.055385138137417,46.52956049652737,6.0,11.045361017187261,12.165525060596439,13.341664064126334,11.40175425099138,37.33630940518894,26.30589287593181,21.5,24.0,17.0,9.5,16.5,6.5,4.5,8.0,8.06225774829855,7.5,22.0,28.0,24.08318915758459
330,414,10.04987562112089,46.52956049652737,6.0,10.04987562112089,12.165525060596439,13.341664064126334,10.198039027185569,36.22154055254967,26.1725046566048,21.0,23.0,16.0,9.5,16.5,6.5,4.5,7.0,7.0710678118654755,7.0,23.0,28.0,23.08679276123039
331,415,9.055385138137417,46.69047011971501,6.0,11.045361017187261,12.165525060596439,13.152946437965905,10.198039027185569,36.22154055254967,25.179356624028344,20.5,23.0,15.0,9.0,17.0,7.0,5.0,5.0,6.324555320336759,5.5,22.0,29.0,24.08318915758459
332,416,9.055385138137417,46.69047011971501,6.082762530298219,10.04987562112089,13.152946437965905,13.341664064126334,10.198039027185569,35.35533905932738,25.317977802344327,20.5,24.0,16.0,10.0,15.0,6.0,6.0,6.082762530298219,6.324555320336759,5.5,21.0,27.0,21.095023109728988
333,417,10.04987562112089,47.853944456021594,5.0990195135927845,10.04987562112089,13.341664064126334,14.317821063276353,10.198039027185569,35.35533905932738,25.317977802344327,20.0,23.0,14.0,8.5,16.5,7.5,5.5,5.0990195135927845,5.0990195135927845,5.0,21.0,29.0,23.08679276123039
334,418,11.045361017187261,48.05205510693585,5.0990195135927845,10.198039027185569,13.341664064126334,14.317821063276353,10.198039027185569,36.49657518178932,26.30589287593181,20.5,24.0,14.0,9.0,17.0,8.0,6.0,6.082762530298219,6.082762530298219,5.5,19.0,28.0,21.213203435596427
335,419,11.045361017187261,47.07440918375928,5.0990195135927845,10.198039027185569,12.36931687685298,14.317821063276353,10.198039027185569,36.49657518178932,26.30589287593181,20.5,24.0,14.0,9.0,17.0,8.0,6.0,6.082762530298219,6.324555320336759,6.0,19.0,29.0,21.37755832643195
336,420,12.165525060596439,48.27007354458868,5.0,10.04987562112089,12.36931687685298,14.560219778561036,9.486832980505138,36.49657518178932,26.476404589747453,20.0,24.0,13.0,9.5,17.5,8.5,6.5,6.082762530298219,6.324555320336759,5.5,18.0,29.0,22.20360331117452
337,421,13.038404810405298,47.07440918375928,4.123105625617661,9.055385138137417,12.36931687685298,14.317821063276353,10.04987562112089,36.22154055254967,27.16615541441225,20.5,23.0,13.0,8.0,18.0,10.0,6.0,7.0710678118654755,7.280109889280518,7.0,19.0,28.0,23.345235059857504
338,422,13.038404810405298,47.07440918375928,5.0990195135927845,10.04987562112089,12.36931687685298,14.560219778561036,9.055385138137417,37.21558813185679,27.16615541441225,20.5,23.0,13.0,9.0,19.0,10.0,6.0,6.0,7.280109889280518,7.0,19.0,28.0,23.194827009486403
339,423,13.038404810405298,46.87216658103186,5.0990195135927845,10.04987562112089,12.36931687685298,13.601470508735444,10.04987562112089,38.2099463490856,28.160255680657446,21.5,23.0,14.0,8.5,19.5,10.5,5.5,7.0710678118654755,8.246211251235321,7.5,20.0,28.0,22.20360331117452
340,424,13.038404810405298,45.12205669071391,5.0,10.04987562112089,12.36931687685298,13.341664064126334,9.055385138137417,37.12142238654117,27.073972741361768,20.5,23.0,13.0,9.0,19.0,10.0,6.0,8.06225774829855,7.0710678118654755,7.5,20.0,29.0,21.213203435596427
341,425,14.035668847618199,44.14748010928823,5.0,11.045361017187261,11.180339887498949,13.601470508735444,9.219544457292887,39.20459156782532,28.160255680657446,21.0,25.0,15.0,11.0,19.0,9.0,7.0,7.0,7.280109889280518,7.0,21.0,29.0,22.090722034374522
342,426,13.0,42.7551166528639,6.082762530298219,11.045361017187261,11.180339887498949,12.36931687685298,9.219544457292887,39.20459156782532,28.160255680657446,21.5,24.0,16.0,11.0,19.0,9.0,6.0,7.0,8.246211251235321,8.0,21.0,30.0,22.20360331117452
343,427,14.0,41.97618372363071,4.123105625617661,10.198039027185569,10.198039027185569,12.36931687685298,10.198039027185569,38.3275357934736,28.160255680657446,21.0,25.0,16.0,10.5,17.5,8.5,7.5,8.06225774829855,7.280109889280518,7.5,20.0,29.0,21.213203435596427
344,428,13.038404810405298,42.7551166528639,5.0,10.04987562112089,10.198039027185569,12.36931687685298,10.198039027185569,38.2099463490856,28.160255680657446,21.5,24.0,16.0,10.0,18.0,8.0,6.0,8.06225774829855,7.280109889280518,7.5,20.0,29.0,21.213203435596427
345,429,15.033296378372908,42.95346318982906,4.123105625617661,10.04987562112089,11.180339887498949,12.649110640673518,11.045361017187261,40.19950248448356,30.14962686336267,22.5,25.0,16.0,9.5,19.5,9.5,6.5,7.0710678118654755,8.246211251235321,7.5,20.0,30.0,22.360679774997898
346,430,15.033296378372908,42.95346318982906,6.0,10.04987562112089,11.180339887498949,13.341664064126334,10.198039027185569,41.19465984809196,31.144823004794873,23.5,26.0,17.0,11.5,19.5,9.5,6.5,7.0710678118654755,7.280109889280518,7.5,21.0,31.0,22.360679774997898
347,431,16.0312195418814,42.95346318982906,6.0,11.045361017187261,11.180339887498949,13.341664064126334,10.198039027185569,43.18564576337837,32.14031735997639,24.0,26.0,17.0,11.5,21.5,10.5,6.5,8.06225774829855,7.280109889280518,7.5,22.0,31.0,22.20360331117452
348,432,15.033296378372908,44.91102314577124,5.0,11.045361017187261,11.180339887498949,13.341664064126334,10.198039027185569,41.19465984809196,30.14962686336267,22.5,25.0,16.0,10.5,20.5,9.5,6.5,7.0,8.246211251235321,7.5,22.0,32.0,23.194827009486403
349,433,14.035668847618199,44.721359549995796,5.0,10.04987562112089,11.180339887498949,12.36931687685298,10.04987562112089,39.11521443121589,29.068883707497267,22.0,24.0,16.0,10.0,19.0,9.0,7.0,7.0,7.280109889280518,7.0,22.0,32.0,23.194827009486403
350,434,13.038404810405298,45.89117562233506,4.0,11.045361017187261,11.180339887498949,13.341664064126334,10.198039027185569,38.2099463490856,27.16615541441225,20.5,23.0,14.0,8.5,19.5,9.5,5.5,8.06225774829855,8.246211251235321,8.0,21.0,30.0,23.194827009486403
351,435,14.035668847618199,45.89117562233506,4.0,11.045361017187261,12.165525060596439,14.560219778561036,9.219544457292887,38.2099463490856,27.16615541441225,20.0,23.0,14.0,9.5,19.5,9.5,6.5,7.0710678118654755,7.280109889280518,7.5,21.0,31.0,24.331050121192877
352,436,14.035668847618199,45.89117562233506,5.0,11.045361017187261,12.36931687685298,13.341664064126334,9.055385138137417,39.11521443121589,28.071337695236398,21.0,23.0,14.0,9.5,20.5,10.5,6.5,8.0,8.06225774829855,8.5,22.0,31.0,22.20360331117452
353,437,15.033296378372908,45.89117562233506,5.0990195135927845,10.04987562112089,11.40175425099138,13.341664064126334,10.04987562112089,40.19950248448356,30.14962686336267,22.5,24.0,15.0,9.5,20.5,11.5,6.5,7.0,7.280109889280518,7.5,22.0,30.0,23.08679276123039
354,438,17.029386365926403,46.87216658103186,4.0,10.04987562112089,12.165525060596439,14.317821063276353,10.04987562112089,41.10960958218893,31.064449134018133,22.5,24.0,15.0,9.5,21.5,11.5,6.5,8.0,8.246211251235321,8.0,22.0,30.0,23.08679276123039
355,439,16.0312195418814,46.87216658103186,5.0,10.04987562112089,12.165525060596439,14.317821063276353,10.198039027185569,41.19465984809196,31.144823004794873,23.0,24.0,15.0,9.5,21.5,12.5,6.5,8.0,8.06225774829855,7.5,22.0,30.0,24.08318915758459
356,440,15.033296378372908,45.70557952810576,5.0,10.04987562112089,12.165525060596439,14.317821063276353,10.198039027185569,40.19950248448356,30.14962686336267,22.5,24.0,16.0,10.0,20.0,10.0,7.0,8.0,8.246211251235321,7.5,22.0,30.0,22.20360331117452
357,441,14.035668847618199,46.87216658103186,5.0,10.04987562112089,12.36931687685298,14.317821063276353,10.04987562112089,39.11521443121589,29.068883707497267,22.0,24.0,15.0,9.5,19.5,10.5,6.5,7.0,8.246211251235321,7.5,20.0,29.0,24.186773244895647
358,442,14.0,46.69047011971501,5.0990195135927845,10.04987562112089,12.36931687685298,14.317821063276353,9.055385138137417,38.118237105091836,28.071337695236398,21.0,23.0,15.0,10.0,19.0,10.0,7.0,8.06225774829855,7.280109889280518,7.5,22.0,30.0,23.194827009486403
359,443,16.0312195418814,47.51841748206689,4.0,10.04987562112089,12.165525060596439,13.152946437965905,10.198039027185569,40.19950248448356,30.14962686336267,22.0,23.0,16.0,9.5,20.5,10.5,6.5,7.0710678118654755,8.246211251235321,8.0,21.0,29.0,23.08679276123039
360,444,16.0312195418814,47.67598976424087,4.0,9.055385138137417,12.165525060596439,13.341664064126334,10.04987562112089,39.11521443121589,30.066592756745816,22.0,23.0,15.0,9.0,20.0,11.0,6.0,8.0,8.246211251235321,7.5,22.0,29.0,24.186773244895647
361,445,16.0312195418814,47.67598976424087,5.0,10.04987562112089,12.041594578792296,13.341664064126334,9.219544457292887,40.19950248448356,30.14962686336267,22.0,23.0,15.0,10.0,21.0,12.0,6.0,8.0,8.246211251235321,8.0,22.0,30.0,24.186773244895647
362,446,15.033296378372908,47.51841748206689,5.0,10.04987562112089,13.152946437965905,15.297058540778355,10.04987562112089,40.11234224026316,30.066592756745816,22.5,23.0,16.0,9.5,20.5,11.5,6.5,8.0,8.246211251235321,8.0,21.0,27.0,24.08318915758459
363,447,16.0312195418814,47.67598976424087,4.0,9.0,13.152946437965905,14.317821063276353,10.04987562112089,39.05124837953327,30.066592756745816,22.0,23.0,15.0,9.0,20.0,11.0,6.0,8.0,8.246211251235321,8.0,22.0,28.0,23.194827009486403
364,448,15.033296378372908,48.507731342539614,4.0,9.055385138137417,12.041594578792296,14.317821063276353,10.04987562112089,38.118237105091836,29.068883707497267,21.5,22.0,15.0,8.5,19.5,10.5,5.5,8.0,8.06225774829855,8.0,23.0,28.0,23.021728866442675
365,449,13.038404810405298,48.507731342539614,5.0,10.04987562112089,13.152946437965905,15.297058540778355,10.04987562112089,38.118237105091836,28.071337695236398,21.5,22.0,15.0,8.5,19.5,10.5,5.5,6.0,6.082762530298219,6.0,22.0,27.0,22.02271554554524
366,450,13.038404810405298,47.38143096192854,5.0,10.0,13.038404810405298,14.142135623730951,10.04987562112089,38.05259518088089,28.071337695236398,21.5,22.0,16.0,9.0,19.0,10.0,5.0,3.0,4.123105625617661,3.5,23.0,26.0,22.02271554554524
367,451,14.035668847618199,47.38143096192854,5.0,9.0,13.038404810405298,14.142135623730951,10.04987562112089,38.05259518088089,29.068883707497267,22.0,22.0,16.0,9.0,19.0,10.0,5.0,3.1622776601683795,4.123105625617661,3.5,23.0,26.0,22.02271554554524
368,452,14.0,48.373546489791295,4.0,9.055385138137417,13.038404810405298,15.132745950421556,10.04987562112089,37.05401462729781,28.0178514522438,21.0,21.0,15.0,8.0,19.0,10.0,5.0,3.0,3.1622776601683795,3.0,22.0,24.0,22.0
369,453,14.035668847618199,47.38143096192854,4.0,9.0,13.038404810405298,14.317821063276353,10.04987562112089,37.05401462729781,28.071337695236398,21.0,21.0,15.0,8.0,19.0,10.0,5.0,3.0,3.1622776601683795,3.0,23.0,27.0,23.021728866442675
370,454,13.0,47.38143096192854,4.0,10.04987562112089,13.038404810405298,14.142135623730951,10.04987562112089,37.05401462729781,27.018512172212592,20.5,21.0,15.0,8.0,19.0,9.0,5.0,4.0,4.123105625617661,4.0,23.0,28.0,22.090722034374522
371,455,12.0,46.389654018972806,5.0990195135927845,10.04987562112089,12.041594578792296,13.152946437965905,10.04987562112089,37.12142238654117,27.073972741361768,21.0,22.0,16.0,9.0,18.0,8.0,5.0,6.082762530298219,6.082762530298219,6.0,22.0,26.0,22.02271554554524
372,456,12.0,46.389654018972806,5.0,10.04987562112089,12.165525060596439,14.142135623730951,10.04987562112089,37.05401462729781,27.018512172212592,21.0,22.0,16.0,9.0,18.0,9.0,6.0,6.082762530298219,6.082762530298219,5.5,21.0,25.0,22.090722034374522
373,457,13.0,45.5411901469428,5.0990195135927845,10.04987562112089,11.180339887498949,13.152946437965905,10.04987562112089,38.118237105091836,28.071337695236398,21.5,24.0,17.0,10.5,17.5,7.5,6.5,6.0,6.324555320336759,6.0,21.0,27.0,22.090722034374522
374,458,12.0,44.553338819890925,6.0,11.045361017187261,12.041594578792296,13.341664064126334,9.219544457292887,38.118237105091836,27.073972741361768,21.0,24.0,17.0,11.5,17.5,7.5,6.5,7.0,7.280109889280518,6.5,22.0,28.0,22.090722034374522
375,459,12.0,43.56604182158393,7.0,11.045361017187261,11.045361017187261,13.341664064126334,9.219544457292887,39.11521443121589,28.071337695236398,22.0,25.0,18.0,12.5,17.5,7.5,6.5,7.0710678118654755,8.06225774829855,8.0,21.0,28.0,21.095023109728988
376,460,12.041594578792296,42.579337712087536,7.0,11.045361017187261,10.198039027185569,11.40175425099138,9.219544457292887,39.20459156782532,28.160255680657446,22.0,26.0,19.0,13.5,16.5,6.5,7.5,7.0,7.0710678118654755,7.0,21.0,28.0,22.090722034374522
377,461,11.045361017187261,42.42640687119285,6.0,10.0,11.180339887498949,13.341664064126334,9.219544457292887,36.124783736376884,26.1725046566048,20.5,24.0,18.0,12.0,15.0,5.0,7.0,8.06225774829855,8.06225774829855,8.0,21.0,28.0,21.095023109728988
378,462,7.0710678118654755,41.593268686170845,7.0,11.045361017187261,10.198039027185569,12.36931687685298,9.219544457292887,34.23448553724738,23.194827009486403,19.5,24.0,17.0,11.5,13.5,3.5,5.5,7.0,7.280109889280518,7.0,21.0,28.0,21.095023109728988
379,463,4.123105625617661,41.593268686170845,8.0,12.041594578792296,10.198039027185569,12.165525060596439,9.486832980505138,33.37663853655727,21.37755832643195,19.0,24.0,17.0,11.5,12.5,1.5,4.5,7.0,7.280109889280518,7.0,22.0,28.0,21.095023109728988
380,464,5.0990195135927845,40.792156108742276,8.0,11.045361017187261,10.198039027185569,12.36931687685298,9.486832980505138,33.37663853655727,22.360679774997898,19.5,25.0,17.0,12.0,12.0,2.0,5.0,8.06225774829855,8.06225774829855,8.0,21.0,28.0,22.20360331117452
381,465,10.04987562112089,41.593268686170845,6.0,10.04987562112089,10.04987562112089,11.40175425099138,9.486832980505138,35.35533905932738,25.317977802344327,20.0,25.0,18.0,12.5,13.5,3.5,6.5,8.0,8.06225774829855,8.0,21.0,27.0,23.08679276123039
382,466,10.0,39.6232255123179,7.0,11.045361017187261,10.198039027185569,11.40175425099138,9.486832980505138,37.21558813185679,26.1725046566048,21.0,26.0,19.0,13.5,14.5,4.5,7.5,8.0,8.06225774829855,8.0,22.0,28.0,22.090722034374522
383,467,10.0,40.607881008493905,7.0,11.045361017187261,9.219544457292887,11.40175425099138,10.44030650891055,38.2099463490856,27.16615541441225,22.0,26.0,19.0,12.5,15.5,5.5,6.5,8.06225774829855,8.06225774829855,8.0,22.0,27.0,22.02271554554524
384,468,11.045361017187261,40.44749683231337,7.0,11.0,10.198039027185569,11.180339887498949,10.198039027185569,39.11521443121589,28.160255680657446,22.5,26.0,20.0,13.0,16.0,5.0,7.0,7.0,8.246211251235321,8.0,21.0,27.0,21.095023109728988
385,469,9.0,40.607881008493905,8.0,11.045361017187261,9.219544457292887,12.36931687685298,10.44030650891055,38.2099463490856,27.16615541441225,22.5,26.0,19.0,12.5,15.5,4.5,5.5,7.0,8.06225774829855,8.0,21.0,27.0,22.090722034374522
386,470,9.0,38.47076812334269,9.055385138137417,12.041594578792296,9.219544457292887,11.180339887498949,9.219544457292887,39.20459156782532,27.16615541441225,22.5,26.0,20.0,14.0,16.0,4.0,6.0,8.0,8.246211251235321,8.0,21.0,27.0,22.20360331117452
387,471,12.0,37.656340767525464,8.0,11.045361017187261,9.055385138137417,10.198039027185569,10.44030650891055,41.19465984809196,30.14962686336267,24.0,28.0,21.0,14.5,16.5,5.5,7.5,7.0,7.280109889280518,7.5,21.0,27.0,23.08679276123039
388,472,12.041594578792296,36.345563690772494,9.0,12.0,10.198039027185569,12.165525060596439,11.180339887498949,44.10215414239989,32.14031735997639,26.0,29.0,24.0,15.5,17.5,5.5,7.5,7.0710678118654755,7.0710678118654755,7.0,21.0,28.0,21.095023109728988
389,473,15.033296378372908,35.510561809129406,8.0,13.038404810405298,10.04987562112089,11.180339887498949,11.180339887498949,47.16990566028302,34.132096331752024,26.5,30.0,24.0,16.0,20.0,8.0,8.0,7.0,7.0710678118654755,7.0,22.0,29.0,21.095023109728988
390,474,15.033296378372908,35.510561809129406,8.0,13.038404810405298,10.04987562112089,11.180339887498949,11.180339887498949,47.16990566028302,34.132096331752024,26.5,30.0,24.0,16.0,20.0,7.0,8.0,7.0,7.280109889280518,7.0,22.0,29.0,21.095023109728988
391,475,16.0,34.713109915419565,8.0,11.045361017187261,9.219544457292887,11.40175425099138,12.165525060596439,47.095647357266465,36.05551275463989,28.0,32.0,25.0,16.5,18.5,7.5,9.5,7.0710678118654755,8.246211251235321,7.5,22.0,28.0,21.095023109728988
392,476,15.0,35.35533905932738,7.0,12.041594578792296,9.055385138137417,10.198039027185569,12.36931687685298,46.17358552246078,34.132096331752024,26.5,30.0,25.0,15.5,18.5,7.5,8.5,7.0710678118654755,7.0710678118654755,7.0,21.0,28.0,22.090722034374522
393,477,4.123105625617661,32.7566787083184,8.0,12.041594578792296,7.280109889280518,8.54400374531753,13.341664064126334,37.33630940518894,25.317977802344327,23.0,29.0,22.0,12.5,11.5,0.5,5.5,7.0710678118654755,7.280109889280518,7.0,21.0,27.0,20.09975124224178
394,478,5.0990195135927845,34.92849839314596,6.0,10.04987562112089,8.246211251235321,9.486832980505138,14.317821063276353,35.35533905932738,25.317977802344327,22.5,28.0,20.0,10.0,11.0,2.0,5.0,7.0710678118654755,7.0710678118654755,7.0,18.0,25.0,19.1049731745428
395,479,3.1622776601683795,33.95585369269929,7.0,10.04987562112089,8.54400374531753,8.54400374531753,14.317821063276353,34.36568055487916,24.331050121192877,22.5,28.0,20.0,10.0,10.0,1.0,5.0,8.06225774829855,8.246211251235321,8.0,18.0,26.0,19.1049731745428
396,480,3.1622776601683795,34.20526275297414,7.0,11.180339887498949,7.280109889280518,9.486832980505138,14.560219778561036,35.6931365951495,24.515301344262525,22.5,28.0,19.0,9.5,11.5,1.5,3.5,7.0710678118654755,7.280109889280518,7.0,18.0,28.0,20.223748416156685
397,481,6.082762530298219,33.52610922848042,6.0,11.180339887498949,6.708203932499369,8.54400374531753,14.560219778561036,37.656340767525464,26.476404589747453,23.0,30.0,20.0,11.0,12.0,2.0,6.0,7.280109889280518,7.280109889280518,7.0,18.0,28.0,20.223748416156685
398,482,5.385164807134504,33.83784863137726,7.0,11.045361017187261,7.615773105863909,8.94427190999916,14.866068747318506,37.8549864614954,26.92582403567252,23.5,31.0,20.0,11.5,11.5,2.5,5.5,7.0710678118654755,7.280109889280518,7.0,17.0,29.0,20.396078054371138
399,483,5.0990195135927845,34.17601498127012,7.0710678118654755,11.180339887498949,7.615773105863909,9.848857801796104,13.601470508735444,36.87817782917155,25.709920264364882,22.5,31.0,19.0,12.0,11.0,1.0,6.0,7.280109889280518,7.280109889280518,7.0,17.0,30.0,20.615528128088304
400,484,4.123105625617661,33.83784863137726,7.0710678118654755,11.40175425099138,8.94427190999916,9.848857801796104,12.649110640673518,35.17101079013795,23.769728648009426,21.0,29.0,18.0,11.5,10.5,0.5,6.5,7.0710678118654755,7.280109889280518,6.5,17.0,30.0,19.6468827043885
401,485,5.385164807134504,34.785054261852174,7.0,10.198039027185569,8.54400374531753,9.486832980505138,11.704699910719626,33.95585369269929,23.769728648009426,20.5,28.0,17.0,11.5,10.5,1.5,5.5,7.280109889280518,7.280109889280518,7.0,17.0,30.0,19.6468827043885
402,486,5.385164807134504,34.785054261852174,7.0,10.198039027185569,8.54400374531753,8.54400374531753,11.704699910719626,33.95585369269929,23.769728648009426,20.5,28.0,17.0,11.5,10.5,1.5,5.5,7.280109889280518,7.280109889280518,7.0,16.0,30.0,19.6468827043885
403,487,6.324555320336759,36.05551275463989,6.0,11.180339887498949,8.54400374531753,9.848857801796104,11.704699910719626,34.92849839314596,23.769728648009426,20.0,28.0,16.0,11.0,12.0,2.0,6.0,7.0710678118654755,6.324555320336759,6.5,16.0,30.0,20.615528128088304
404,488,6.082762530298219,37.36308338453881,6.0,11.180339887498949,9.219544457292887,11.40175425099138,10.770329614269007,33.734255586866,22.561028345356956,19.0,26.0,16.0,11.0,12.0,2.0,6.0,6.324555320336759,6.324555320336759,6.5,17.0,28.0,18.439088914585774
405,489,2.23606797749979,27.0,6.0,9.0,7.0,8.0,10.04987562112089,27.073972741361768,18.110770276274835,17.0,20.0,20.0,10.0,7.0,2.0,5.0,8.0,8.06225774829855,8.5,19.0,22.0,18.0
406,493,9.055385138137417,35.12833614050059,7.0,12.0,11.180339887498949,12.041594578792296,10.04987562112089,38.05259518088089,26.076809620810597,21.5,25.0,22.0,13.5,14.5,2.5,7.5,7.280109889280518,6.082762530298219,6.5,16.0,23.0,24.331050121192877
407,494,7.0710678118654755,39.45883931389772,8.0,11.045361017187261,11.180339887498949,12.165525060596439,10.44030650891055,36.345563690772494,25.317977802344327,21.5,25.0,19.0,12.0,14.0,3.0,5.0,7.0,6.082762530298219,6.0,18.0,26.0,20.396078054371138
408,495,8.06225774829855,38.8329756778952,7.0,11.045361017187261,10.198039027185569,12.36931687685298,11.40175425099138,37.33630940518894,26.30589287593181,22.0,25.0,17.0,10.0,16.0,5.0,4.0,7.0,7.280109889280518,7.0,19.0,27.0,21.213203435596427
409,496,6.082762530298219,41.773197148410844,7.0,8.06225774829855,11.40175425099138,12.36931687685298,11.40175425099138,32.38826948140329,24.331050121192877,21.0,25.0,17.0,10.0,11.0,4.0,5.0,7.0710678118654755,7.280109889280518,7.0,19.0,26.0,21.213203435596427
410,497,6.082762530298219,41.773197148410844,7.0,8.06225774829855,11.40175425099138,12.36931687685298,11.40175425099138,32.38826948140329,24.331050121192877,21.0,25.0,17.0,10.0,11.0,4.0,5.0,7.0710678118654755,7.280109889280518,7.0,19.0,26.0,21.213203435596427
411,498,6.0,38.8329756778952,8.06225774829855,11.045361017187261,10.198039027185569,11.40175425099138,10.198039027185569,35.22782990761707,24.186773244895647,21.0,24.0,16.0,10.0,15.0,4.0,3.0,7.0710678118654755,7.0710678118654755,6.5,19.0,27.0,22.20360331117452
412,499,4.123105625617661,39.6232255123179,8.0,11.045361017187261,10.198039027185569,11.40175425099138,10.44030650891055,33.37663853655727,22.360679774997898,20.0,23.0,16.0,9.5,13.5,2.5,2.5,7.0,7.280109889280518,7.0,19.0,27.0,21.213203435596427
413,500,3.0,39.81205847478876,7.0710678118654755,11.045361017187261,10.44030650891055,11.40175425099138,10.198039027185569,31.25699921617557,20.223748416156685,18.5,22.0,14.0,8.0,13.0,2.0,3.0,8.06225774829855,8.246211251235321,7.5,18.0,26.0,22.20360331117452
414,501,1.4142135623730951,40.792156108742276,7.0,11.045361017187261,10.198039027185569,11.40175425099138,11.40175425099138,30.4138126514911,19.4164878389476,18.5,22.0,14.0,7.0,12.0,2.0,2.0,7.0,7.280109889280518,7.0,17.0,25.0,21.213203435596427
415,502,2.23606797749979,39.6232255123179,5.0,10.04987562112089,10.198039027185569,11.40175425099138,12.36931687685298,29.427877939124322,19.4164878389476,18.0,21.0,14.0,5.5,11.5,2.5,1.5,8.06225774829855,7.280109889280518,7.0,18.0,25.0,21.213203435596427
416,503,2.23606797749979,38.8329756778952,6.0,11.045361017187261,10.198039027185569,10.44030650891055,12.36931687685298,31.400636936215164,20.396078054371138,19.0,22.0,14.0,6.0,13.0,3.0,1.0,7.0,7.0710678118654755,7.0,18.0,26.0,22.20360331117452
417,504,4.123105625617661,37.8549864614954,5.0,10.04987562112089,10.198039027185569,10.44030650891055,12.36931687685298,31.400636936215164,21.37755832643195,19.0,22.0,14.0,6.0,13.0,3.0,2.0,7.0,7.0710678118654755,7.0,18.0,25.0,20.223748416156685
418,505,6.0,37.8549864614954,7.0710678118654755,11.045361017187261,9.486832980505138,11.40175425099138,11.180339887498949,35.22782990761707,24.186773244895647,21.0,23.0,15.0,8.0,16.0,5.0,3.0,8.0,7.280109889280518,7.0,19.0,26.0,21.095023109728988
419,506,5.0,41.30375285612676,7.0710678118654755,8.06225774829855,9.055385138137417,10.0,10.04987562112089,30.14962686336267,22.090722034374522,19.5,20.0,15.0,7.5,12.5,3.5,1.5,7.0,7.0710678118654755,7.0,19.0,25.0,21.095023109728988
420,507,4.123105625617661,39.81205847478876,5.0990195135927845,8.06225774829855,9.486832980505138,10.44030650891055,13.341664064126334,30.59411708155671,22.561028345356956,20.0,23.0,15.0,6.0,11.0,3.0,3.0,7.0,7.280109889280518,7.0,18.0,25.0,22.20360331117452
421,508,5.0990195135927845,40.792156108742276,5.0990195135927845,7.0710678118654755,10.198039027185569,11.40175425099138,12.649110640673518,29.832867780352597,22.80350850198276,19.5,20.0,12.0,4.0,13.0,7.0,1.0,7.0,8.06225774829855,7.5,17.0,25.0,22.20360331117452
422,509,4.123105625617661,40.792156108742276,4.0,8.246211251235321,10.198039027185569,11.40175425099138,13.0,29.120439557122072,20.8806130178211,18.0,20.0,12.0,4.0,12.0,5.0,1.0,7.0710678118654755,8.06225774829855,7.5,17.0,24.0,23.08679276123039
423,510,20.024984394500787,46.69047011971501,4.0,8.06225774829855,13.152946437965905,14.317821063276353,10.198039027185569,42.190046219457976,34.132096331752024,24.0,24.0,16.0,10.0,22.0,14.0,7.0,8.0,8.06225774829855,8.0,18.0,25.0,21.213203435596427
424,511,5.0,26.1725046566048,5.0,8.0,6.082762530298219,7.0710678118654755,12.0,30.0,22.0,19.5,20.0,23.0,9.5,8.5,0.5,4.5,8.06225774829855,9.0,8.5,20.0,19.0,16.0312195418814
425,512,12.041594578792296,33.54101966249684,3.0,8.06225774829855,8.246211251235321,10.198039027185569,9.055385138137417,32.14031735997639,24.08318915758459,18.0,20.0,14.0,8.0,15.0,8.0,6.0,7.0,6.324555320336759,6.5,18.0,22.0,15.0
426,513,8.06225774829855,41.43669871020132,4.123105625617661,7.0710678118654755,10.198039027185569,12.165525060596439,8.54400374531753,27.65863337187866,20.615528128088304,16.0,18.0,12.0,7.0,12.0,5.0,4.0,7.0,5.0990195135927845,5.5,16.0,21.0,21.095023109728988
427,516,11.045361017187261,50.15974481593781,4.123105625617661,7.0,13.038404810405298,15.132745950421556,7.280109889280518,29.068883707497267,22.090722034374522,16.5,11.0,7.0,2.0,20.0,12.0,0.0,7.0,6.324555320336759,6.5,17.0,25.0,22.360679774997898
428,517,17.029386365926403,49.36598018878993,4.0,8.06225774829855,14.035668847618199,14.317821063276353,7.0710678118654755,36.013886210738214,28.071337695236398,19.5,15.0,9.0,5.0,24.0,16.0,2.0,7.0,7.280109889280518,7.0,17.0,25.0,19.235384061671343
429,527,11.0,48.16637831516918,4.0,9.055385138137417,13.038404810405298,14.142135623730951,11.180339887498949,35.12833614050059,26.076809620810597,20.5,18.0,14.0,5.0,19.0,10.0,2.0,4.0,5.0990195135927845,4.5,20.0,24.0,23.08679276123039
430,528,11.0,46.09772228646444,6.082762530298219,10.04987562112089,13.038404810405298,14.142135623730951,10.04987562112089,37.12142238654117,27.073972741361768,21.5,20.0,17.0,8.5,18.5,8.5,3.5,4.0,5.0,4.5,21.0,23.0,23.021728866442675
431,529,12.0,45.17742799230607,5.0990195135927845,9.055385138137417,13.152946437965905,14.035668847618199,9.055385138137417,35.12833614050059,26.076809620810597,20.0,21.0,17.0,10.0,16.0,7.0,6.0,5.0,5.0990195135927845,4.5,23.0,25.0,23.021728866442675
432,530,9.055385138137417,44.28317965096906,5.0,9.0,12.165525060596439,13.038404810405298,11.40175425099138,34.23448553724738,25.317977802344327,20.5,23.0,18.0,9.5,13.5,4.5,5.5,4.0,4.0,3.5,22.0,24.0,22.02271554554524
433,531,8.06225774829855,44.40720662234904,6.082762530298219,10.04987562112089,12.041594578792296,13.152946437965905,11.180339887498949,35.35533905932738,25.317977802344327,21.0,25.0,19.0,11.0,13.0,4.0,6.0,3.1622776601683795,4.0,4.0,22.0,27.0,23.021728866442675
434,532,8.06225774829855,44.40720662234904,6.082762530298219,10.04987562112089,12.041594578792296,13.152946437965905,11.180339887498949,35.35533905932738,25.317977802344327,21.0,25.0,19.0,11.0,13.0,4.0,6.0,3.1622776601683795,4.0,4.0,22.0,27.0,23.021728866442675
435,533,9.055385138137417,44.721359549995796,6.0,9.219544457292887,12.165525060596439,13.341664064126334,11.704699910719626,35.6931365951495,26.476404589747453,21.5,27.0,19.0,12.0,12.0,4.0,7.0,4.123105625617661,4.123105625617661,4.0,21.0,27.0,23.194827009486403
436,534,17.11724276862369,44.9221548904324,5.0990195135927845,9.219544457292887,12.649110640673518,13.601470508735444,11.40175425099138,42.7551166528639,33.54101966249684,24.5,31.0,18.0,13.5,17.5,9.5,10.5,5.0990195135927845,5.385164807134504,4.5,19.0,31.0,24.331050121192877
437,535,18.027756377319946,46.486557196677836,5.0990195135927845,9.219544457292887,12.649110640673518,14.866068747318506,10.44030650891055,42.579337712087536,33.37663853655727,24.0,31.0,16.0,13.5,18.5,10.5,10.5,6.082762530298219,5.385164807134504,5.0,18.0,31.0,23.345235059857504
438,536,14.0,48.76474136094644,5.0990195135927845,10.198039027185569,12.36931687685298,13.601470508735444,13.341664064126334,42.42640687119285,32.2490309931942,25.0,29.0,16.0,9.5,19.5,11.5,6.5,7.0710678118654755,6.324555320336759,5.5,19.0,32.0,23.53720459187964
439,537,18.110770276274835,48.38388161361178,5.0990195135927845,10.198039027185569,13.601470508735444,14.866068747318506,10.198039027185569,43.56604182158393,33.37663853655727,24.0,29.0,14.0,11.5,21.5,13.5,8.5,6.082762530298219,6.708203932499369,6.0,19.0,32.0,23.53720459187964
440,538,18.110770276274835,51.54609587543949,5.0990195135927845,9.219544457292887,13.92838827718412,15.231546211727817,9.219544457292887,41.593268686170845,32.38826948140329,23.0,27.0,11.0,10.0,22.0,14.0,8.0,7.0710678118654755,7.615773105863909,6.5,19.0,32.0,23.345235059857504
441,539,19.026297590440446,51.24451190127583,5.0990195135927845,9.486832980505138,13.601470508735444,14.866068747318506,8.246211251235321,41.593268686170845,32.2490309931942,22.5,27.0,12.0,11.5,21.5,13.5,8.5,6.082762530298219,7.280109889280518,7.0,20.0,34.0,23.345235059857504
442,540,16.1245154965971,52.49761899362675,5.0990195135927845,10.198039027185569,13.601470508735444,14.866068747318506,8.06225774829855,39.45883931389772,29.274562336608895,21.0,26.0,10.0,10.0,21.0,13.0,8.0,8.246211251235321,8.246211251235321,8.0,19.0,34.0,23.345235059857504
443,541,17.11724276862369,54.120236510939236,4.0,9.219544457292887,13.92838827718412,15.811388300841896,8.06225774829855,38.3275357934736,29.154759474226502,20.5,24.0,9.0,8.5,21.5,13.5,7.5,7.0710678118654755,7.280109889280518,7.0,20.0,34.0,23.345235059857504
444,542,16.0312195418814,54.405882034941776,4.123105625617661,10.198039027185569,14.560219778561036,15.811388300841896,8.06225774829855,38.3275357934736,28.160255680657446,20.0,25.0,9.0,9.0,21.0,13.0,7.0,7.0710678118654755,7.615773105863909,7.0,20.0,34.0,23.345235059857504
445,543,15.033296378372908,55.08175741568164,5.0990195135927845,9.219544457292887,15.524174696260024,16.76305461424021,9.055385138137417,38.3275357934736,29.154759474226502,21.5,25.0,10.0,8.5,20.5,13.5,6.5,7.0710678118654755,7.615773105863909,6.5,19.0,33.0,24.331050121192877
446,544,15.033296378372908,55.08175741568164,5.0990195135927845,9.219544457292887,15.524174696260024,16.76305461424021,9.055385138137417,38.3275357934736,29.154759474226502,21.5,25.0,10.0,8.5,20.5,13.5,6.5,7.0710678118654755,7.615773105863909,6.5,19.0,33.0,24.331050121192877
447,545,15.033296378372908,55.08175741568164,5.0990195135927845,10.198039027185569,14.866068747318506,17.08800749063506,8.06225774829855,38.3275357934736,28.160255680657446,20.5,24.0,9.0,8.5,21.5,13.5,6.5,7.0710678118654755,7.615773105863909,6.5,19.0,34.0,26.476404589747453
448,546,16.0312195418814,57.28001396647874,5.0990195135927845,9.219544457292887,16.76305461424021,18.027756377319946,8.06225774829855,38.3275357934736,29.154759474226502,21.0,24.0,8.0,8.0,22.0,14.0,6.0,7.0710678118654755,7.615773105863909,6.5,18.0,32.0,25.495097567963924
449,547,16.0312195418814,57.0087712549569,4.123105625617661,9.219544457292887,15.811388300841896,18.027756377319946,9.055385138137417,38.3275357934736,29.154759474226502,21.0,24.0,9.0,7.5,21.5,13.5,6.5,7.0710678118654755,7.615773105863909,7.0,18.0,32.0,25.495097567963924
450,548,15.033296378372908,57.97413216254298,5.0990195135927845,9.219544457292887,15.524174696260024,16.76305461424021,8.06225774829855,37.33630940518894,28.160255680657446,20.5,23.0,8.0,7.5,21.5,14.5,5.5,7.0710678118654755,7.615773105863909,7.0,19.0,32.0,24.331050121192877
451,549,16.0312195418814,57.97413216254298,4.123105625617661,9.219544457292887,15.811388300841896,18.027756377319946,9.055385138137417,38.3275357934736,29.154759474226502,21.0,24.0,9.0,7.5,21.5,13.5,6.5,9.055385138137417,8.54400374531753,8.0,18.0,32.0,25.495097567963924
452,550,15.033296378372908,57.97413216254298,4.123105625617661,10.198039027185569,15.811388300841896,16.76305461424021,8.06225774829855,37.33630940518894,27.16615541441225,19.5,22.0,7.0,6.5,22.5,14.5,5.5,8.246211251235321,7.615773105863909,7.5,19.0,33.0,25.495097567963924
453,551,16.0312195418814,58.69412236331676,4.123105625617661,9.219544457292887,16.492422502470642,16.76305461424021,9.055385138137417,38.3275357934736,29.154759474226502,21.0,22.0,8.0,6.0,23.0,15.0,5.0,9.055385138137417,8.54400374531753,8.0,19.0,32.0,25.495097567963924
454,552,15.033296378372908,58.69412236331676,4.123105625617661,10.198039027185569,16.76305461424021,17.72004514666935,9.055385138137417,38.3275357934736,28.160255680657446,20.5,23.0,9.0,7.0,22.0,13.0,6.0,9.219544457292887,8.54400374531753,8.5,19.0,33.0,24.515301344262525
455,553,21.02379604162864,57.48912940721924,4.123105625617661,9.055385138137417,16.492422502470642,17.72004514666935,9.0,43.104524124504614,34.058772731852805,23.5,23.0,10.0,7.5,26.5,18.5,6.5,9.0,8.246211251235321,8.5,21.0,33.0,25.317977802344327
456,554,21.02379604162864,57.723478758647246,4.123105625617661,9.055385138137417,15.811388300841896,17.72004514666935,8.0,42.1070065428546,33.06055050963308,22.5,23.0,9.0,8.0,26.0,18.0,7.0,9.0,9.486832980505138,8.5,20.0,33.0,25.317977802344327
457,555,22.02271554554524,56.753854494650845,4.123105625617661,10.04987562112089,15.524174696260024,17.72004514666935,9.0,45.09988913511872,35.05709628591621,24.0,24.0,10.0,8.0,28.0,19.0,6.0,9.055385138137417,9.219544457292887,9.0,20.0,33.0,24.186773244895647
458,556,20.09975124224178,57.723478758647246,4.0,9.055385138137417,15.524174696260024,17.72004514666935,8.0,41.10960958218893,32.0624390837628,22.0,23.0,9.0,8.0,25.0,17.0,6.0,9.055385138137417,9.219544457292887,9.0,20.0,32.0,25.317977802344327
459,557,18.027756377319946,58.69412236331676,4.123105625617661,9.219544457292887,15.524174696260024,17.72004514666935,8.0,39.20459156782532,30.066592756745816,21.0,22.0,8.0,7.0,24.0,16.0,5.0,9.055385138137417,9.219544457292887,9.0,20.0,32.0,25.317977802344327
460,558,17.029386365926403,58.463663928973865,4.123105625617661,9.219544457292887,15.524174696260024,17.46424919657298,8.0,38.2099463490856,29.068883707497267,20.5,22.0,9.0,7.5,22.5,14.5,5.5,7.0710678118654755,7.280109889280518,7.0,19.0,32.0,25.317977802344327
461,559,17.029386365926403,58.463663928973865,4.123105625617661,8.246211251235321,15.524174696260024,17.72004514666935,9.0,38.2099463490856,30.066592756745816,21.5,22.0,9.0,6.5,22.5,15.5,5.5,2.23606797749979,2.8284271247461903,2.5,21.0,33.0,26.1725046566048
462,560,16.0312195418814,57.48912940721924,5.0990195135927845,9.055385138137417,16.492422502470642,17.46424919657298,8.06225774829855,38.2099463490856,29.154759474226502,21.0,22.0,9.0,7.5,22.5,14.5,5.5,2.23606797749979,3.605551275463989,3.0,22.0,33.0,25.179356624028344
463,561,15.033296378372908,58.463663928973865,5.0990195135927845,9.055385138137417,15.524174696260024,16.492422502470642,8.0,37.12142238654117,28.071337695236398,20.5,22.0,9.0,7.5,21.5,13.5,5.5,3.1622776601683795,2.23606797749979,2.5,21.0,33.0,26.30589287593181
464,562,15.033296378372908,59.22837157984339,4.123105625617661,9.219544457292887,15.297058540778355,16.76305461424021,9.0,37.21558813185679,28.071337695236398,20.5,21.0,9.0,6.0,22.0,14.0,4.0,3.1622776601683795,3.1622776601683795,3.0,20.0,31.0,25.179356624028344
465,563,15.033296378372908,58.05170109479997,4.123105625617661,10.04987562112089,15.297058540778355,17.46424919657298,9.0,38.118237105091836,28.071337695236398,20.5,21.0,10.0,6.5,22.5,13.5,4.5,3.1622776601683795,3.1622776601683795,3.0,20.0,30.0,25.317977802344327
466,564,16.0,58.05170109479997,4.123105625617661,9.219544457292887,16.278820596099706,17.46424919657298,8.0,37.12142238654117,28.0178514522438,20.0,21.0,10.0,7.5,21.5,13.5,5.5,2.23606797749979,3.1622776601683795,3.0,22.0,30.0,25.079872407968907
467,565,14.035668847618199,58.855755878248644,5.0990195135927845,11.0,15.132745950421556,17.26267650163207,8.06225774829855,38.01315561749642,27.018512172212592,20.0,20.0,10.0,7.0,23.0,13.0,4.0,3.1622776601683795,4.123105625617661,3.5,23.0,30.0,25.079872407968907
468,566,15.0,57.42821606144492,5.0,11.045361017187261,15.297058540778355,17.26267650163207,8.0,39.01281840626232,28.0,20.5,19.0,12.0,7.5,23.5,13.5,4.5,3.0,3.0,3.0,23.0,28.0,23.021728866442675
469,567,15.033296378372908,57.21887800367987,5.0,10.0,16.0312195418814,17.26267650163207,9.055385138137417,39.0,29.0,21.5,20.0,15.0,8.5,21.5,12.5,4.5,3.1622776601683795,4.123105625617661,4.0,24.0,26.0,24.0
470,568,15.0,56.08029957123981,5.0,11.0,15.033296378372908,16.1245154965971,9.055385138137417,40.01249804748511,29.017236257093817,21.5,18.0,15.0,7.5,23.5,12.5,4.5,4.0,5.0990195135927845,4.5,25.0,26.0,22.0
471,569,16.0,55.08175741568164,5.0990195135927845,10.0,14.035668847618199,16.1245154965971,8.06225774829855,39.05124837953327,29.068883707497267,21.0,18.0,15.0,8.5,22.5,12.5,4.5,6.0,5.0,5.0,26.0,25.0,23.021728866442675
472,570,16.0,55.036351623268054,5.0,10.0,15.033296378372908,16.0312195418814,9.055385138137417,40.01249804748511,30.01666203960727,22.0,19.0,17.0,9.0,22.0,12.0,5.0,6.0,6.0,6.0,25.0,23.0,23.08679276123039
473,571,16.0,54.037024344425184,4.0,10.04987562112089,14.0,16.0312195418814,9.055385138137417,39.05124837953327,29.017236257093817,21.0,18.0,16.0,8.0,22.0,12.0,4.0,5.0,6.0,6.0,25.0,23.0,24.020824298928627
474,572,17.0,53.03772242470448,4.123105625617661,10.0,15.0,16.0312195418814,9.055385138137417,40.049968789001575,30.066592756745816,21.5,19.0,17.0,9.0,22.0,12.0,5.0,6.0,6.0,6.0,26.0,23.0,22.090722034374522
475,573,17.029386365926403,53.03772242470448,5.0,10.0,15.0,16.0312195418814,8.06225774829855,40.049968789001575,30.066592756745816,21.5,19.0,17.0,10.0,22.0,12.0,6.0,6.0,6.0,6.0,26.0,23.0,24.020824298928627
476,574,20.024984394500787,51.0,5.0,9.0,15.0,17.029386365926403,9.0,43.01162633521314,34.0147027033899,24.0,21.0,21.0,12.0,22.0,12.0,7.0,6.0,6.0,6.0,25.0,23.0,23.08679276123039
477,575,21.02379604162864,49.01020301937138,6.0,10.0,13.0,16.0,10.0,47.01063709417264,37.013511046643494,26.5,24.0,23.0,13.5,23.5,13.5,8.5,6.082762530298219,6.082762530298219,5.5,25.0,24.0,23.021728866442675
478,576,23.021728866442675,49.040799340956916,5.0,10.0,13.0,16.0312195418814,10.0,48.010415536631214,38.01315561749642,26.5,25.0,23.0,14.0,24.0,13.0,9.0,7.0,6.0,6.0,25.0,24.0,21.02379604162864
479,577,23.021728866442675,48.041648597857254,6.0,11.0,13.038404810405298,15.033296378372908,9.0,49.01020301937138,38.01315561749642,26.5,25.0,23.0,15.0,25.0,14.0,10.0,5.0,6.082762530298219,6.0,24.0,23.0,21.02379604162864
480,578,23.021728866442675,48.041648597857254,6.0,11.0,13.038404810405298,15.033296378372908,9.0,49.01020301937138,38.01315561749642,26.5,25.0,23.0,15.0,25.0,14.0,10.0,5.0,6.082762530298219,6.0,24.0,23.0,21.02379604162864
481,579,26.019223662515376,47.095647357266465,5.0,10.04987562112089,13.038404810405298,15.132745950421556,10.0,51.0,41.012193308819754,28.0,26.0,23.0,14.5,26.5,16.5,10.5,5.0,6.0,6.0,24.0,25.0,22.02271554554524
482,580,26.0,47.16990566028302,5.0,10.0,13.038404810405298,15.132745950421556,10.0,51.0,41.0,28.0,27.0,23.0,15.0,26.0,16.0,11.0,6.0,6.082762530298219,6.0,22.0,25.0,23.021728866442675
483,581,26.0,47.16990566028302,5.0,10.04987562112089,13.038404810405298,15.132745950421556,10.04987562112089,51.03920062069938,41.012193308819754,28.0,26.0,22.0,14.0,27.0,17.0,10.0,5.0,6.082762530298219,6.0,21.0,24.0,21.0
484,582,27.0,47.265209192385896,5.0,10.04987562112089,14.035668847618199,15.132745950421556,10.04987562112089,52.03844732503075,42.01190307520001,28.5,28.0,23.0,15.5,26.5,16.5,10.5,6.0,6.082762530298219,6.0,22.0,25.0,20.024984394500787
485,583,22.02271554554524,46.389654018972806,5.0,10.04987562112089,12.041594578792296,15.132745950421556,10.04987562112089,47.095647357266465,37.05401462729781,26.0,28.0,22.0,15.0,22.0,12.0,10.0,6.082762530298219,6.082762530298219,6.0,21.0,26.0,21.095023109728988
486,584,17.0,47.51841748206689,5.0990195135927845,10.04987562112089,13.152946437965905,14.142135623730951,10.04987562112089,42.1070065428546,32.0624390837628,23.5,27.0,20.0,13.5,18.5,9.5,9.5,5.0,6.082762530298219,6.0,21.0,26.0,21.02379604162864
487,585,16.0312195418814,46.69047011971501,5.0,10.04987562112089,12.165525060596439,13.152946437965905,11.180339887498949,42.190046219457976,32.14031735997639,24.0,27.0,19.0,12.0,19.0,10.0,8.0,5.0,5.0990195135927845,5.0,21.0,26.0,22.02271554554524
488,586,16.0312195418814,46.69047011971501,6.0,10.04987562112089,12.165525060596439,13.341664064126334,10.44030650891055,42.2965719651132,32.2490309931942,24.0,27.0,19.0,13.0,19.0,9.0,8.0,4.0,4.123105625617661,4.0,20.0,25.0,22.02271554554524
489,587,15.033296378372908,44.721359549995796,7.0,11.180339887498949,12.165525060596439,14.142135623730951,10.198039027185569,43.289721643826724,32.14031735997639,24.5,29.0,21.0,15.0,18.0,8.0,9.0,3.0,3.1622776601683795,3.0,22.0,27.0,22.090722034374522
490,588,17.0,43.41658669218482,7.0,11.045361017187261,11.045361017187261,13.152946437965905,10.44030650891055,45.17742799230607,34.132096331752024,25.5,29.0,23.0,16.0,19.0,8.0,10.0,4.123105625617661,3.1622776601683795,3.5,23.0,27.0,22.02271554554524
491,589,18.0,43.289721643826724,7.0,11.045361017187261,12.041594578792296,13.152946437965905,10.198039027185569,46.09772228646444,35.05709628591621,26.0,29.0,24.0,16.5,19.5,8.5,10.5,4.123105625617661,4.0,4.5,24.0,27.0,22.02271554554524
492,590,14.0,43.104524124504614,7.0,11.0,12.0,13.038404810405298,11.180339887498949,43.04648650006177,32.0624390837628,25.0,28.0,25.0,15.5,16.5,5.5,8.5,5.0,6.082762530298219,6.0,26.0,28.0,23.021728866442675
493,591,9.0,44.10215414239989,7.0,11.045361017187261,11.045361017187261,13.152946437965905,11.045361017187261,38.05259518088089,27.018512172212592,22.5,26.0,23.0,13.5,13.5,2.5,6.5,5.0,5.0990195135927845,5.0,27.0,28.0,24.020824298928627
494,592,5.0990195135927845,44.10215414239989,8.06225774829855,10.0,11.045361017187261,12.041594578792296,11.180339887498949,34.058772731852805,24.08318915758459,21.5,24.0,21.0,11.5,11.5,1.5,4.5,5.0990195135927845,5.0,5.0,26.0,25.0,23.021728866442675
495,593,2.23606797749979,44.10215414239989,8.0,11.0,12.041594578792296,12.041594578792296,11.180339887498949,32.14031735997639,21.213203435596427,20.0,23.0,20.0,10.5,10.5,0.5,2.5,5.0,5.0990195135927845,5.5,25.0,25.0,23.0
496,594,5.0990195135927845,43.104524124504614,8.0,11.0,12.041594578792296,12.165525060596439,10.04987562112089,34.058772731852805,23.08679276123039,20.5,23.0,20.0,11.5,12.5,1.5,4.5,6.0,6.082762530298219,6.0,27.0,26.0,23.0
