,frame_seq,m1,m3,m4,m5,m6,m7,m8,m9,m10,m11,m12,m13,m14,m15,m16,m17,e1,e2,e3,b1,b2,b3,label_measures
0,249,2.0,34.0147027033899,4.0,7.071067811865476,10.0,11.0,8.0,21.02379604162864,14.0,13.0,16.0,15.0,7.5,5.5,1.5,3.5,5.0,4.0,4.5,17.0,16.0,16.0,{}
1,250,3.1622776601683795,35.0,4.0,9.055385138137416,10.0,11.0,8.06225774829855,24.020824298928627,15.0,13.5,15.0,15.0,7.0,9.0,0.0,3.0,5.0,5.0990195135927845,4.0,18.0,15.0,17.029386365926403,{}
2,251,4.0,35.0,4.0,7.0,10.0,11.0,9.0,24.0,17.0,15.0,16.0,16.0,7.0,8.0,0.0,3.0,5.0,5.0990195135927845,4.0,18.0,15.0,17.029386365926403,{}
3,252,3.0,35.0,4.0,8.0,10.0,10.0,7.071067811865476,22.02271554554524,14.0356688476182,12.5,14.0,14.0,7.0,8.0,0.0,3.0,4.0,5.0,5.0,16.0,16.0,14.0356688476182,"{'neutral': (['m1', 'm3', 'm12', 'e1', 'e2'], None, 22)}"
4,253,3.0,34.0,3.0,7.071067811865476,10.0,11.0,8.0,21.02379604162864,14.0,12.5,14.0,14.0,6.0,7.0,0.0,3.0,4.0,4.0,4.0,17.0,16.0,14.0,"{'neutral': (['m1', 'm3', 'm12', 'e1', 'e2'], None, 22)}"
5,254,3.0,35.0142828000232,4.0,7.0,10.0,11.0,7.071067811865476,21.02379604162864,14.0356688476182,12.5,14.0,13.0,6.5,7.5,0.5,2.5,4.0,4.0,4.0,16.0,15.0,14.0356688476182,"{'neutral': (['m1', 'm3', 'm12', 'e1', 'e2'], None, 22)}"
6,255,3.0,35.0142828000232,4.0,7.0,10.0,11.04536101718726,7.071067811865476,21.02379604162864,14.0356688476182,12.5,14.0,13.0,6.5,7.5,0.5,2.5,4.0,4.0,4.0,16.0,15.0,15.033296378372908,"{'neutral': (['m1', 'm3', 'm12', 'e1', 'e2'], None, 22)}"
7,256,4.0,35.05709628591621,4.0,8.06225774829855,10.04987562112089,11.0,8.0,24.020824298928627,16.0,14.0,15.0,13.0,6.0,10.0,2.0,3.0,5.0,4.0,4.0,15.0,15.0,15.033296378372908,"{'neutral': (['m1', 'm3', 'm12', 'e1', 'e2'], None, 22)}"
8,257,6.0,35.0142828000232,4.0,7.071067811865476,10.0,11.0,7.0,24.020824298928627,17.0,14.0,14.0,13.0,6.5,10.5,2.5,2.5,4.0,5.0,4.5,16.0,16.0,15.0,"{'neutral': (['m1', 'm3', 'm12', 'e1', 'e2'], None, 22)}"
9,258,4.0,36.013886210738214,3.0,8.0,10.0,11.0,8.0,23.0,15.0,13.0,15.0,14.0,6.5,8.5,0.5,3.5,4.123105625617661,5.0,5.0,16.0,16.0,16.0,"{'neutral': (['m1', 'm3', 'm12', 'e1', 'e2'], None, 22)}"
10,259,3.1622776601683795,36.013886210738214,4.0,8.0,10.0,10.0,7.071067811865476,22.0,14.0,12.5,14.0,13.0,6.5,8.5,0.5,2.5,4.0,5.0,4.5,17.0,16.0,15.0,"{'neutral': (['m1', 'm3', 'm12', 'e1', 'e2'], None, 22)}"
11,260,4.0,34.0,4.0,8.0,10.04987562112089,11.0,8.06225774829855,24.020824298928627,16.0312195418814,14.0,14.0,14.0,6.0,10.0,1.0,2.0,5.0990195135927845,4.123105625617661,4.0,19.0,16.0,14.0356688476182,"{'neutral': (['m1', 'm3', 'm12', 'e1', 'e2'], None, 22)}"
12,261,3.0,34.0,4.0,9.0,10.0,10.0,8.0,24.0,15.0,13.5,14.0,14.0,6.0,10.0,1.0,2.0,5.0,6.082762530298219,6.0,21.0,17.0,16.0312195418814,"{'neutral': (['m1', 'm3', 'm12', 'e1', 'e2'], None, 22)}"
13,262,2.0,33.0,4.0,8.0,9.0,10.0,8.0,22.0,14.0,13.0,14.0,14.0,6.0,8.0,0.0,2.0,5.0990195135927845,5.0,5.0,19.0,16.0,15.033296378372908,"{'neutral': (['m1', 'm3', 'm12', 'e1', 'e2'], None, 22)}"
14,263,2.0,33.0,4.0,8.0,9.0,10.0,8.0,22.0,14.0,13.0,14.0,14.0,6.0,8.0,0.0,2.0,5.0990195135927845,5.0,5.0,19.0,16.0,15.033296378372908,"{'neutral': (['m1', 'm3', 'm12', 'e1', 'e2'], None, 22)}"
15,264,4.0,33.015148038438355,3.0,8.0,10.0,10.0,8.06225774829855,23.021728866442675,15.033296378372908,13.0,13.0,14.0,5.5,9.5,0.5,2.5,5.0,4.0,3.5,20.0,16.0,15.033296378372908,"{'neutral': (['m1', 'm3', 'm12', 'e1', 'e2'], None, 22)}"
16,265,2.0,33.015148038438355,4.0,8.0,9.0,9.055385138137416,8.0,22.0,14.0,13.0,15.0,14.0,6.5,7.5,0.5,2.5,4.0,3.0,3.5,18.0,15.0,17.0,"{'neutral': (['m1', 'm3', 'm12', 'e1', 'e2'], None, 22)}"
17,266,1.0,33.0,3.0,8.0,10.0,10.0,9.0,21.0,13.0,12.5,14.0,14.0,5.0,7.0,1.0,2.0,4.0,3.0,3.5,18.0,15.0,16.0,"{'neutral': (['m1', 'm3', 'm12', 'e1', 'e2'], None, 22)}"
18,267,2.23606797749979,33.015148038438355,4.0,7.0,9.0,10.0,8.0,21.02379604162864,14.0356688476182,13.0,13.0,14.0,5.5,7.5,0.5,2.5,5.0,4.0,4.0,16.0,14.0,15.033296378372908,"{'neutral': (['m1', 'm3', 'm12', 'e1', 'e2'], None, 22)}"
19,268,0.0,33.0,5.0,8.0,9.0,10.0,11.0,24.0,16.0,16.0,15.0,15.0,4.0,9.0,0.0,0.0,4.123105625617661,4.0,4.0,18.0,15.0,16.0,"{'neutral': (['m1', 'm3', 'm12', 'e1', 'e2'], None, 22)}"
20,269,1.0,33.015148038438355,4.0,8.0,8.0,9.0,11.0,24.0,16.0,15.5,15.0,14.0,3.5,9.5,0.5,0.5,5.0,5.0,5.0,18.0,15.0,14.0,"{'neutral': (['m1', 'm3', 'm12', 'e1', 'e2'], None, 22)}"
21,270,1.0,35.0142828000232,4.0,9.0,9.0,11.0,10.0,24.0,15.0,14.5,15.0,14.0,4.5,9.5,0.5,0.5,4.123105625617661,4.0,4.0,18.0,15.0,16.0,"{'neutral': (['m1', 'm3', 'm12', 'e1', 'e2'], None, 22)}"
22,271,1.0,35.0142828000232,4.0,9.0,9.0,11.0,10.0,24.0,15.0,14.5,15.0,14.0,4.5,9.5,0.5,0.5,4.123105625617661,4.0,4.0,18.0,15.0,16.0,"{'neutral': (['m1', 'm3', 'm12', 'e1', 'e2'], None, 22)}"
23,272,3.0,35.0,4.0,8.0,10.0,10.0,8.06225774829855,23.021728866442675,15.033296378372908,13.5,14.0,14.0,6.0,9.0,1.0,2.0,4.0,4.0,4.0,17.0,15.0,14.0,"{'neutral': (['m1', 'm3', 'm12', 'e1', 'e2'], None, 22)}"
24,273,4.0,35.0,4.0,7.0,10.0,11.0,8.0,23.0,16.0,14.0,14.0,14.0,6.0,9.0,1.0,2.0,4.0,4.123105625617661,4.0,16.0,14.0,16.0312195418814,"{'neutral': (['m1', 'm3', 'm12', 'e1', 'e2'], None, 22)}"
25,274,4.0,34.0,4.0,8.0,9.055385138137416,10.0,8.0,24.0,16.0,14.0,13.0,13.0,5.0,11.0,3.0,1.0,5.0,5.0,5.0,16.0,15.0,15.0,"{'neutral': (['m1', 'm3', 'm12', 'e1', 'e2'], None, 22)}"
26,275,4.0,34.0,4.0,8.0,9.0,11.0,8.0,24.0,16.0,14.0,13.0,13.0,5.0,11.0,3.0,2.0,4.0,5.0,4.5,17.0,15.0,15.0,"{'neutral': (['m1', 'm3', 'm12', 'e1', 'e2'], None, 22)}"
27,276,4.0,33.015148038438355,5.0,8.0,9.0,10.04987562112089,8.0,25.0,17.0,15.0,14.0,13.0,5.5,11.5,3.5,1.5,5.0,5.0,5.0,17.0,15.0,16.0,"{'neutral': (['m1', 'm3', 'm12', 'e1', 'e2'], None, 22)}"
28,277,5.0,33.015148038438355,4.0,8.06225774829855,9.0,11.0,8.0,25.019992006393608,17.0,14.5,14.0,13.0,5.5,11.5,3.5,2.5,5.0990195135927845,4.123105625617661,4.0,17.0,15.0,16.0,"{'neutral': (['m1', 'm3', 'm12', 'e1', 'e2'], None, 22)}"
29,278,5.0,32.0,5.0,8.0,10.0,10.04987562112089,8.0,26.0,18.0,15.5,14.0,14.0,6.0,12.0,4.0,2.0,5.0,5.0990195135927845,5.0,18.0,15.0,15.033296378372908,"{'neutral': (['m1', 'm3', 'm12', 'e1', 'e2'], None, 22)}"
30,279,6.0,32.0,4.123105625617661,7.0,9.0,10.0,8.0,25.019992006393608,18.027756377319943,15.0,14.0,14.0,6.0,11.0,4.0,2.0,4.123105625617661,4.0,4.0,18.0,16.0,15.0,"{'neutral': (['m1', 'm3', 'm12', 'e1', 'e2'], None, 22)}"
31,280,6.082762530298219,32.01562118716424,5.0,7.0,9.0,10.0,8.0,26.019223662515376,19.026297590440446,16.0,14.0,15.0,6.5,11.5,3.5,2.5,4.0,4.0,4.0,17.0,15.0,14.0,"{'neutral': (['m1', 'm3', 'm12', 'e1', 'e2'], None, 22)}"
32,281,2.0,32.0,5.0990195135927845,9.0,9.0,10.0,8.0,24.020824298928627,15.033296378372908,14.0,14.0,14.0,6.0,10.0,1.0,1.0,4.123105625617661,5.0,5.0,16.0,14.0,14.0,"{'neutral': (['m1', 'm3', 'm12', 'e1', 'e2'], None, 22)}"
33,282,0.0,32.0,5.0,9.0,9.0,9.0,9.0,23.0,14.0,14.0,14.0,14.0,5.0,9.0,0.0,0.0,4.123105625617661,4.0,4.5,16.0,14.0,14.0356688476182,{}
34,283,0.0,31.016124838541646,4.0,8.06225774829855,9.0,10.0,10.0,22.02271554554524,14.0,14.0,14.0,13.0,3.5,8.5,0.5,0.5,4.0,5.0,5.0,16.0,14.0,15.033296378372908,{}
35,284,1.4142135623730951,32.01562118716424,5.0,9.0,9.055385138137416,9.0,9.0,24.020824298928627,15.033296378372908,14.5,14.0,13.0,4.5,10.5,1.5,0.5,5.0990195135927845,5.0,5.0,17.0,14.0,14.0356688476182,{}
36,285,2.0,32.0,5.0990195135927845,8.06225774829855,9.0,10.0,9.0,24.08318915758459,16.0312195418814,15.0,14.0,14.0,5.0,10.0,2.0,0.0,5.0,4.0,4.0,18.0,15.0,14.0356688476182,{}
37,286,4.0,32.01562118716424,5.0990195135927845,8.06225774829855,8.0,10.0,8.0,25.079872407968907,17.029386365926403,15.0,14.0,13.0,5.5,11.5,2.5,0.5,5.0990195135927845,4.0,4.5,20.0,16.0,16.0,{}
38,287,4.0,32.01562118716424,5.0990195135927845,8.06225774829855,8.0,10.0,8.0,25.079872407968907,17.029386365926403,15.0,14.0,13.0,5.5,11.5,2.5,0.5,5.0990195135927845,4.0,4.5,20.0,16.0,16.0,{}
39,288,6.082762530298219,31.0,4.123105625617661,8.0,9.0,10.0,9.0,27.073972741361768,19.1049731745428,16.0,14.0,14.0,5.0,13.0,5.0,1.0,5.0990195135927845,5.0990195135927845,5.0,18.0,15.0,13.038404810405298,{}
40,289,6.082762530298219,31.0,4.123105625617661,8.0,9.0,11.0,8.0,26.0768096208106,18.110770276274835,15.0,14.0,14.0,6.0,12.0,3.0,2.0,5.0990195135927845,4.0,4.0,19.0,16.0,14.0356688476182,{}
41,290,4.123105625617661,32.0,5.0990195135927845,9.0,10.0,11.0,7.0,25.079872407968907,16.1245154965971,14.0,14.0,14.0,7.0,11.0,2.0,2.0,4.123105625617661,4.0,4.0,19.0,15.0,14.0,{}
42,291,3.1622776601683795,31.0,5.0990195135927845,9.0,9.0,11.0,8.0,25.079872407968907,16.1245154965971,14.5,14.0,14.0,6.0,11.0,2.0,2.0,4.0,4.0,4.5,19.0,15.0,14.0,{}
43,292,5.0990195135927845,30.0,4.0,8.06225774829855,9.0,10.0,8.0,25.079872407968907,17.029386365926403,14.5,14.0,14.0,6.0,11.0,2.0,2.0,5.0990195135927845,4.0,4.0,19.0,15.0,13.038404810405298,{}
44,293,2.23606797749979,31.0,5.0,9.0,9.0,11.0,8.0,24.020824298928627,15.033296378372908,14.0,15.0,15.0,7.0,9.0,0.0,2.0,5.0,4.0,4.5,18.0,15.0,14.0356688476182,{}
45,294,1.0,31.0,5.0990195135927845,9.055385138137416,9.0,10.0,8.06225774829855,23.021728866442675,14.0,13.5,14.0,14.0,6.0,9.0,1.0,2.0,5.0990195135927845,5.0,5.0,19.0,15.0,14.0356688476182,{}
46,295,1.0,31.0,5.0990195135927845,9.055385138137416,9.0,10.0,8.06225774829855,23.021728866442675,14.0,13.5,14.0,14.0,6.0,9.0,1.0,2.0,5.0990195135927845,5.0,5.0,19.0,15.0,14.0356688476182,{}
47,296,3.1622776601683795,32.01562118716424,5.0,9.055385138137416,10.0,11.0,7.0,24.08318915758459,15.033296378372908,13.5,14.0,15.0,7.5,9.5,0.5,2.5,5.0990195135927845,5.0,5.0,20.0,16.0,15.033296378372908,{}
48,297,2.0,33.015148038438355,4.0,8.0,10.0,11.0,8.0,22.0,14.0,13.0,13.0,14.0,5.5,8.5,0.5,2.5,5.0990195135927845,5.0,4.5,19.0,15.0,15.033296378372908,{}
49,298,4.0,32.01562118716424,4.0,8.0,9.055385138137416,10.0,7.0,23.0,15.0,13.0,13.0,14.0,6.5,9.5,0.5,2.5,6.082762530298219,5.0,5.0,21.0,16.0,16.0312195418814,{}
50,299,4.0,32.01562118716424,4.0,8.0,9.055385138137416,10.0,7.0,23.0,15.0,13.0,13.0,14.0,6.5,9.5,0.5,2.5,6.082762530298219,5.0,5.0,21.0,16.0,16.0312195418814,{}
51,300,1.0,34.0,4.0,9.0,9.0,10.0,10.0,23.021728866442675,14.0356688476182,14.0,14.0,14.0,4.0,9.0,0.0,1.0,5.0,4.0,4.0,19.0,14.0,16.0312195418814,{}
52,301,1.4142135623730951,34.0,4.0,9.0,9.0,10.0,9.0,23.021728866442675,14.0356688476182,13.5,14.0,14.0,5.0,9.0,0.0,1.0,4.123105625617661,4.0,4.0,20.0,16.0,16.1245154965971,{}
53,302,1.4142135623730951,35.0142828000232,5.0,8.0,9.0,10.04987562112089,8.06225774829855,22.0,14.0,13.5,14.0,13.0,5.5,8.5,0.5,1.5,5.0,4.123105625617661,4.0,20.0,15.0,16.0,{}
54,303,1.4142135623730951,35.0142828000232,5.0,8.0,9.0,10.04987562112089,8.06225774829855,22.0,14.0,13.5,14.0,13.0,5.5,8.5,0.5,1.5,5.0,4.123105625617661,4.0,20.0,15.0,16.0,{}
55,304,2.23606797749979,36.0,5.0,8.0,10.0,11.0,7.0,22.02271554554524,14.0356688476182,13.0,13.0,13.0,6.0,9.0,1.0,1.0,6.0,4.123105625617661,4.5,20.0,17.0,16.0312195418814,{}
56,305,1.0,35.0142828000232,5.0,9.055385138137416,11.04536101718726,11.0,8.06225774829855,23.0,14.0356688476182,13.5,15.0,14.0,6.5,8.5,0.5,2.5,5.0990195135927845,5.0,5.0,19.0,17.0,19.026297590440446,{}
57,306,2.0,34.0147027033899,6.0,9.0,10.04987562112089,11.04536101718726,7.0,24.0,15.0,14.0,15.0,14.0,7.5,9.5,0.5,2.5,5.0,5.0,5.0,19.0,18.0,18.0,{}
58,307,2.23606797749979,35.0142828000232,6.0,9.0,10.0,11.04536101718726,7.0,24.020824298928627,15.033296378372908,14.0,15.0,14.0,7.5,9.5,0.5,2.5,5.0,5.0990195135927845,5.0,20.0,18.0,17.029386365926403,{}
59,308,1.0,32.0624390837628,6.0,10.0,9.055385138137416,11.04536101718726,8.246211251235321,25.079872407968907,15.132745950421556,14.5,18.0,16.0,9.0,8.0,2.0,4.0,6.0,5.0,5.0,19.0,19.0,19.026297590440446,{}
60,309,2.0,31.064449134018133,5.0,9.0,10.04987562112089,10.04987562112089,8.06225774829855,24.020824298928627,15.033296378372908,14.0,17.0,15.0,8.0,8.0,2.0,4.0,6.0,5.0990195135927845,5.5,18.0,19.0,17.029386365926403,{}
61,310,2.0,29.27456233660889,5.0,9.055385138137416,8.06225774829855,9.219544457292889,8.06225774829855,24.08318915758459,15.033296378372908,14.0,18.0,14.0,8.0,8.0,1.0,4.0,6.0,6.0,5.5,18.0,19.0,16.0312195418814,{}
62,311,2.0,30.14962686336267,5.0,9.0,8.06225774829855,9.219544457292889,9.055385138137416,25.019992006393608,16.0312195418814,15.0,18.0,15.0,7.5,8.5,0.5,3.5,6.0,6.0,5.5,18.0,19.0,16.0312195418814,{}
63,312,1.0,30.14962686336267,5.0,9.0,8.06225774829855,9.055385138137416,8.06225774829855,23.021728866442675,14.0356688476182,13.5,17.0,14.0,7.5,7.5,1.5,3.5,5.0,6.082762530298219,5.5,16.0,18.0,17.0,{}
64,313,2.0,30.26549190084312,5.0,8.0,9.055385138137416,10.198039027185567,9.055385138137416,24.020824298928627,16.0312195418814,15.0,18.0,14.0,7.0,8.0,0.0,3.0,6.0,5.0990195135927845,5.5,16.0,17.0,16.0,{}
65,314,2.0,30.14962686336267,5.0,9.0,8.06225774829855,9.055385138137416,9.055385138137416,25.019992006393608,16.0312195418814,15.0,17.0,14.0,6.5,9.5,0.5,2.5,6.0,6.0,5.5,16.0,19.0,15.033296378372908,{}
66,315,2.0,30.14962686336267,5.0,9.0,8.06225774829855,9.055385138137416,9.055385138137416,25.019992006393608,16.0312195418814,15.0,17.0,14.0,6.5,9.5,0.5,2.5,5.0,5.0,5.0,16.0,18.0,15.0,{}
67,316,3.1622776601683795,33.24154027718932,4.0,8.0,9.055385138137416,10.04987562112089,9.0,24.020824298928627,16.0312195418814,14.5,15.0,11.0,4.0,11.0,3.0,1.0,6.0,5.0990195135927845,5.0,16.0,19.0,16.0312195418814,{}
68,317,3.0,34.23448553724738,5.0,8.06225774829855,10.198039027185567,11.180339887498947,8.0,24.020824298928627,16.0,14.5,14.0,10.0,4.0,12.0,4.0,1.0,5.0,4.123105625617661,4.5,17.0,18.0,16.0312195418814,{}
69,318,6.082762530298219,36.12478373637688,4.123105625617661,8.06225774829855,9.219544457292889,11.180339887498947,8.0,26.019223662515376,18.0,15.0,14.0,11.0,4.5,13.5,5.5,1.5,5.0,5.0990195135927845,4.5,18.0,18.0,19.026297590440446,{}
70,319,6.082762530298219,36.12478373637688,4.123105625617661,8.06225774829855,9.219544457292889,11.180339887498947,8.0,26.019223662515376,18.0,15.0,14.0,11.0,4.5,13.5,5.5,1.5,5.0,5.0990195135927845,4.5,18.0,18.0,19.026297590440446,{}
71,320,4.0,35.12833614050059,3.0,7.0,9.055385138137416,11.180339887498947,8.06225774829855,22.02271554554524,15.033296378372908,13.0,13.0,10.0,3.5,10.5,3.5,1.5,5.0990195135927845,5.0990195135927845,5.0,17.0,18.0,16.0,{}
72,321,4.123105625617661,34.132096331752024,4.0,7.0,10.04987562112089,10.04987562112089,8.0,23.021728866442675,16.0312195418814,14.0,14.0,11.0,4.5,10.5,3.5,1.5,5.0,4.123105625617661,4.5,18.0,19.0,16.0,{}
73,322,1.0,33.13608305156178,5.0990195135927845,8.0,9.055385138137416,10.04987562112089,8.06225774829855,22.09072203437452,14.142135623730953,13.5,15.0,12.0,5.5,8.5,0.5,1.5,5.0,6.082762530298219,5.5,19.0,18.0,17.0,{}
74,323,1.0,33.13608305156178,5.0990195135927845,8.0,9.055385138137416,10.04987562112089,8.06225774829855,22.09072203437452,14.142135623730953,13.5,15.0,12.0,5.5,8.5,0.5,1.5,5.0,6.082762530298219,5.5,19.0,18.0,17.0,{}
75,324,0.0,33.13608305156178,4.123105625617661,9.055385138137416,9.055385138137416,10.04987562112089,9.219544457292889,22.09072203437452,13.038404810405298,13.0,15.0,12.0,4.5,8.5,0.5,1.5,6.0,4.123105625617661,4.5,20.0,18.0,16.0312195418814,{}
76,325,1.0,33.24154027718932,5.0,8.0,9.055385138137416,10.04987562112089,8.06225774829855,22.02271554554524,14.0356688476182,13.5,16.0,12.0,6.0,8.0,0.0,2.0,5.0,5.0,5.0,18.0,19.0,16.0312195418814,{}
77,326,1.0,33.13608305156178,4.0,8.0,9.055385138137416,10.04987562112089,9.055385138137416,22.02271554554524,14.0356688476182,13.5,15.0,12.0,4.5,8.5,0.5,1.5,6.0,5.0,5.0,16.0,17.0,15.0,{}
78,327,1.0,33.13608305156178,4.0,8.0,9.055385138137416,10.04987562112089,9.055385138137416,22.02271554554524,14.0356688476182,13.5,15.0,12.0,4.5,8.5,0.5,1.5,6.0,5.0,5.0,16.0,17.0,15.0,{}
79,328,0.0,34.132096331752024,5.0,8.0,10.04987562112089,11.04536101718726,9.055385138137416,22.02271554554524,14.0356688476182,14.0,15.0,12.0,4.5,8.5,0.5,1.5,5.0,5.0,5.0,17.0,18.0,16.0312195418814,{}
80,329,3.0,33.13608305156178,4.0,8.06225774829855,9.055385138137416,10.198039027185567,8.0,23.021728866442675,15.0,13.5,14.0,11.0,4.5,10.5,1.5,1.5,5.0,5.0,5.0,17.0,17.0,16.0312195418814,{}
81,330,4.0,35.12833614050059,4.0,7.0,10.04987562112089,11.04536101718726,8.06225774829855,23.021728866442675,16.0312195418814,14.0,14.0,11.0,4.5,10.5,3.5,1.5,5.0,5.0,5.0,18.0,18.0,16.0312195418814,{}
82,331,4.0,35.12833614050059,4.0,7.0,10.04987562112089,11.04536101718726,8.06225774829855,23.021728866442675,16.0312195418814,14.0,14.0,11.0,4.5,10.5,3.5,1.5,5.0,5.0,5.0,18.0,18.0,16.0312195418814,{}
83,332,3.0,35.12833614050059,4.0,8.0,10.04987562112089,11.180339887498947,8.0,23.0,15.0,13.5,14.0,11.0,4.5,10.5,2.5,1.5,5.0,5.0,5.0,17.0,17.0,15.033296378372908,{}
84,333,2.23606797749979,35.05709628591621,5.0,9.055385138137416,9.0,11.04536101718726,7.071067811865476,23.021728866442675,14.0,13.0,14.0,12.0,6.0,10.0,1.0,1.0,5.0,5.0,5.0,16.0,17.0,17.029386365926403,{}
85,334,2.23606797749979,34.132096331752024,5.0,8.06225774829855,10.198039027185567,11.04536101718726,8.06225774829855,23.021728866442675,15.0,14.0,15.0,12.0,5.5,9.5,1.5,2.5,6.0,5.0990195135927845,5.0,17.0,18.0,17.029386365926403,{}
86,335,2.23606797749979,34.132096331752024,5.0,8.06225774829855,10.198039027185567,11.04536101718726,8.06225774829855,23.021728866442675,15.0,14.0,15.0,12.0,5.5,9.5,1.5,2.5,6.0,5.0990195135927845,5.0,17.0,18.0,17.029386365926403,{}
87,336,2.0,33.13608305156178,5.0,9.0,9.055385138137416,10.04987562112089,8.06225774829855,24.020824298928627,15.033296378372908,14.0,16.0,13.0,6.5,9.5,0.5,2.5,5.0,5.0,5.0,16.0,18.0,16.0,{}
88,337,2.0,32.2490309931942,5.0,8.06225774829855,9.0,11.04536101718726,8.06225774829855,23.08679276123039,15.033296378372908,14.0,16.0,12.0,6.0,9.0,0.0,2.0,5.0,5.0990195135927845,5.0,16.0,18.0,15.033296378372908,{}
89,338,2.0,34.23448553724738,4.0,9.0,9.055385138137416,10.198039027185567,9.055385138137416,24.020824298928627,15.033296378372908,14.0,16.0,12.0,5.0,10.0,1.0,2.0,5.0,5.0990195135927845,5.5,17.0,18.0,16.0312195418814,{}
90,339,2.0,34.23448553724738,4.0,9.0,9.055385138137416,10.198039027185567,9.055385138137416,24.020824298928627,15.033296378372908,14.0,16.0,12.0,5.0,10.0,1.0,2.0,5.0,5.0990195135927845,5.5,17.0,18.0,16.0312195418814,{}
91,340,4.0,35.12833614050059,4.0,8.0,10.0,11.04536101718726,8.0,24.0,16.0,14.0,15.0,12.0,5.5,10.5,2.5,2.5,5.0,4.0,4.5,17.0,18.0,15.033296378372908,{}
92,341,1.4142135623730951,34.132096331752024,5.0,9.055385138137416,10.04987562112089,11.180339887498947,8.06225774829855,23.021728866442675,14.0,13.5,15.0,12.0,5.5,9.5,0.5,1.5,6.0,5.0990195135927845,5.0,16.0,17.0,15.033296378372908,{}
93,342,1.0,35.12833614050059,4.0,8.06225774829855,9.055385138137416,10.0,8.06225774829855,21.095023109728988,13.038404810405298,12.5,14.0,11.0,4.5,8.5,0.5,1.5,5.0990195135927845,5.0990195135927845,4.5,17.0,17.0,17.029386365926403,{}
94,343,0.0,34.132096331752024,4.0,8.0,10.04987562112089,10.04987562112089,9.055385138137416,21.02379604162864,13.038404810405298,13.0,15.0,12.0,4.5,7.5,0.5,1.5,5.0,5.0,5.0,17.0,17.0,17.0,{}
95,344,2.0,36.05551275463989,4.0,8.06225774829855,10.04987562112089,11.180339887498947,9.0,23.021728866442675,15.0,14.0,14.0,12.0,4.0,10.0,1.0,1.0,6.0,5.0,5.0,16.0,17.0,16.0312195418814,{}
96,345,5.0,35.05709628591621,4.0,8.0,10.0,10.04987562112089,9.0,26.0,18.0,15.5,14.0,12.0,4.0,13.0,4.0,0.0,5.0990195135927845,5.0990195135927845,5.0,18.0,18.0,17.029386365926403,{}
97,346,6.082762530298219,35.05709628591621,4.0,8.06225774829855,9.0,11.0,8.06225774829855,26.019223662515376,18.0,15.0,14.0,12.0,5.0,13.0,5.0,1.0,5.0,5.0,5.0,18.0,17.0,16.0,{}
98,347,6.082762530298219,35.05709628591621,4.0,8.06225774829855,9.0,11.0,8.06225774829855,26.019223662515376,18.0,15.0,14.0,12.0,5.0,13.0,5.0,1.0,5.0,5.0,5.0,18.0,17.0,16.0,{}
99,348,1.4142135623730951,35.05709628591621,4.123105625617661,7.0,9.055385138137416,9.055385138137416,11.0,23.0,16.0,15.5,15.0,13.0,3.0,9.0,2.0,0.0,6.082762530298219,5.0,5.0,18.0,17.0,17.029386365926403,{}
100,349,0.0,36.12478373637688,5.0,8.06225774829855,10.0,10.04987562112089,10.0,23.021728866442675,15.0,15.0,15.0,12.0,3.5,9.5,1.5,0.5,6.0,5.0,5.0,17.0,17.0,17.029386365926403,{}
101,350,0.0,35.05709628591621,4.0,8.0,9.055385138137416,10.04987562112089,11.0,23.0,15.0,15.0,15.0,13.0,3.0,9.0,1.0,0.0,5.0,5.0990195135927845,5.0,18.0,17.0,17.029386365926403,{}
102,351,0.0,35.05709628591621,5.0,9.0,9.055385138137416,10.04987562112089,11.0,25.0,16.0,16.0,16.0,14.0,4.0,10.0,1.0,0.0,6.0,5.0990195135927845,5.0,19.0,18.0,17.029386365926403,{}
103,352,2.0,34.23448553724738,5.0,8.06225774829855,9.055385138137416,10.04987562112089,9.0,24.020824298928627,16.0,15.0,16.0,12.0,5.0,10.0,2.0,1.0,6.0,5.0990195135927845,5.5,18.0,18.0,17.029386365926403,{}
104,353,3.1622776601683795,34.058772731852805,4.0,8.06225774829855,9.055385138137416,11.04536101718726,9.055385138137416,24.020824298928627,16.0,14.5,15.0,13.0,5.0,10.0,2.0,2.0,5.0,5.0990195135927845,4.5,16.0,17.0,17.11724276862369,{}
105,354,3.0,34.132096331752024,4.0,8.0,10.04987562112089,10.04987562112089,9.0,24.0,16.0,14.5,15.0,12.0,4.5,10.5,1.5,1.5,5.0,5.0990195135927845,5.0,15.0,17.0,16.0312195418814,{}
106,355,3.0,34.132096331752024,4.0,8.0,10.04987562112089,10.04987562112089,9.0,24.0,16.0,14.5,15.0,12.0,4.5,10.5,1.5,1.5,5.0,5.0990195135927845,5.0,15.0,17.0,16.0312195418814,{}
107,356,1.4142135623730951,34.058772731852805,4.123105625617661,7.0,10.0,10.04987562112089,9.0,21.0,14.0,13.5,15.0,13.0,5.0,7.0,0.0,1.0,5.0990195135927845,5.0990195135927845,5.0,15.0,16.0,16.0312195418814,{}
108,357,0.0,32.0624390837628,4.0,8.0,8.06225774829855,10.04987562112089,10.0,22.0,14.0,14.0,15.0,13.0,4.0,8.0,0.0,1.0,6.082762530298219,5.0990195135927845,5.0,17.0,17.0,18.110770276274835,{}
109,358,0.0,34.058772731852805,4.0,8.0,10.04987562112089,10.04987562112089,10.0,22.0,14.0,14.0,15.0,13.0,4.0,8.0,0.0,1.0,5.0990195135927845,5.0990195135927845,5.0,17.0,16.0,16.0312195418814,{}
110,359,0.0,34.058772731852805,4.0,8.0,10.04987562112089,10.0,10.0,22.0,14.0,14.0,15.0,13.0,4.0,8.0,0.0,1.0,5.0990195135927845,5.0990195135927845,5.0,18.0,17.0,17.029386365926403,{}
111,360,2.0,35.05709628591621,4.0,8.06225774829855,9.055385138137416,11.04536101718726,10.0,24.020824298928627,16.0,15.0,16.0,14.0,5.0,9.0,1.0,2.0,5.0,4.0,4.0,17.0,17.0,16.1245154965971,{}
112,361,2.0,35.05709628591621,5.0,9.0,10.04987562112089,10.04987562112089,9.055385138137416,25.019992006393608,16.0312195418814,15.0,16.0,14.0,6.0,10.0,1.0,2.0,4.0,4.0,4.0,17.0,16.0,15.033296378372908,{}
113,362,2.0,34.058772731852805,4.123105625617661,8.0,9.055385138137416,11.04536101718726,9.055385138137416,23.0,15.0,14.0,15.0,13.0,5.0,9.0,1.0,2.0,5.0,4.123105625617661,4.0,16.0,16.0,15.033296378372908,{}
114,363,3.0,34.058772731852805,5.0,8.0,9.055385138137416,10.04987562112089,8.06225774829855,24.020824298928627,16.0312195418814,14.5,15.0,13.0,6.0,10.0,2.0,2.0,4.0,4.123105625617661,4.0,17.0,17.0,15.0,{}
115,364,5.0,32.0624390837628,4.0,8.0,9.0,10.04987562112089,8.06225774829855,25.019992006393608,17.029386365926403,14.5,14.0,12.0,5.0,12.0,4.0,1.0,5.0,4.123105625617661,4.5,18.0,18.0,16.0312195418814,{}
116,365,2.0,33.13608305156178,4.0,8.0,9.0,10.04987562112089,9.055385138137416,23.021728866442675,15.033296378372908,14.0,15.0,12.0,4.5,9.5,1.5,0.5,5.0990195135927845,5.0990195135927845,5.0,17.0,17.0,16.0312195418814,{}
117,366,1.4142135623730951,33.13608305156178,4.0,7.0,10.04987562112089,10.198039027185567,8.06225774829855,20.09975124224178,13.152946437965904,12.5,15.0,12.0,5.5,6.5,0.5,2.5,5.0,5.0990195135927845,4.5,17.0,17.0,15.033296378372908,{}
118,367,1.0,31.25699921617557,4.123105625617661,8.0,9.0,10.04987562112089,8.06225774829855,21.095023109728988,13.152946437965904,12.5,15.0,11.0,5.0,8.0,0.0,1.0,5.0990195135927845,5.0990195135927845,5.0,18.0,18.0,15.033296378372908,{}
119,368,2.23606797749979,33.13608305156178,5.0990195135927845,8.06225774829855,10.0,11.04536101718726,7.0,22.02271554554524,14.0,13.0,14.0,11.0,5.5,9.5,1.5,1.5,5.0,5.0,5.0,15.0,16.0,16.1245154965971,{}
120,369,3.0,33.24154027718932,4.0,8.0,10.04987562112089,11.04536101718726,8.0,23.0,15.0,13.5,15.0,11.0,5.0,10.0,2.0,2.0,5.0,4.123105625617661,4.5,15.0,16.0,16.1245154965971,{}
121,370,5.0990195135927845,33.13608305156178,5.0,8.0,10.04987562112089,11.04536101718726,7.071067811865476,25.0,17.0,14.5,15.0,12.0,6.5,11.5,3.5,2.5,5.0,5.0990195135927845,5.0,15.0,17.0,15.132745950421556,{}
122,371,5.0990195135927845,33.13608305156178,5.0,8.0,10.04987562112089,11.04536101718726,7.071067811865476,25.0,17.0,14.5,15.0,12.0,6.5,11.5,3.5,2.5,5.0,5.0990195135927845,5.0,15.0,17.0,15.132745950421556,{}
123,372,9.055385138137416,32.14031735997639,4.0,8.06225774829855,9.055385138137416,11.180339887498947,8.0,29.0,21.02379604162864,16.5,15.0,12.0,5.5,15.5,7.5,2.5,6.0,5.0990195135927845,5.0,16.0,17.0,15.033296378372908,{}
124,373,10.0,33.13608305156178,4.123105625617661,9.0,9.055385138137416,11.04536101718726,7.0,30.01666203960727,21.02379604162864,16.0,13.0,10.0,4.5,18.5,9.5,1.5,5.0,5.0990195135927845,5.5,14.0,16.0,15.132745950421556,{}
125,374,9.055385138137416,33.13608305156178,3.0,8.0,9.055385138137416,10.04987562112089,7.0,27.018512172212592,19.026297590440446,14.5,12.0,9.0,3.5,16.5,8.5,1.5,5.0,5.0990195135927845,5.0,14.0,16.0,15.132745950421556,{}
126,375,9.055385138137416,33.13608305156178,3.0,8.0,9.055385138137416,10.04987562112089,7.0,27.018512172212592,19.026297590440446,14.5,12.0,9.0,3.5,16.5,8.5,1.5,5.0,5.0990195135927845,5.0,14.0,16.0,15.132745950421556,{}
127,376,5.0,33.24154027718932,2.23606797749979,7.0,9.055385138137416,10.198039027185567,7.071067811865476,21.0,14.0,11.5,10.0,6.0,1.0,13.0,6.0,0.0,4.0,4.0,4.0,13.0,15.0,13.038404810405298,{}
128,377,5.0990195135927845,32.2490309931942,2.0,6.0,9.055385138137416,10.198039027185567,6.082762530298219,19.0,13.0,10.5,9.0,5.0,1.0,12.0,6.0,0.0,4.123105625617661,4.0,4.0,13.0,15.0,12.041594578792296,{}
129,378,5.0,32.38826948140329,2.0,6.082762530298219,9.055385138137416,10.198039027185567,6.0,19.026297590440446,13.0,10.5,9.0,4.0,0.5,12.5,6.5,0.5,5.0,5.0990195135927845,4.5,12.0,14.0,14.142135623730953,{}
130,379,5.0,32.2490309931942,2.23606797749979,6.082762530298219,9.055385138137416,10.198039027185567,6.082762530298219,19.026297590440446,13.0,10.5,9.0,5.0,1.0,12.0,6.0,0.0,5.0,5.0990195135927845,5.0,12.0,15.0,13.152946437965904,{}
131,380,4.0,31.25699921617557,2.0,6.082762530298219,8.06225774829855,9.219544457292889,5.0990195135927845,17.0,11.04536101718726,9.0,7.0,3.0,0.0,12.0,6.0,1.0,5.0990195135927845,4.0,4.0,13.0,15.0,13.152946437965904,{}
132,381,4.0,31.25699921617557,2.0,6.0,9.055385138137416,10.198039027185567,5.0,17.0,11.0,9.0,7.0,3.0,0.0,12.0,6.0,1.0,4.0,4.123105625617661,3.5,12.0,14.0,13.152946437965904,{}
133,382,4.0,30.26549190084312,1.0,5.0990195135927845,9.055385138137416,10.198039027185567,7.071067811865476,17.0,12.041594578792296,10.0,8.0,4.0,1.0,11.0,6.0,1.0,4.0,4.123105625617661,4.0,12.0,15.0,13.152946437965904,{}
134,383,4.0,30.26549190084312,1.0,5.0990195135927845,9.055385138137416,10.198039027185567,7.071067811865476,17.0,12.041594578792296,10.0,8.0,4.0,1.0,11.0,6.0,1.0,4.0,4.123105625617661,4.0,12.0,15.0,13.152946437965904,{}
135,384,4.0,30.26549190084312,2.0,7.0,9.055385138137416,10.198039027185567,6.0,19.0,12.0,10.0,8.0,4.0,0.0,13.0,6.0,1.0,4.0,4.0,4.0,13.0,15.0,15.132745950421556,{}
136,385,4.0,30.14962686336267,2.0,6.082762530298219,9.055385138137416,9.219544457292889,6.082762530298219,18.0,12.041594578792296,10.0,8.0,5.0,0.5,11.5,6.5,0.5,4.123105625617661,4.0,4.0,11.0,13.0,14.142135623730953,{}
137,386,5.0,31.14482300479488,2.0,6.0,9.055385138137416,9.219544457292889,6.0,19.0,13.0,10.5,8.0,5.0,0.5,12.5,6.5,0.5,4.123105625617661,4.0,4.0,12.0,14.0,14.142135623730953,{}
138,387,5.0,31.14482300479488,2.0,5.0,9.055385138137416,9.055385138137416,6.0,18.0,13.0,10.5,9.0,6.0,1.5,10.5,5.5,0.5,5.0,4.123105625617661,4.0,12.0,14.0,15.132745950421556,{}
139,388,6.0,32.0624390837628,3.0,5.0,8.06225774829855,10.198039027185567,7.071067811865476,21.02379604162864,16.0312195418814,13.0,10.0,8.0,2.0,12.0,7.0,0.0,4.0,5.0990195135927845,5.0,13.0,15.0,15.132745950421556,{}
140,389,5.0,32.0624390837628,3.0,5.0,8.06225774829855,10.04987562112089,8.06225774829855,21.02379604162864,16.0312195418814,13.5,12.0,10.0,3.0,10.0,5.0,1.0,5.0,4.0,4.5,12.0,14.0,15.132745950421556,{}
141,390,4.0,29.068883707497267,3.0,5.0,9.0,10.04987562112089,9.0,21.0,16.0,14.0,12.0,10.0,2.0,10.0,5.0,0.0,5.0990195135927845,5.0990195135927845,5.0,13.0,14.0,14.142135623730953,{}
142,391,4.0,29.068883707497267,3.0,5.0,9.0,10.04987562112089,9.0,21.0,16.0,14.0,12.0,10.0,2.0,10.0,5.0,0.0,5.0990195135927845,5.0990195135927845,5.0,13.0,14.0,14.142135623730953,{}
143,392,3.0,31.064449134018133,2.0,6.0,9.055385138137416,9.055385138137416,9.0,20.0,14.0,12.5,12.0,10.0,2.0,9.0,3.0,1.0,4.0,3.0,3.5,14.0,15.0,16.0,{}
144,393,1.0,30.066592756745816,3.0,6.0,8.06225774829855,9.055385138137416,9.0,19.0,13.0,12.5,13.0,11.0,3.0,7.0,1.0,1.0,4.0,3.0,3.0,15.0,15.0,16.0312195418814,{}
145,394,1.0,28.0178514522438,3.0,7.0,8.0,9.0,8.0,19.0,12.0,11.5,12.0,11.0,3.5,7.5,0.5,0.5,4.0,3.1622776601683795,3.0,14.0,14.0,16.0312195418814,{}
146,395,1.4142135623730951,29.017236257093817,3.0,7.0,9.0,9.0,8.0,19.026297590440446,12.041594578792296,11.5,12.0,11.0,3.5,7.5,0.5,0.5,4.0,3.1622776601683795,3.0,14.0,14.0,16.0312195418814,{}
147,396,0.0,30.066592756745816,4.0,6.0,8.0,9.055385138137416,8.0,18.0,12.0,12.0,13.0,11.0,4.0,6.0,0.0,1.0,4.0,4.0,4.0,14.0,14.0,15.033296378372908,{}
148,397,0.0,31.064449134018133,3.0,7.0,9.055385138137416,9.055385138137416,9.0,19.0,12.0,12.0,13.0,11.0,3.0,7.0,0.0,1.0,3.0,3.0,3.5,13.0,14.0,15.033296378372908,{}
149,398,1.0,31.064449134018133,3.0,8.0,8.0,10.0,8.0,20.0,12.0,11.5,12.0,10.0,3.0,9.0,1.0,0.0,4.0,4.0,4.0,15.0,15.0,15.033296378372908,{}
150,399,2.0,31.064449134018133,4.0,7.0,9.055385138137416,10.0,7.0,20.0,13.0,12.0,12.0,10.0,4.0,9.0,1.0,1.0,4.0,3.1622776601683795,3.5,14.0,14.0,15.0,{}
151,400,4.0,32.01562118716424,2.0,6.0,9.055385138137416,10.04987562112089,8.0,20.0,14.0,12.0,12.0,11.0,3.5,8.5,2.5,2.5,4.0,4.0,4.0,14.0,14.0,15.033296378372908,{}
152,401,4.0,31.016124838541646,2.0,7.0,9.0,10.04987562112089,8.0,21.0,14.0,12.0,12.0,11.0,3.5,9.5,2.5,1.5,4.123105625617661,4.0,4.0,14.0,14.0,15.033296378372908,{}
153,402,4.0,30.01666203960727,3.0,7.0,9.0,10.04987562112089,8.0,22.0,15.0,13.0,12.0,11.0,3.5,10.5,3.5,0.5,4.0,4.0,4.0,14.0,14.0,15.033296378372908,{}
154,403,4.0,30.0,3.0,7.0,9.0,10.04987562112089,8.0,22.0,15.0,13.0,12.0,12.0,4.0,10.0,3.0,1.0,5.0990195135927845,4.0,4.0,14.0,14.0,16.0,{}
155,404,1.0,29.0,4.0,8.06225774829855,9.0,9.0,7.0,20.024984394500787,12.0,11.5,11.0,11.0,4.0,9.0,1.0,0.0,5.0990195135927845,5.0,5.0,16.0,14.0,15.0,{}
156,405,1.0,29.0,4.123105625617661,8.0,8.0,9.0,8.0,21.02379604162864,13.038404810405298,12.5,12.0,12.0,4.0,9.0,1.0,1.0,4.0,4.0,4.0,15.0,14.0,16.0312195418814,{}
157,406,4.0,30.01666203960727,4.123105625617661,7.0,9.0,9.055385138137416,8.0,23.021728866442675,16.0312195418814,14.0,12.0,13.0,4.5,10.5,2.5,0.5,5.0,4.0,4.0,15.0,13.0,16.0312195418814,{}
158,407,3.0,30.01666203960727,4.123105625617661,8.06225774829855,8.0,9.055385138137416,8.0,23.08679276123039,15.033296378372908,13.5,12.0,13.0,4.5,10.5,2.5,0.5,4.0,4.123105625617661,4.0,15.0,13.0,16.0312195418814,{}
159,408,3.0,31.016124838541646,4.123105625617661,7.0,9.055385138137416,10.04987562112089,7.0,21.02379604162864,14.0356688476182,12.5,11.0,12.0,4.5,9.5,2.5,0.5,4.0,5.0,5.0,15.0,13.0,15.0,{}
160,409,3.0,32.0624390837628,4.123105625617661,7.0,9.055385138137416,10.04987562112089,7.0,21.02379604162864,14.0356688476182,12.5,11.0,13.0,5.0,9.0,1.0,1.0,5.0990195135927845,5.0,5.0,15.0,12.0,16.0312195418814,{}
161,410,4.0,30.066592756745816,3.1622776601683795,7.071067811865476,9.0,10.0,9.0,23.08679276123039,16.0312195418814,14.0,11.0,13.0,3.0,11.0,3.0,0.0,4.123105625617661,5.0,5.0,16.0,12.0,15.0,{}
162,411,3.1622776601683795,30.066592756745816,4.123105625617661,8.0,8.0,9.055385138137416,8.0,23.08679276123039,15.132745950421556,13.5,11.0,13.0,4.0,11.0,3.0,0.0,4.123105625617661,5.0,5.0,15.0,12.0,15.033296378372908,{}
163,412,1.0,30.066592756745816,3.0,7.071067811865476,8.0,9.0,9.219544457292889,20.223748416156685,13.152946437965904,12.5,10.0,12.0,2.0,9.0,1.0,1.0,5.0990195135927845,5.0990195135927845,5.0,17.0,13.0,14.0,{}
164,413,1.0,30.01666203960727,4.123105625617661,7.071067811865476,8.0,9.0,9.055385138137416,21.213203435596427,14.142135623730953,13.5,12.0,13.0,3.5,8.5,1.5,0.5,5.0990195135927845,5.0,5.0,16.0,12.0,13.0,{}
165,414,2.23606797749979,29.068883707497267,4.0,7.071067811865476,7.0,8.06225774829855,9.055385138137416,22.20360331117452,15.132745950421556,14.0,11.0,13.0,3.0,10.0,2.0,1.0,5.0990195135927845,4.0,4.5,15.0,12.0,14.0356688476182,{}
166,415,2.23606797749979,29.068883707497267,4.0,7.071067811865476,7.0,8.06225774829855,9.055385138137416,22.20360331117452,15.132745950421556,14.0,11.0,13.0,3.0,10.0,2.0,1.0,5.0990195135927845,4.0,4.5,15.0,12.0,14.0356688476182,{}
167,416,6.082762530298219,30.01666203960727,4.123105625617661,8.06225774829855,8.0,9.0,8.06225774829855,26.30589287593181,18.24828759089466,15.0,12.0,13.0,4.5,13.5,5.5,0.5,5.0990195135927845,5.0,5.0,16.0,12.0,14.0356688476182,{}
168,417,6.082762530298219,29.0,4.123105625617661,8.06225774829855,9.0,10.0,7.0,25.179356624028344,17.11724276862369,14.0,11.0,11.0,4.0,14.0,6.0,1.0,5.0990195135927845,4.0,4.5,16.0,13.0,14.0,{}
169,418,7.071067811865476,29.017236257093817,3.0,7.071067811865476,8.0,9.055385138137416,8.246211251235321,25.317977802344327,18.24828759089466,14.5,11.0,12.0,3.5,13.5,5.5,0.5,5.0990195135927845,5.0,5.0,16.0,13.0,14.0356688476182,{}
170,419,5.0990195135927845,29.017236257093817,4.0,8.06225774829855,8.0,9.055385138137416,8.246211251235321,25.317977802344327,17.26267650163207,14.5,11.0,12.0,3.5,13.5,5.5,0.5,5.0990195135927845,5.0,5.0,17.0,14.0,14.0356688476182,{}
171,420,5.0990195135927845,28.0178514522438,4.123105625617661,8.06225774829855,8.06225774829855,9.0,8.06225774829855,25.317977802344327,17.26267650163207,14.5,11.0,12.0,3.5,13.5,4.5,0.5,5.0990195135927845,4.123105625617661,4.5,15.0,13.0,13.038404810405298,{}
172,421,6.082762530298219,28.0178514522438,4.0,7.071067811865476,9.0,9.0,7.280109889280518,24.33105012119288,17.26267650163207,14.0,10.0,11.0,3.5,13.5,5.5,0.5,5.0990195135927845,5.0,5.0,15.0,13.0,14.0,{}
173,422,4.123105625617661,28.0,4.0,7.071067811865476,7.0,8.06225774829855,8.06225774829855,23.194827009486403,16.1245154965971,14.0,11.0,11.0,3.0,12.0,5.0,0.0,5.0990195135927845,5.0,5.0,15.0,13.0,14.0,{}
174,423,4.123105625617661,28.0,4.0,7.071067811865476,7.0,8.06225774829855,8.06225774829855,23.194827009486403,16.1245154965971,14.0,11.0,11.0,3.0,12.0,5.0,0.0,5.0990195135927845,5.0,5.0,15.0,13.0,14.0,{}
175,424,4.0,29.0,4.0,7.071067811865476,7.0,8.06225774829855,7.071067811865476,22.09072203437452,15.033296378372908,13.0,11.0,11.0,4.0,11.0,3.0,1.0,4.123105625617661,5.0,5.0,14.0,13.0,12.041594578792296,{}
176,425,1.0,30.01666203960727,4.0,7.071067811865476,8.0,9.055385138137416,7.280109889280518,19.235384061671343,12.16552506059644,11.5,10.0,9.0,2.5,9.5,2.5,0.5,5.0990195135927845,4.123105625617661,4.0,14.0,13.0,13.038404810405298,{}
177,426,1.0,29.017236257093817,3.0,8.06225774829855,8.0,9.055385138137416,9.055385138137416,21.095023109728988,13.038404810405298,12.5,12.0,11.0,2.5,9.5,1.5,0.5,5.0990195135927845,4.123105625617661,4.0,14.0,13.0,12.0,{}
178,427,1.0,29.017236257093817,3.0,8.06225774829855,8.0,9.055385138137416,9.055385138137416,21.095023109728988,13.038404810405298,12.5,12.0,11.0,2.5,9.5,1.5,0.5,5.0990195135927845,4.123105625617661,4.0,14.0,13.0,12.0,{}
179,428,3.0,31.016124838541646,4.123105625617661,7.0,8.0,9.0,8.0,22.02271554554524,15.033296378372908,13.5,11.0,10.0,2.5,11.5,4.5,0.5,5.0,5.0990195135927845,5.0,14.0,14.0,16.0,{}
180,429,4.0,31.016124838541646,4.123105625617661,7.0,8.06225774829855,9.055385138137416,8.0,23.021728866442675,16.0312195418814,14.0,12.0,11.0,3.5,11.5,4.5,0.5,5.0,5.0,5.0,15.0,15.0,15.033296378372908,{}
181,430,1.0,31.064449134018133,4.0,7.0,8.0,9.055385138137416,8.0,20.0,13.0,12.5,12.0,10.0,3.0,9.0,2.0,1.0,5.0,5.0,5.0,14.0,14.0,15.033296378372908,{}
182,431,1.0,31.064449134018133,4.0,7.0,8.0,9.055385138137416,8.0,20.0,13.0,12.5,12.0,10.0,3.0,9.0,2.0,1.0,5.0,5.0,5.0,14.0,14.0,15.033296378372908,{}
183,432,1.0,31.064449134018133,4.0,7.0,9.055385138137416,9.055385138137416,8.0,20.0,13.0,12.5,12.0,10.0,3.0,9.0,2.0,0.0,5.0,5.0990195135927845,5.0,13.0,14.0,15.033296378372908,{}
184,433,1.0,32.14031735997639,4.0,8.0,9.055385138137416,10.04987562112089,8.0,21.0,13.0,12.5,13.0,10.0,3.5,9.5,1.5,0.5,4.123105625617661,5.0,4.5,13.0,15.0,14.0356688476182,{}
185,434,3.0,33.13608305156178,4.0,8.0,9.055385138137416,10.04987562112089,8.06225774829855,23.021728866442675,15.033296378372908,13.5,13.0,10.0,3.5,11.5,3.5,0.5,4.0,3.1622776601683795,3.0,13.0,15.0,14.0356688476182,{}
186,435,3.0,33.13608305156178,4.0,8.0,9.055385138137416,10.04987562112089,8.06225774829855,23.021728866442675,15.033296378372908,13.5,13.0,10.0,3.5,11.5,3.5,0.5,4.123105625617661,3.1622776601683795,3.0,13.0,15.0,14.0356688476182,{}
187,436,0.0,33.24154027718932,4.123105625617661,7.0,9.055385138137416,10.04987562112089,9.055385138137416,20.09975124224178,13.152946437965904,13.0,13.0,9.0,2.0,9.0,2.0,1.0,4.0,4.0,3.5,13.0,16.0,15.132745950421556,{}
188,437,0.0,34.36568055487916,3.1622776601683795,7.071067811865476,9.055385138137416,9.219544457292889,9.055385138137416,19.235384061671343,12.16552506059644,12.0,13.0,8.0,1.5,8.5,1.5,0.5,5.0,5.0990195135927845,4.5,12.0,16.0,15.132745950421556,{}
189,438,0.0,33.54101966249684,4.123105625617661,7.071067811865476,8.246211251235321,9.219544457292889,9.055385138137416,20.223748416156685,13.152946437965904,13.0,14.0,8.0,2.0,9.0,2.0,0.0,4.0,3.1622776601683795,3.0,11.0,17.0,16.278820596099706,{}
190,439,0.0,33.54101966249684,4.123105625617661,7.071067811865476,8.246211251235321,9.219544457292889,9.055385138137416,20.223748416156685,13.152946437965904,13.0,14.0,8.0,2.0,9.0,2.0,0.0,4.0,3.1622776601683795,3.0,11.0,17.0,16.278820596099706,{}
191,440,1.4142135623730951,33.37663853655727,4.123105625617661,7.071067811865476,9.055385138137416,9.055385138137416,9.055385138137416,21.37755832643195,14.317821063276352,13.5,14.0,9.0,2.5,9.5,1.5,0.5,3.0,3.1622776601683795,3.0,11.0,17.0,14.142135623730953,{}
192,441,0.0,34.23448553724738,4.123105625617661,6.082762530298219,9.055385138137416,9.055385138137416,10.04987562112089,20.223748416156685,14.142135623730953,14.0,14.0,10.0,2.0,8.0,2.0,0.0,4.123105625617661,3.1622776601683795,3.0,10.0,16.0,13.341664064126334,{}
193,442,1.0,34.36568055487916,4.123105625617661,7.071067811865476,9.055385138137416,10.04987562112089,9.055385138137416,21.213203435596427,14.142135623730953,13.5,14.0,9.0,2.5,9.5,2.5,0.5,4.0,3.605551275463989,3.0,10.0,16.0,13.341664064126334,{}
194,443,1.4142135623730951,33.24154027718932,3.1622776601683795,7.071067811865476,9.055385138137416,9.055385138137416,10.04987562112089,21.37755832643195,14.317821063276352,13.5,14.0,10.0,2.0,9.0,2.0,0.0,4.0,3.1622776601683795,3.0,11.0,17.0,13.341664064126334,{}
195,444,3.1622776601683795,34.23448553724738,3.0,6.0,9.0,10.04987562112089,7.071067811865476,19.1049731745428,13.152946437965904,11.5,11.0,7.0,2.0,10.0,4.0,1.0,4.0,3.1622776601683795,3.0,10.0,15.0,13.152946437965904,{}
196,445,2.0,35.12833614050059,3.1622776601683795,6.082762530298219,9.0,10.04987562112089,8.06225774829855,19.235384061671343,13.152946437965904,12.0,11.0,8.0,1.5,9.5,3.5,1.5,3.1622776601683795,3.1622776601683795,3.0,11.0,16.0,12.16552506059644,{}
197,446,2.0,34.132096331752024,3.0,7.071067811865476,10.04987562112089,10.0,8.246211251235321,20.223748416156685,13.152946437965904,12.0,11.0,8.0,1.5,10.5,3.5,0.5,3.0,3.1622776601683795,2.5,11.0,15.0,14.142135623730953,{}
198,447,2.0,34.132096331752024,3.0,7.071067811865476,10.04987562112089,10.0,8.246211251235321,20.223748416156685,13.152946437965904,12.0,11.0,8.0,1.5,10.5,3.5,0.5,3.0,3.1622776601683795,2.5,11.0,15.0,14.142135623730953,{}
199,448,3.0,34.0147027033899,3.0,7.071067811865476,10.04987562112089,10.0,8.06225774829855,21.095023109728988,14.0356688476182,12.5,10.0,9.0,1.5,11.5,3.5,0.5,2.0,2.0,2.5,11.0,13.0,13.038404810405298,{}
200,449,1.4142135623730951,33.06055050963308,3.0,7.0,9.055385138137416,10.0,8.0,19.026297590440446,12.041594578792296,11.5,10.0,8.0,1.0,10.0,3.0,1.0,2.0,2.0,2.0,11.0,13.0,13.038404810405298,{}
201,450,1.0,33.015148038438355,3.1622776601683795,7.0,9.055385138137416,11.04536101718726,8.0,19.026297590440446,12.041594578792296,11.5,9.0,8.0,0.5,10.5,3.5,1.5,2.0,2.0,2.0,11.0,13.0,12.041594578792296,{}
202,451,1.0,33.015148038438355,3.1622776601683795,7.0,9.055385138137416,11.04536101718726,8.0,19.026297590440446,12.041594578792296,11.5,9.0,8.0,0.5,10.5,3.5,1.5,2.0,2.0,2.0,11.0,13.0,12.041594578792296,{}
203,452,3.0,34.0147027033899,3.0,6.0,9.055385138137416,11.0,8.06225774829855,20.024984394500787,14.0356688476182,12.5,9.0,8.0,0.5,11.5,4.5,1.5,3.0,3.1622776601683795,3.0,11.0,12.0,12.041594578792296,{}
204,453,2.23606797749979,34.0147027033899,3.0,7.0,9.0,11.0,8.0,20.024984394500787,13.038404810405298,12.0,9.0,8.0,0.5,11.5,3.5,1.5,3.1622776601683795,3.0,3.0,11.0,12.0,13.038404810405298,{}
205,454,3.0,34.0147027033899,3.0,7.0,10.0,12.0,8.0,21.0,14.0,12.5,10.0,9.0,1.5,11.5,4.5,0.5,3.0,3.1622776601683795,3.0,12.0,12.0,12.0,{}
206,455,3.0,34.058772731852805,3.0,7.0,10.0,12.0,8.0,21.0,14.0,12.5,10.0,8.0,1.0,12.0,4.0,1.0,3.0,3.1622776601683795,3.0,12.0,12.0,12.041594578792296,{}
207,456,1.0,34.058772731852805,2.23606797749979,7.0,9.055385138137416,10.04987562112089,9.0,19.026297590440446,12.041594578792296,11.5,8.0,6.0,2.0,12.0,5.0,3.0,3.1622776601683795,3.0,3.0,12.0,12.0,12.041594578792296,{}
208,457,2.0,34.058772731852805,3.0,7.0,10.04987562112089,11.04536101718726,7.071067811865476,19.026297590440446,12.041594578792296,11.0,8.0,6.0,0.0,12.0,5.0,2.0,3.0,3.0,3.0,11.0,11.0,12.041594578792296,{}
209,458,2.23606797749979,34.0147027033899,2.0,7.071067811865476,10.0,11.04536101718726,8.0,19.0,12.041594578792296,11.0,8.0,7.0,0.5,11.5,4.5,2.5,3.0,3.0,3.0,12.0,12.0,12.0,{}
210,459,2.0,34.058772731852805,2.0,7.0,10.04987562112089,11.04536101718726,8.06225774829855,19.026297590440446,12.041594578792296,11.0,8.0,6.0,1.0,12.0,5.0,2.0,3.0,3.0,3.0,12.0,12.0,13.0,{}
211,460,0.0,34.0147027033899,3.0,7.0,9.055385138137416,10.04987562112089,7.0,17.0,10.0,10.0,7.0,6.0,0.5,10.5,3.5,2.5,2.0,2.0,2.0,11.0,11.0,12.0,{}
212,461,1.0,34.0147027033899,3.0,7.0,9.055385138137416,10.0,7.071067811865476,18.027756377319943,11.04536101718726,10.5,7.0,6.0,0.5,11.5,3.5,2.5,3.0,3.0,2.5,11.0,11.0,11.0,{}
213,462,2.23606797749979,35.0,3.0,7.0,9.0,10.0,7.0,19.026297590440446,12.041594578792296,11.0,6.0,6.0,1.0,13.0,5.0,3.0,2.23606797749979,2.0,2.0,12.0,12.0,13.0,{}
214,463,2.0,35.0142828000232,3.0,7.071067811865476,9.0,10.0,7.0,19.026297590440446,12.0,11.0,7.0,6.0,0.5,12.5,4.5,2.5,2.23606797749979,2.0,2.0,12.0,12.0,12.0,{}
215,464,5.0,36.0,3.0,7.0,10.0,11.0,7.0,22.0,15.0,12.5,7.0,7.0,0.0,15.0,7.0,2.0,3.0,2.23606797749979,2.0,12.0,12.0,12.041594578792296,{}
216,465,5.0990195135927845,36.0,3.0,7.0,11.0,11.0,7.0,22.02271554554524,15.033296378372908,12.5,7.0,7.0,0.0,15.0,7.0,2.0,3.0,3.0,3.0,12.0,12.0,12.0,{}
217,466,4.0,35.0,3.0,7.0,10.0,11.0,7.0,21.0,14.0,12.0,7.0,7.0,0.0,14.0,7.0,2.0,3.1622776601683795,3.0,3.0,12.0,12.0,11.0,{}
218,467,4.0,34.0,3.0,7.0,10.0,11.0,7.0,21.0,14.0,12.0,7.0,7.0,0.0,14.0,7.0,2.0,4.0,3.1622776601683795,3.5,11.0,11.0,11.0,{}
219,468,2.0,35.0,3.0,7.0,10.0,11.0,6.0,18.0,11.0,10.0,6.0,6.0,0.0,12.0,5.0,3.0,3.0,2.0,2.0,12.0,12.0,12.041594578792296,{}
220,469,3.0,35.0,3.0,7.0,10.0,11.0,6.0,19.0,12.0,10.5,7.0,7.0,1.0,12.0,5.0,2.0,2.0,2.0,1.5,12.0,11.0,13.0,{}
221,470,4.0,34.0,2.0,7.0,10.0,10.0,7.0,20.0,13.0,11.0,7.0,7.0,0.0,13.0,5.0,2.0,2.0,3.0,2.5,12.0,11.0,11.0,{}
222,471,4.0,34.0,2.0,7.0,10.0,10.0,7.0,20.0,13.0,11.0,7.0,7.0,0.0,13.0,5.0,2.0,2.0,3.0,2.5,12.0,11.0,11.0,{}
223,472,2.0,34.0,3.1622776601683795,7.0,9.055385138137416,10.0,8.0,20.024984394500787,13.038404810405298,12.0,8.0,8.0,0.0,12.0,5.0,3.0,2.0,2.0,2.0,11.0,12.0,12.0,{}
224,473,2.23606797749979,34.0,2.0,6.0,9.0,10.0,8.0,18.027756377319943,12.041594578792296,11.0,8.0,8.0,0.0,10.0,3.0,2.0,2.0,2.0,2.0,11.0,12.0,12.0,{}
225,474,2.23606797749979,36.013886210738214,3.0,7.0,10.0,10.0,8.0,20.024984394500787,13.038404810405298,12.0,9.0,8.0,0.5,11.5,3.5,1.5,2.0,1.0,1.0,11.0,12.0,13.0,{}
226,475,2.23606797749979,36.013886210738214,3.0,7.0,10.0,10.0,8.0,20.024984394500787,13.038404810405298,12.0,9.0,8.0,0.5,11.5,3.5,1.5,2.0,1.0,1.0,11.0,12.0,13.0,{}
227,476,2.0,36.013886210738214,2.0,7.0,10.04987562112089,11.0,8.0,19.0,12.0,11.0,9.0,8.0,0.5,10.5,2.5,0.5,4.0,3.1622776601683795,3.5,12.0,13.0,13.0,{}
228,477,3.0,35.05709628591621,2.0,7.0,10.0,11.0,8.0,20.0,13.0,11.5,11.0,9.0,2.0,10.0,2.0,0.0,4.123105625617661,4.123105625617661,4.0,12.0,13.0,14.0356688476182,{}
229,478,3.0,35.05709628591621,3.0,7.0,10.04987562112089,12.041594578792296,7.0,20.0,13.0,11.5,11.0,9.0,3.0,10.0,3.0,1.0,5.0,4.0,4.5,12.0,13.0,14.0356688476182,{}
230,479,3.0,35.05709628591621,3.0,7.0,10.04987562112089,11.04536101718726,7.0,20.0,13.0,11.5,11.0,9.0,3.0,10.0,3.0,1.0,4.123105625617661,4.123105625617661,3.5,11.0,13.0,14.0356688476182,{}
231,480,6.082762530298219,34.23448553724738,3.0,7.071067811865476,9.055385138137416,10.198039027185567,7.0,23.0,16.0312195418814,13.0,12.0,8.0,3.0,13.0,6.0,1.0,4.0,4.123105625617661,4.0,13.0,15.0,13.038404810405298,{}
232,481,7.071067811865476,32.2490309931942,3.0,7.0,9.055385138137416,10.198039027185567,7.071067811865476,24.0,17.0,13.5,12.0,8.0,3.0,14.0,7.0,1.0,4.0,5.0990195135927845,5.0,12.0,15.0,15.132745950421556,{}
233,482,4.123105625617661,31.14482300479488,4.0,7.071067811865476,9.055385138137416,9.055385138137416,7.0,22.0,15.033296378372908,13.0,12.0,9.0,3.5,11.5,4.5,0.5,5.0,4.0,4.5,11.0,15.0,15.132745950421556,{}
234,483,4.123105625617661,31.14482300479488,4.0,7.071067811865476,9.055385138137416,9.055385138137416,7.0,22.0,15.033296378372908,13.0,12.0,9.0,3.5,11.5,4.5,0.5,5.0,4.0,4.5,11.0,15.0,15.132745950421556,{}
235,484,1.0,32.38826948140329,3.0,7.071067811865476,8.06225774829855,9.219544457292889,7.0,18.027756377319943,11.0,10.5,13.0,8.0,3.5,7.5,0.5,1.5,4.0,4.123105625617661,4.0,11.0,15.0,14.142135623730953,{}
236,485,1.0,30.4138126514911,4.0,7.0,9.219544457292889,9.219544457292889,7.071067811865476,19.026297590440446,12.041594578792296,11.5,13.0,8.0,3.5,8.5,2.5,1.5,5.0,5.0990195135927845,5.0,11.0,16.0,14.0356688476182,{}
237,486,1.0,32.55764119219941,3.0,8.06225774829855,9.055385138137416,9.219544457292889,7.0,19.026297590440446,11.0,10.5,13.0,7.0,3.0,9.0,2.0,1.0,4.0,4.123105625617661,4.0,10.0,14.0,13.152946437965904,{}
238,487,2.0,31.400636936215164,3.0,7.071067811865476,9.055385138137416,9.219544457292889,7.0,19.026297590440446,12.0,11.0,13.0,8.0,3.5,8.5,1.5,1.5,4.0,5.0990195135927845,5.0,10.0,15.0,15.297058540778355,{}
239,488,3.0,32.2490309931942,3.0,8.0,10.04987562112089,10.198039027185567,7.0,21.0,13.0,11.5,13.0,9.0,4.0,10.0,2.0,2.0,5.0,5.0990195135927845,4.5,11.0,15.0,15.132745950421556,{}
240,489,3.0,34.36568055487916,3.0,7.071067811865476,10.04987562112089,10.198039027185567,7.0,20.024984394500787,13.0,11.5,14.0,9.0,4.5,8.5,1.5,2.5,5.0,5.0990195135927845,5.0,11.0,15.0,16.1245154965971,{}
241,490,4.123105625617661,34.36568055487916,3.1622776601683795,8.06225774829855,10.04987562112089,11.180339887498947,7.0,22.02271554554524,14.0,12.0,14.0,9.0,4.5,10.5,3.5,2.5,4.0,4.123105625617661,4.5,11.0,15.0,15.297058540778355,{}
242,491,4.123105625617661,34.36568055487916,3.1622776601683795,8.06225774829855,10.04987562112089,11.180339887498947,7.0,22.02271554554524,14.0,12.0,14.0,9.0,4.5,10.5,2.5,2.5,5.0,4.123105625617661,4.5,11.0,15.0,15.132745950421556,{}
243,492,7.0,34.23448553724738,4.0,7.0,10.04987562112089,11.180339887498947,7.0,25.0,18.0,14.5,13.0,9.0,4.0,14.0,7.0,1.0,5.0,5.0990195135927845,5.0,12.0,16.0,15.132745950421556,{}
244,493,5.0,35.12833614050059,4.0,7.0,10.0,11.04536101718726,7.0,23.0,16.0,13.5,12.0,9.0,3.5,12.5,5.5,0.5,5.0,5.0990195135927845,5.0,10.0,14.0,14.142135623730953,{}
245,494,6.0,35.12833614050059,3.0,7.071067811865476,10.0,11.04536101718726,8.06225774829855,24.08318915758459,17.029386365926403,14.0,13.0,10.0,3.5,12.5,4.5,0.5,5.0,5.0990195135927845,5.5,11.0,15.0,14.142135623730953,{}
246,495,6.0,35.12833614050059,3.0,7.071067811865476,10.0,11.04536101718726,8.06225774829855,24.08318915758459,17.029386365926403,14.0,13.0,10.0,3.5,12.5,4.5,0.5,5.0,5.0990195135927845,5.5,11.0,15.0,14.142135623730953,{}
247,496,3.0,34.0147027033899,3.0,7.0,10.0,11.0,8.06225774829855,21.02379604162864,14.0356688476182,12.5,11.0,10.0,2.5,10.5,2.5,0.5,4.0,5.0990195135927845,4.5,11.0,13.0,13.038404810405298,{}
248,497,3.0,34.0147027033899,2.0,7.0,10.0,11.0,8.06225774829855,20.024984394500787,13.038404810405298,11.5,10.0,9.0,1.5,10.5,3.5,0.5,4.0,4.123105625617661,4.5,11.0,14.0,12.16552506059644,{}
249,498,3.1622776601683795,35.0142828000232,2.23606797749979,7.071067811865476,9.0,10.0,8.0,20.024984394500787,13.0,11.5,10.0,9.0,1.5,10.5,2.5,0.5,4.0,4.123105625617661,4.5,11.0,14.0,13.038404810405298,{}
250,499,3.1622776601683795,35.0142828000232,2.23606797749979,7.071067811865476,9.0,10.0,8.0,20.024984394500787,13.0,11.5,10.0,9.0,1.5,10.5,2.5,0.5,4.0,4.123105625617661,4.5,11.0,14.0,13.038404810405298,{}
251,500,2.0,35.05709628591621,3.1622776601683795,7.071067811865476,10.04987562112089,11.0,7.0,19.1049731745428,12.041594578792296,11.0,10.0,8.0,2.0,10.0,3.0,0.0,4.0,4.0,4.0,11.0,14.0,14.0356688476182,{}
252,501,4.0,34.132096331752024,2.0,6.082762530298219,10.04987562112089,10.04987562112089,8.06225774829855,20.09975124224178,14.0356688476182,12.0,11.0,8.0,1.5,10.5,3.5,0.5,5.0990195135927845,5.0990195135927845,5.0,11.0,14.0,15.033296378372908,{}
253,502,4.0,34.132096331752024,3.0,7.0,10.04987562112089,11.0,8.06225774829855,22.02271554554524,15.033296378372908,13.0,12.0,9.0,2.5,11.5,4.5,0.5,5.0,5.0,4.5,12.0,14.0,13.038404810405298,{}
254,503,4.0,35.12833614050059,3.1622776601683795,7.0,11.04536101718726,11.0,8.0,22.02271554554524,15.033296378372908,13.0,12.0,9.0,2.5,11.5,4.5,0.5,5.0,5.0990195135927845,4.5,11.0,13.0,15.033296378372908,{}
255,504,2.23606797749979,30.01666203960727,4.123105625617661,8.06225774829855,6.0,7.0,11.180339887498947,25.495097567963924,17.46424919657298,16.0,14.0,15.0,3.5,10.5,2.5,0.5,5.0990195135927845,5.0,5.0,18.0,15.0,14.142135623730953,{}
256,505,2.23606797749979,30.01666203960727,4.123105625617661,7.071067811865476,7.0,8.0,11.04536101718726,24.33105012119288,17.26267650163207,16.0,14.0,15.0,3.5,9.5,1.5,0.5,5.0,4.0,4.0,18.0,15.0,13.152946437965904,{}
257,506,2.23606797749979,29.017236257093817,5.0990195135927845,7.071067811865476,7.0,8.0,10.04987562112089,24.33105012119288,17.26267650163207,16.0,13.0,14.0,3.5,10.5,2.5,0.5,5.0990195135927845,5.0990195135927845,5.0,18.0,14.0,13.152946437965904,{}
258,507,3.1622776601683795,28.0178514522438,5.0990195135927845,9.055385138137416,6.082762530298219,8.0,10.198039027185567,27.459060435491963,18.43908891458577,16.5,14.0,15.0,4.5,12.5,2.5,0.5,4.123105625617661,4.0,4.0,19.0,15.0,13.152946437965904,{}
259,508,4.123105625617661,27.073972741361768,4.123105625617661,9.055385138137416,7.0,8.0,10.198039027185567,27.459060435491963,18.43908891458577,16.0,14.0,16.0,5.0,12.0,2.0,1.0,5.0990195135927845,5.0,5.0,18.0,15.0,15.033296378372908,{}
260,509,4.123105625617661,30.14962686336267,5.0990195135927845,9.055385138137416,7.071067811865476,8.06225774829855,10.04987562112089,28.284271247461906,19.235384061671343,17.0,14.0,17.0,5.5,12.5,2.5,0.5,4.123105625617661,5.0,5.0,19.0,16.0,13.152946437965904,{}
261,510,4.123105625617661,31.14482300479488,5.0990195135927845,9.055385138137416,7.071067811865476,9.055385138137416,9.219544457292889,27.459060435491963,18.43908891458577,16.0,13.0,16.0,5.5,12.5,3.5,0.5,4.0,4.0,4.5,20.0,17.0,14.142135623730953,{}
262,511,3.1622776601683795,33.13608305156178,4.0,9.055385138137416,8.06225774829855,9.0,9.219544457292889,25.317977802344327,16.278820596099706,14.5,12.0,15.0,4.5,11.5,1.5,0.5,5.0990195135927845,5.0,5.0,20.0,17.0,14.142135623730953,{}
263,512,2.0,30.01666203960727,4.123105625617661,10.04987562112089,8.0,9.0,9.219544457292889,25.317977802344327,15.297058540778355,14.0,12.0,13.0,3.5,12.5,2.5,0.5,4.0,5.0,5.0,18.0,16.0,14.0356688476182,{}
264,513,2.0,31.064449134018133,4.123105625617661,9.055385138137416,8.0,9.0,9.055385138137416,24.186773244895647,15.132745950421556,14.0,13.0,15.0,5.0,10.0,0.0,1.0,4.123105625617661,5.0,5.0,19.0,17.0,15.132745950421556,{}
265,514,1.0,29.017236257093817,5.0990195135927845,9.055385138137416,7.0,9.055385138137416,8.06225774829855,23.194827009486403,14.142135623730953,13.5,13.0,14.0,5.5,9.5,0.5,1.5,4.0,5.0,5.0,19.0,16.0,15.132745950421556,{}
266,515,3.0,28.0178514522438,4.0,9.055385138137416,8.0,9.055385138137416,8.06225774829855,24.08318915758459,15.033296378372908,13.5,14.0,15.0,6.5,9.5,0.5,2.5,4.123105625617661,4.0,4.0,19.0,16.0,16.1245154965971,{}
267,516,4.123105625617661,27.073972741361768,5.0990195135927845,10.04987562112089,7.071067811865476,8.0,9.055385138137416,28.0713376952364,18.027756377319943,16.0,15.0,17.0,7.0,12.0,1.0,2.0,4.123105625617661,5.0,5.0,19.0,16.0,15.132745950421556,{}
268,517,1.4142135623730951,30.01666203960727,5.0990195135927845,9.0,8.0,9.0,10.0,25.079872407968907,16.1245154965971,15.5,15.0,16.0,5.5,9.5,0.5,0.5,4.123105625617661,5.0,5.0,19.0,15.0,15.033296378372908,{}
269,518,1.0,30.066592756745816,4.123105625617661,9.055385138137416,9.0,9.0,11.0,25.079872407968907,16.0312195418814,15.5,15.0,17.0,5.0,9.0,0.0,1.0,5.0990195135927845,4.0,4.5,20.0,16.0,15.033296378372908,{}
270,519,3.0,29.017236257093817,5.0990195135927845,9.0,8.06225774829855,9.0,9.055385138137416,26.0768096208106,17.11724276862369,15.5,16.0,15.0,6.5,10.5,0.5,2.5,5.0990195135927845,5.0,5.0,19.0,15.0,14.142135623730953,{}
271,520,6.0,29.017236257093817,4.123105625617661,9.055385138137416,8.0,8.0,8.0,27.073972741361768,18.027756377319943,15.0,17.0,16.0,8.5,10.5,1.5,4.5,5.385164807134504,4.0,4.5,20.0,16.0,15.132745950421556,{}
272,521,3.0,29.0,4.0,8.06225774829855,9.0,9.0,8.0,23.021728866442675,15.0,13.5,14.0,14.0,6.0,9.0,0.0,2.0,5.385164807134504,4.0,4.0,21.0,17.0,16.278820596099706,{}
273,522,1.4142135623730951,30.0,5.0,9.055385138137416,8.0,8.0,9.0,24.08318915758459,15.033296378372908,14.5,15.0,15.0,6.0,9.0,0.0,2.0,5.0990195135927845,4.123105625617661,4.0,21.0,16.0,16.1245154965971,{}
274,523,4.0,33.015148038438355,4.123105625617661,10.04987562112089,10.04987562112089,11.04536101718726,9.0,27.073972741361768,17.029386365926403,15.0,15.0,16.0,6.5,11.5,1.5,2.5,5.0990195135927845,4.0,4.5,21.0,16.0,16.1245154965971,{}
275,524,4.0,33.0,4.123105625617661,10.04987562112089,9.0,10.0,8.0,26.0768096208106,16.0312195418814,14.0,15.0,15.0,7.0,11.0,1.0,3.0,4.123105625617661,4.0,3.5,20.0,15.0,16.0312195418814,{}
276,525,5.0,33.0,4.123105625617661,9.055385138137416,10.0,10.04987562112089,8.0,26.0768096208106,17.029386365926403,14.5,14.0,14.0,6.0,12.0,3.0,2.0,3.0,3.0,3.0,21.0,17.0,17.11724276862369,{}
277,526,4.123105625617661,35.0,5.0,9.055385138137416,10.0,11.04536101718726,8.0,26.0768096208106,17.029386365926403,15.0,15.0,15.0,7.0,11.0,2.0,3.0,3.1622776601683795,3.0,3.0,20.0,16.0,18.110770276274835,{}
278,527,4.123105625617661,36.013886210738214,5.0,9.055385138137416,10.0,11.04536101718726,8.0,26.0768096208106,17.029386365926403,15.0,14.0,15.0,6.5,11.5,2.5,2.5,3.1622776601683795,3.0,3.0,20.0,17.0,17.029386365926403,{}
279,528,3.0,36.0,5.0990195135927845,9.055385138137416,10.0,11.04536101718726,9.0,26.0768096208106,17.029386365926403,15.5,15.0,15.0,6.0,11.0,1.0,2.0,3.0,3.0,3.5,19.0,16.0,18.110770276274835,{}
280,529,4.123105625617661,35.0,5.0990195135927845,9.0,11.0,11.0,9.0,27.073972741361768,18.110770276274835,16.0,15.0,15.0,6.0,12.0,3.0,2.0,5.0990195135927845,4.0,4.0,18.0,16.0,17.029386365926403,{}
281,530,5.0990195135927845,36.013886210738214,4.0,8.0,11.0,12.041594578792296,9.055385138137416,26.0768096208106,18.110770276274835,15.5,16.0,15.0,6.5,10.5,1.5,2.5,3.1622776601683795,3.0,3.0,19.0,16.0,18.0,{}
282,531,4.0,36.0,4.0,9.0,11.0,11.0,8.0,25.0,16.0,14.0,14.0,14.0,6.0,11.0,1.0,2.0,3.0,3.1622776601683795,3.0,17.0,15.0,19.026297590440446,{}
283,532,3.0,36.05551275463989,5.0,9.0,10.0,11.04536101718726,8.0,25.0,16.0,14.5,15.0,13.0,6.0,11.0,2.0,2.0,5.0990195135927845,4.0,4.0,19.0,16.0,19.0,{}
284,533,1.0,36.013886210738214,6.0,9.0,11.04536101718726,11.04536101718726,9.0,25.0,16.0,15.5,15.0,14.0,5.5,10.5,0.5,1.5,4.123105625617661,3.0,3.0,18.0,16.0,18.0,{}
285,534,3.0,37.01351104664349,5.0990195135927845,9.055385138137416,11.0,12.041594578792296,9.055385138137416,26.019223662515376,17.0,15.5,16.0,15.0,6.5,10.5,0.5,1.5,3.1622776601683795,3.0,3.0,18.0,16.0,18.0,{}
286,535,4.123105625617661,37.01351104664349,5.0,9.0,11.04536101718726,12.041594578792296,9.0,27.018512172212592,18.027756377319943,16.0,15.0,14.0,5.5,12.5,2.5,1.5,4.0,4.0,4.0,18.0,16.0,18.0,{}
287,536,4.0,38.0,4.123105625617661,9.0,11.0,12.041594578792296,9.055385138137416,26.0,17.0,15.0,15.0,15.0,6.0,11.0,2.0,2.0,4.123105625617661,4.0,4.0,17.0,16.0,19.0,{}
288,537,4.0,38.01315561749642,4.0,9.0,12.041594578792296,12.0,9.0,26.0,17.0,15.0,15.0,14.0,5.5,11.5,1.5,2.5,4.123105625617661,4.0,3.5,17.0,16.0,18.0,{}
289,538,2.23606797749979,37.01351104664349,5.0,9.0,11.0,12.041594578792296,9.055385138137416,25.0,16.0,15.0,15.0,14.0,5.5,10.5,0.5,1.5,4.123105625617661,4.0,4.0,17.0,16.0,17.0,{}
290,539,1.0,38.05259518088089,5.0,10.0,11.0,12.041594578792296,10.04987562112089,26.019223662515376,16.0312195418814,15.5,16.0,14.0,5.0,11.0,0.0,1.0,4.123105625617661,4.123105625617661,3.5,17.0,16.0,18.0,{}
291,540,1.0,38.01315561749642,5.0,10.0,10.0,11.0,10.04987562112089,26.019223662515376,16.0312195418814,15.5,16.0,15.0,5.5,10.5,0.5,1.5,4.0,4.123105625617661,3.5,17.0,15.0,17.0,{}
292,541,1.0,38.01315561749642,5.0,10.0,11.04536101718726,12.0,10.04987562112089,26.019223662515376,16.0312195418814,15.5,16.0,15.0,5.5,10.5,0.5,1.5,4.123105625617661,4.123105625617661,4.0,17.0,15.0,17.0,{}
293,542,0.0,36.013886210738214,5.0,11.0,11.04536101718726,11.0,10.0,26.0,15.0,15.0,17.0,16.0,6.5,9.5,1.5,2.5,5.0990195135927845,4.0,4.0,18.0,16.0,17.0,{}
294,543,0.0,36.013886210738214,5.0,10.0,10.0,11.0,11.0,26.0,16.0,16.0,17.0,16.0,5.5,9.5,0.5,1.5,4.0,4.0,4.0,17.0,15.0,18.0,{}
295,544,1.0,35.0,5.0,9.0,10.0,10.04987562112089,11.0,25.019992006393608,16.0312195418814,16.0,16.0,16.0,5.0,9.0,0.0,1.0,4.123105625617661,4.0,4.0,17.0,14.0,17.0,{}
296,545,1.0,36.013886210738214,5.0,10.0,10.0,11.04536101718726,11.0,26.019223662515376,16.0312195418814,16.0,17.0,16.0,5.5,9.5,0.5,0.5,4.0,4.0,4.0,16.0,14.0,17.029386365926403,{}
297,546,0.0,35.0,5.0990195135927845,10.0,10.04987562112089,11.04536101718726,12.041594578792296,27.0,17.0,17.0,17.0,17.0,5.0,10.0,0.0,0.0,4.0,4.0,4.0,16.0,15.0,17.029386365926403,{}
298,547,0.0,35.0142828000232,5.0990195135927845,10.0,10.04987562112089,10.04987562112089,12.041594578792296,27.0,17.0,17.0,18.0,17.0,5.5,9.5,0.5,1.5,5.0990195135927845,4.0,4.0,16.0,15.0,16.0,{}
299,548,1.0,37.01351104664349,5.0,10.0,10.04987562112089,11.0,12.0,27.018512172212592,17.029386365926403,17.0,18.0,17.0,5.5,9.5,0.5,1.5,4.123105625617661,5.0,4.5,16.0,15.0,16.0,{}
300,549,0.0,37.0,4.0,9.0,10.0,11.04536101718726,13.0,26.0,17.0,17.0,16.0,16.0,3.0,10.0,1.0,1.0,4.123105625617661,5.0,5.0,16.0,15.0,16.0,{}
301,550,1.0,39.01281840626232,4.0,9.0,10.0,11.04536101718726,13.0,26.019223662515376,17.029386365926403,17.0,16.0,15.0,2.5,10.5,1.5,0.5,5.0990195135927845,4.0,4.0,15.0,14.0,16.0,{}
302,551,0.0,40.01249804748511,4.0,9.0,11.04536101718726,12.041594578792296,12.041594578792296,25.019992006393608,16.0312195418814,16.0,15.0,14.0,2.5,10.5,1.5,0.5,4.0,4.0,4.0,16.0,15.0,18.0,{}
303,552,1.0,42.04759208325728,4.0,9.055385138137416,11.04536101718726,11.180339887498947,12.0,25.0,16.0312195418814,16.0,15.0,13.0,2.0,11.0,2.0,1.0,4.0,4.0,3.5,15.0,15.0,17.0,{}
304,553,1.0,38.01315561749642,5.0,9.055385138137416,11.0,11.04536101718726,11.04536101718726,26.0768096208106,17.029386365926403,16.5,16.0,15.0,4.5,10.5,1.5,0.5,4.0,4.0,4.0,16.0,16.0,18.0,{}
305,554,5.0,38.01315561749642,5.0990195135927845,9.0,11.0,12.041594578792296,11.0,30.01666203960727,21.02379604162864,18.5,17.0,16.0,5.5,13.5,4.5,1.5,5.0,5.0990195135927845,5.0,17.0,16.0,18.0,{}
306,555,7.071067811865476,38.01315561749642,4.0,9.0,10.0,12.041594578792296,12.0,32.01562118716424,23.021728866442675,19.5,18.0,17.0,5.5,14.5,4.5,1.5,5.0990195135927845,5.0,5.0,18.0,17.0,17.0,{}
307,556,6.0,39.01281840626232,4.0,10.04987562112089,10.0,11.04536101718726,12.041594578792296,32.0624390837628,22.02271554554524,19.0,18.0,17.0,5.5,14.5,4.5,1.5,5.0990195135927845,5.0990195135927845,5.0,19.0,18.0,20.0,{}
308,557,5.0,38.05259518088089,6.0,10.0,10.0,11.04536101718726,11.04536101718726,32.01562118716424,22.02271554554524,19.5,18.0,16.0,6.0,15.0,5.0,0.0,5.0990195135927845,6.0,5.5,21.0,18.0,20.024984394500787,{}
309,558,3.0,41.04875150354759,5.0,9.0,10.04987562112089,11.04536101718726,12.0,29.0,20.0,18.5,17.0,15.0,4.0,13.0,4.0,0.0,5.0,6.0,5.5,21.0,19.0,20.024984394500787,{}
310,559,1.0,39.05124837953327,4.0,7.0,10.04987562112089,11.04536101718726,12.0,24.0,17.0,16.5,16.0,14.0,3.0,9.0,2.0,0.0,5.0990195135927845,5.0,4.5,21.0,20.0,19.026297590440446,{}
311,560,0.0,40.11234224026316,4.0,5.0,10.04987562112089,10.198039027185567,13.0,22.0,17.0,17.0,16.0,13.0,1.5,7.5,2.5,0.5,4.0,4.0,4.0,21.0,20.0,20.0,{}
312,561,0.0,41.10960958218893,4.0,5.0,10.04987562112089,11.04536101718726,13.0,22.0,17.0,17.0,17.0,14.0,2.5,6.5,1.5,0.5,5.0,5.0,4.5,22.0,20.0,18.0,{}
313,562,0.0,41.10960958218893,4.0,5.0990195135927845,10.198039027185567,11.04536101718726,13.0,22.02271554554524,17.0,17.0,16.0,13.0,1.5,7.5,2.5,0.5,5.0990195135927845,5.0,5.0,22.0,21.0,19.0,{}
314,563,1.0,42.190046219457976,4.0,5.0,10.04987562112089,11.04536101718726,12.0,21.02379604162864,16.0312195418814,16.0,16.0,12.0,2.0,7.0,2.0,1.0,6.082762530298219,5.0,5.0,21.0,21.0,21.02379604162864,{}
315,564,1.0,43.18564576337837,4.0,5.0,11.04536101718726,11.180339887498947,11.0,21.0,16.0,15.5,15.0,11.0,2.0,8.0,3.0,1.0,4.123105625617661,4.0,4.0,21.0,20.0,19.0,{}
316,565,1.0,42.190046219457976,5.0990195135927845,7.0,11.04536101718726,11.180339887498947,11.04536101718726,24.0,17.0,16.5,16.0,12.0,3.0,10.0,3.0,1.0,5.0,5.0,4.5,20.0,21.0,20.024984394500787,{}
317,566,5.0,43.18564576337837,4.0,8.0,12.041594578792296,13.038404810405298,13.0,30.0,22.0,19.5,17.0,13.0,2.0,15.0,7.0,1.0,4.123105625617661,4.0,4.0,18.0,19.0,19.026297590440446,{}
318,567,8.0,43.10452412450461,4.0,8.0,12.041594578792296,12.16552506059644,11.0,31.0,23.0,19.0,16.0,13.0,3.5,16.5,8.5,0.5,4.123105625617661,4.0,4.0,16.0,17.0,18.027756377319943,{}
319,568,9.0,43.10452412450461,3.0,8.0,12.16552506059644,12.16552506059644,11.04536101718726,31.016124838541646,23.021728866442675,18.5,15.0,12.0,2.5,17.5,9.5,0.5,4.0,4.0,4.0,16.0,17.0,18.110770276274835,{}
320,569,8.0,42.190046219457976,3.0,7.0,11.04536101718726,12.041594578792296,11.04536101718726,29.017236257093817,22.02271554554524,18.0,14.0,10.0,1.0,17.0,10.0,1.0,5.0990195135927845,4.0,4.0,15.0,16.0,17.029386365926403,{}
321,570,6.082762530298219,42.190046219457976,4.0,8.06225774829855,11.04536101718726,13.152946437965904,9.0,27.0,19.026297590440446,16.0,14.0,10.0,3.0,15.0,7.0,0.0,3.0,3.0,3.5,14.0,16.0,18.027756377319943,{}
322,571,4.0,41.10960958218893,4.0,9.0,12.041594578792296,12.16552506059644,9.0,26.0,17.0,15.0,13.0,10.0,2.5,14.5,5.5,0.5,4.0,3.0,3.0,14.0,16.0,18.027756377319943,{}
323,572,5.0,41.19465984809196,3.0,8.06225774829855,13.038404810405298,13.152946437965904,8.06225774829855,24.0,16.0312195418814,13.5,14.0,10.0,4.0,12.0,4.0,2.0,3.0,3.0,2.5,14.0,16.0,19.026297590440446,{}
324,573,4.123105625617661,42.190046219457976,4.0,9.055385138137416,12.041594578792296,13.152946437965904,8.0,25.0,16.0312195418814,14.0,15.0,11.0,5.0,12.0,3.0,3.0,4.0,4.123105625617661,3.5,14.0,16.0,20.09975124224178,{}
325,574,4.0,40.19950248448356,4.0,9.0,12.16552506059644,13.152946437965904,8.0,25.0,16.0,14.0,15.0,11.0,5.0,12.0,3.0,3.0,3.0,3.1622776601683795,2.5,13.0,15.0,19.1049731745428,{}
326,575,5.0,41.19465984809196,3.0,9.055385138137416,12.041594578792296,13.152946437965904,8.0,25.019992006393608,16.0,13.5,15.0,11.0,5.0,12.0,4.0,3.0,3.1622776601683795,2.0,2.5,14.0,16.0,19.026297590440446,{}
327,576,6.082762530298219,41.19465984809196,4.0,9.055385138137416,13.038404810405298,14.317821063276352,9.0,28.0,19.026297590440446,16.0,15.0,11.0,4.0,15.0,6.0,1.0,3.0,2.0,2.5,14.0,16.0,18.110770276274835,{}
328,577,4.123105625617661,39.11521443121589,4.0,9.0,13.038404810405298,13.152946437965904,10.04987562112089,27.0,18.0,16.0,16.0,13.0,4.5,12.5,3.5,1.5,3.0,3.0,3.0,13.0,16.0,18.027756377319943,{}
329,578,2.0,40.11234224026316,4.0,9.0,12.041594578792296,12.041594578792296,10.0,25.0,16.0,15.0,17.0,14.0,5.5,9.5,0.5,2.5,4.0,3.0,3.0,14.0,16.0,19.026297590440446,{}
330,579,1.4142135623730951,37.05401462729781,4.0,9.055385138137416,11.04536101718726,12.041594578792296,10.0,24.0,15.033296378372908,14.5,16.0,14.0,5.0,9.0,0.0,2.0,4.0,4.123105625617661,4.0,14.0,16.0,19.026297590440446,{}
331,580,1.0,38.11823710509184,4.0,9.0,12.041594578792296,12.041594578792296,11.0,25.0,16.0,15.5,17.0,14.0,4.5,9.5,0.5,2.5,4.0,3.1622776601683795,3.0,14.0,16.0,18.027756377319943,{}
332,581,1.0,39.11521443121589,4.0,10.04987562112089,12.041594578792296,13.038404810405298,11.0,26.019223662515376,16.0,15.5,17.0,14.0,4.5,10.5,0.5,1.5,4.123105625617661,3.1622776601683795,3.0,14.0,16.0,18.027756377319943,{}
333,582,3.1622776601683795,39.11521443121589,4.0,9.055385138137416,11.04536101718726,12.041594578792296,10.0,26.0,17.029386365926403,15.5,16.0,13.0,4.5,11.5,2.5,1.5,3.0,3.0,3.0,14.0,16.0,18.027756377319943,{}
334,583,3.0,41.10960958218893,3.0,8.06225774829855,12.041594578792296,13.038404810405298,9.0,23.021728866442675,15.0,13.5,15.0,12.0,4.5,9.5,1.5,2.5,3.0,3.0,3.0,14.0,16.0,18.027756377319943,{}
335,584,1.4142135623730951,39.11521443121589,4.123105625617661,10.04987562112089,11.04536101718726,12.041594578792296,10.0,25.019992006393608,15.0,14.5,16.0,13.0,4.5,10.5,0.5,1.5,3.0,3.0,3.0,14.0,16.0,18.110770276274835,{}
336,585,1.0,39.11521443121589,4.0,9.0,11.04536101718726,12.041594578792296,11.04536101718726,25.019992006393608,16.0312195418814,15.5,17.0,14.0,4.5,9.5,0.5,1.5,4.0,3.0,3.0,14.0,17.0,18.027756377319943,{}
337,586,0.0,38.2099463490856,5.0990195135927845,10.0,11.180339887498947,12.16552506059644,10.0,25.019992006393608,15.033296378372908,15.0,17.0,13.0,5.0,10.0,0.0,2.0,4.123105625617661,3.0,3.0,13.0,16.0,18.110770276274835,{}
338,587,1.0,38.2099463490856,5.0,9.055385138137416,11.04536101718726,12.041594578792296,11.0,26.019223662515376,17.0,16.5,17.0,13.0,4.0,11.0,2.0,1.0,4.0,4.0,3.5,13.0,17.0,17.11724276862369,{}
339,588,5.0,40.11234224026316,5.0,9.055385138137416,11.180339887498947,12.041594578792296,11.0,30.01666203960727,21.0,18.5,17.0,14.0,4.5,14.5,4.5,1.5,5.0,4.123105625617661,4.0,14.0,17.0,17.11724276862369,{}
340,589,9.055385138137416,39.20459156782532,4.0,9.055385138137416,12.041594578792296,13.038404810405298,11.04536101718726,33.015148038438355,24.0,19.5,18.0,14.0,5.0,17.0,8.0,2.0,4.0,4.0,4.0,13.0,16.0,18.027756377319943,{}
341,590,8.0,41.10960958218893,4.0,9.055385138137416,11.04536101718726,12.041594578792296,10.0,31.016124838541646,22.0,18.0,16.0,13.0,4.5,16.5,6.5,1.5,4.0,4.123105625617661,3.5,14.0,16.0,17.11724276862369,{}
342,591,3.0,40.11234224026316,4.0,9.055385138137416,12.041594578792296,12.041594578792296,11.04536101718726,27.073972741361768,18.027756377319943,16.5,16.0,13.0,3.5,12.5,3.5,0.5,4.0,4.0,3.5,13.0,16.0,17.11724276862369,{}
343,592,3.0,40.11234224026316,3.0,9.055385138137416,12.041594578792296,12.041594578792296,11.04536101718726,26.0768096208106,17.029386365926403,15.5,16.0,13.0,3.5,11.5,2.5,1.5,4.123105625617661,3.1622776601683795,3.0,13.0,16.0,17.029386365926403,{}
344,593,2.0,39.20459156782532,4.0,9.055385138137416,12.041594578792296,12.16552506059644,10.04987562112089,25.079872407968907,16.0312195418814,15.0,16.0,12.0,4.0,11.0,2.0,2.0,3.1622776601683795,3.0,3.0,13.0,17.0,17.11724276862369,{}
345,594,1.0,39.20459156782532,5.0,9.055385138137416,12.16552506059644,12.041594578792296,9.055385138137416,24.08318915758459,15.033296378372908,14.5,16.0,12.0,5.0,10.0,1.0,2.0,3.0,3.1622776601683795,3.0,12.0,16.0,19.1049731745428,{}
346,595,1.0,39.20459156782532,4.123105625617661,10.04987562112089,11.04536101718726,12.16552506059644,10.04987562112089,25.179356624028344,15.132745950421556,14.5,17.0,13.0,5.0,10.0,0.0,2.0,3.0,3.1622776601683795,3.0,12.0,17.0,19.1049731745428,{}
347,596,1.4142135623730951,39.319206502675,5.0,9.055385138137416,11.04536101718726,12.041594578792296,10.04987562112089,25.179356624028344,16.1245154965971,15.5,18.0,13.0,5.5,9.5,0.5,2.5,3.1622776601683795,4.123105625617661,3.5,12.0,17.0,18.24828759089466,{}
348,597,2.23606797749979,39.45883931389772,4.0,9.055385138137416,12.041594578792296,12.041594578792296,10.04987562112089,25.179356624028344,16.1245154965971,15.0,19.0,13.0,6.0,9.0,1.0,3.0,4.0,3.1622776601683795,3.5,12.0,17.0,17.11724276862369,{}
349,598,3.1622776601683795,38.3275357934736,4.0,10.04987562112089,11.04536101718726,12.16552506059644,10.04987562112089,27.16615541441225,17.11724276862369,15.5,18.0,13.0,5.5,11.5,1.5,2.5,4.0,5.0990195135927845,5.0,12.0,18.0,17.11724276862369,{}
350,599,6.0,39.45883931389772,5.0990195135927845,8.06225774829855,11.04536101718726,13.152946437965904,11.180339887498947,30.26549190084312,22.20360331117452,19.0,20.0,14.0,6.0,13.0,5.0,2.0,5.0,5.385164807134504,5.5,12.0,19.0,20.09975124224178,{}
351,600,1.4142135623730951,39.6232255123179,5.0,9.055385138137416,12.041594578792296,12.36931687685298,11.180339887498947,26.30589287593181,17.26267650163207,16.5,20.0,13.0,5.5,9.5,0.5,1.5,6.0,5.0990195135927845,5.0,12.0,19.0,19.235384061671343,{}
352,601,0.0,39.45883931389772,5.0990195135927845,9.055385138137416,11.180339887498947,12.16552506059644,11.04536101718726,25.179356624028344,16.1245154965971,16.0,19.0,13.0,5.0,9.0,0.0,2.0,5.0,5.0990195135927845,5.0,10.0,18.0,19.1049731745428,{}
353,602,1.0,39.6232255123179,5.0,9.055385138137416,12.041594578792296,12.16552506059644,10.198039027185567,24.33105012119288,15.297058540778355,15.0,19.0,12.0,5.5,8.5,0.5,1.5,5.0,5.0990195135927845,5.0,11.0,19.0,17.26267650163207,{}
354,603,1.0,38.63935817272331,5.0990195135927845,9.055385138137416,10.198039027185567,11.40175425099138,11.180339887498947,25.495097567963924,16.492422502470642,16.0,20.0,13.0,5.5,8.5,0.5,2.5,6.082762530298219,5.0990195135927845,5.0,10.0,18.0,19.235384061671343,{}
355,604,1.0,39.81205847478876,5.0990195135927845,9.055385138137416,11.180339887498947,12.36931687685298,11.180339887498947,25.495097567963924,16.492422502470642,16.0,21.0,13.0,6.0,8.0,0.0,3.0,6.082762530298219,5.385164807134504,5.0,10.0,19.0,19.4164878389476,{}
356,605,1.0,39.81205847478876,5.0990195135927845,9.219544457292889,11.180339887498947,12.16552506059644,11.180339887498947,26.476404589747453,17.26267650163207,16.5,21.0,13.0,6.0,9.0,0.0,3.0,5.0,6.082762530298219,6.0,10.0,19.0,18.24828759089466,{}
357,606,3.0,37.8549864614954,5.0990195135927845,10.04987562112089,11.180339887498947,12.16552506059644,11.180339887498947,29.27456233660889,19.235384061671343,17.5,22.0,14.0,7.0,11.0,1.0,3.0,6.082762530298219,5.0990195135927845,5.0,10.0,19.0,16.278820596099706,{}
358,607,3.1622776601683795,36.87817782917155,6.082762530298219,10.04987562112089,12.16552506059644,12.36931687685298,11.04536101718726,30.26549190084312,20.223748416156685,18.5,23.0,15.0,8.0,11.0,1.0,4.0,6.082762530298219,6.324555320336759,6.0,9.0,19.0,19.4164878389476,{}
359,608,1.0,35.6931365951495,6.082762530298219,10.04987562112089,11.04536101718726,11.40175425099138,10.198039027185567,27.29468812791236,17.26267650163207,16.5,22.0,15.0,8.5,8.5,0.5,3.5,6.082762530298219,6.082762530298219,6.0,10.0,19.0,19.235384061671343,{}
360,609,0.0,37.8549864614954,6.082762530298219,11.180339887498947,10.198039027185567,11.180339887498947,11.04536101718726,28.284271247461906,17.11724276862369,17.0,23.0,15.0,8.0,9.0,1.0,4.0,7.071067811865476,6.082762530298219,6.0,10.0,19.0,19.4164878389476,{}
361,610,3.1622776601683795,38.8329756778952,6.082762530298219,10.04987562112089,10.198039027185567,11.40175425099138,11.04536101718726,30.26549190084312,20.223748416156685,18.5,22.0,14.0,7.0,12.0,2.0,3.0,5.0,5.385164807134504,5.5,10.0,20.0,16.492422502470642,{}
362,611,6.0,38.63935817272331,5.0990195135927845,10.04987562112089,11.180339887498947,12.16552506059644,10.198039027185567,31.25699921617557,21.213203435596427,18.0,21.0,14.0,7.5,13.5,3.5,3.5,6.082762530298219,5.385164807134504,5.5,11.0,20.0,16.492422502470642,{}
363,612,7.071067811865476,38.63935817272331,5.0,10.04987562112089,11.04536101718726,12.16552506059644,10.198039027185567,32.2490309931942,22.20360331117452,18.5,21.0,14.0,7.5,14.5,4.5,3.5,6.082762530298219,5.0990195135927845,5.5,10.0,20.0,19.235384061671343,{}
364,613,7.0,36.49657518178932,5.0,9.055385138137416,11.04536101718726,12.36931687685298,10.198039027185567,31.14482300479488,22.09072203437452,18.5,20.0,14.0,7.0,14.0,5.0,3.0,6.0,6.082762530298219,6.0,11.0,19.0,18.24828759089466,{}
365,614,6.0,36.49657518178932,5.0,10.04987562112089,11.04536101718726,12.16552506059644,11.180339887498947,32.14031735997639,22.09072203437452,19.0,21.0,15.0,7.0,14.0,4.0,3.0,5.0,5.0990195135927845,5.0,10.0,19.0,21.213203435596427,{}
366,615,6.082762530298219,38.3275357934736,5.0,9.055385138137416,11.180339887498947,11.40175425099138,10.04987562112089,30.14962686336267,21.095023109728988,18.0,19.0,14.0,6.5,13.5,4.5,2.5,4.0,4.47213595499958,4.5,11.0,18.0,19.235384061671343,{}
367,616,0.0,37.48332962798263,5.0,9.055385138137416,10.198039027185567,10.198039027185567,12.041594578792296,26.0768096208106,17.029386365926403,17.0,19.0,13.0,4.0,10.0,2.0,1.0,5.0,5.385164807134504,5.0,12.0,18.0,20.223748416156685,{}
368,617,1.0,39.45883931389772,5.0,9.055385138137416,10.198039027185567,10.198039027185567,12.041594578792296,25.079872407968907,16.0312195418814,16.5,19.0,13.0,4.0,9.0,0.0,1.0,4.123105625617661,5.0990195135927845,5.0,12.0,18.0,19.1049731745428,{}
369,618,1.0,40.311288741492746,5.0,9.055385138137416,10.04987562112089,10.04987562112089,12.041594578792296,25.079872407968907,16.0312195418814,16.5,19.0,14.0,4.5,8.5,0.5,0.5,5.0,4.123105625617661,4.5,12.0,17.0,18.110770276274835,{}
370,619,0.0,39.319206502675,5.0,8.0,10.04987562112089,11.180339887498947,12.041594578792296,25.019992006393608,17.029386365926403,17.0,19.0,14.0,4.5,8.5,0.5,0.5,4.0,3.0,3.5,12.0,17.0,18.027756377319943,{}
371,620,4.0,38.2099463490856,5.0,9.0,10.04987562112089,11.04536101718726,11.04536101718726,29.017236257093817,20.024984394500787,18.0,20.0,16.0,7.0,11.0,2.0,3.0,4.0,5.0990195135927845,4.5,14.0,17.0,17.029386365926403,{}
372,621,6.082762530298219,37.21558813185679,5.0,9.0,11.04536101718726,11.04536101718726,11.04536101718726,31.0,22.0,19.0,20.0,16.0,7.0,13.0,4.0,3.0,3.0,3.0,3.0,15.0,18.0,17.029386365926403,{}
373,622,7.071067811865476,36.05551275463989,5.0,10.0,10.04987562112089,11.04536101718726,10.04987562112089,32.0,22.0,18.5,18.0,16.0,7.0,15.0,5.0,3.0,4.0,3.0,3.5,14.0,17.0,16.0312195418814,{}
374,623,8.0,35.05709628591621,6.0,9.0,10.04987562112089,11.04536101718726,10.0,33.0,24.0,20.0,19.0,17.0,8.0,15.0,6.0,3.0,4.0,4.123105625617661,4.0,15.0,18.0,17.029386365926403,{}
375,624,7.071067811865476,36.05551275463989,5.0,10.0,10.0,11.180339887498947,10.04987562112089,32.0,22.0,18.5,18.0,16.0,7.0,15.0,5.0,2.0,4.0,4.0,4.0,15.0,17.0,17.029386365926403,{}
376,625,7.0,35.05709628591621,5.0990195135927845,10.0,10.0,11.180339887498947,10.04987562112089,32.0,22.0,18.5,18.0,16.0,7.0,15.0,5.0,2.0,4.0,4.0,4.5,15.0,17.0,19.026297590440446,{}
377,626,6.0,34.058772731852805,5.0990195135927845,10.0,10.0,11.04536101718726,10.04987562112089,31.0,21.0,18.0,18.0,16.0,7.0,14.0,3.0,2.0,3.0,4.0,4.5,16.0,18.0,17.0,{}
378,627,6.082762530298219,36.05551275463989,5.0,9.0,10.04987562112089,11.04536101718726,10.04987562112089,30.0,21.0,18.0,18.0,16.0,7.0,13.0,4.0,3.0,3.0,4.123105625617661,4.0,16.0,17.0,17.0,{}
379,628,6.082762530298219,35.0142828000232,5.0,9.0,10.04987562112089,11.04536101718726,10.0,30.01666203960727,21.02379604162864,18.0,18.0,17.0,7.5,12.5,3.5,3.5,3.0,3.0,3.0,17.0,17.0,18.027756377319943,{}
380,629,6.082762530298219,35.0142828000232,5.0,9.0,10.04987562112089,11.04536101718726,10.0,30.01666203960727,21.02379604162864,18.0,17.0,16.0,6.5,13.5,4.5,2.5,3.0,3.0,3.0,17.0,17.0,18.027756377319943,{}
381,630,7.071067811865476,36.013886210738214,5.0,9.0,9.0,11.04536101718726,10.0,31.016124838541646,22.02271554554524,18.5,17.0,16.0,6.5,14.5,5.5,1.5,4.123105625617661,4.0,4.0,16.0,16.0,18.0,{}
382,631,8.06225774829855,36.013886210738214,5.0,9.0,10.0,11.04536101718726,10.04987562112089,32.0624390837628,23.08679276123039,19.0,18.0,17.0,7.5,14.5,4.5,2.5,5.0,5.0,5.0,18.0,17.0,17.029386365926403,{}
383,632,8.06225774829855,34.0,5.0,10.04987562112089,10.0,11.04536101718726,11.0,34.058772731852805,24.020824298928627,20.0,18.0,18.0,7.0,16.0,6.0,2.0,5.0,5.0990195135927845,5.0,18.0,17.0,17.0,{}
384,633,5.0990195135927845,35.0,5.0,10.04987562112089,9.0,11.0,10.0,30.066592756745816,20.024984394500787,17.5,17.0,17.0,7.0,13.0,2.0,2.0,5.0,6.0,5.5,18.0,16.0,16.0312195418814,{}
385,634,1.0,35.0142828000232,5.0990195135927845,9.0,10.0,11.0,10.04987562112089,25.0,16.0,15.5,16.0,17.0,6.5,8.5,0.5,1.5,5.0990195135927845,5.0,5.5,18.0,15.0,18.0,{}
386,635,1.0,36.013886210738214,6.0,9.0,9.055385138137416,10.0,9.0,24.020824298928627,15.033296378372908,15.0,15.0,16.0,6.5,8.5,1.5,0.5,5.0990195135927845,5.0,5.0,17.0,14.0,18.027756377319943,{}
387,636,1.4142135623730951,37.05401462729781,5.0,9.0,11.0,12.0,9.055385138137416,24.0,15.0,14.5,15.0,17.0,7.0,8.0,2.0,2.0,5.0990195135927845,5.0,4.5,18.0,15.0,17.029386365926403,{}
388,637,3.0,36.05551275463989,5.0,10.04987562112089,10.0,12.041594578792296,9.0,27.018512172212592,17.0,15.5,16.0,18.0,8.0,10.0,0.0,3.0,5.0990195135927845,5.0,5.0,17.0,14.0,18.110770276274835,{}
389,638,0.0,36.05551275463989,6.0,10.04987562112089,9.0,10.0,9.055385138137416,25.079872407968907,15.033296378372908,15.0,15.0,17.0,7.0,9.0,1.0,1.0,5.0990195135927845,5.0990195135927845,5.0,18.0,13.0,18.027756377319943,{}
390,639,0.0,37.12142238654117,5.0990195135927845,10.04987562112089,10.0,11.0,11.04536101718726,26.1725046566048,16.1245154965971,16.0,15.0,18.0,5.5,9.5,0.5,0.5,5.0990195135927845,6.0,5.5,18.0,13.0,17.029386365926403,{}
391,640,2.23606797749979,37.12142238654117,6.0,9.055385138137416,9.055385138137416,10.04987562112089,11.04536101718726,28.16025568065745,19.1049731745428,18.0,15.0,18.0,5.5,11.5,1.5,0.5,6.082762530298219,5.0990195135927845,5.5,19.0,14.0,16.0312195418814,{}
392,641,4.123105625617661,37.12142238654117,6.082762530298219,9.055385138137416,9.055385138137416,11.04536101718726,10.0,29.154759474226505,20.09975124224178,18.0,15.0,18.0,6.5,12.5,2.5,0.5,5.0990195135927845,5.0990195135927845,5.5,19.0,14.0,18.110770276274835,{}
393,642,3.1622776601683795,37.12142238654117,6.0,10.04987562112089,10.04987562112089,11.0,10.04987562112089,29.154759474226505,19.1049731745428,17.5,15.0,18.0,6.5,12.5,1.5,0.5,5.0990195135927845,5.0,5.0,20.0,14.0,15.132745950421556,{}
394,643,4.123105625617661,37.21558813185679,6.082762530298219,9.055385138137416,10.04987562112089,11.04536101718726,10.0,29.154759474226505,20.09975124224178,18.0,15.0,19.0,7.0,12.0,2.0,1.0,5.0990195135927845,5.0,5.0,20.0,13.0,16.1245154965971,{}
395,644,4.123105625617661,35.35533905932738,6.082762530298219,10.04987562112089,10.04987562112089,11.04536101718726,9.0,29.154759474226505,19.1049731745428,17.0,15.0,20.0,8.5,11.5,0.5,2.5,6.082762530298219,5.0,5.5,19.0,13.0,16.0312195418814,{}
396,645,3.1622776601683795,34.23448553724738,6.082762530298219,10.04987562112089,10.04987562112089,11.04536101718726,10.04987562112089,29.27456233660889,19.235384061671343,17.5,16.0,20.0,8.0,11.0,0.0,2.0,6.082762530298219,6.0,6.0,20.0,13.0,16.0312195418814,{}
397,646,5.0990195135927845,34.23448553724738,5.0990195135927845,10.04987562112089,10.04987562112089,12.041594578792296,10.0,30.14962686336267,20.09975124224178,17.5,17.0,21.0,9.0,11.0,0.0,3.0,6.082762530298219,6.0,6.0,20.0,13.0,17.11724276862369,{}
398,647,4.123105625617661,33.24154027718932,6.082762530298219,10.198039027185567,11.04536101718726,11.04536101718726,10.0,30.26549190084312,20.09975124224178,18.0,17.0,21.0,9.0,11.0,0.0,3.0,6.082762530298219,6.082762530298219,5.5,20.0,13.0,17.11724276862369,{}
399,648,5.0990195135927845,33.24154027718932,5.0,11.04536101718726,9.055385138137416,11.0,9.055385138137416,30.14962686336267,19.1049731745428,16.5,16.0,20.0,9.0,12.0,1.0,3.0,6.082762530298219,6.0,6.0,20.0,13.0,16.0312195418814,{}
400,649,5.0990195135927845,32.2490309931942,5.0,10.04987562112089,9.055385138137416,11.0,10.0,30.066592756745816,20.024984394500787,17.5,17.0,21.0,9.0,11.0,0.0,4.0,6.082762530298219,6.0,6.0,19.0,13.0,16.0312195418814,{}
401,650,4.0,33.13608305156178,6.082762530298219,10.04987562112089,10.04987562112089,11.04536101718726,9.0,29.068883707497267,19.026297590440446,17.0,17.0,20.0,9.5,10.5,0.5,3.5,6.082762530298219,6.0,5.5,20.0,14.0,16.0312195418814,{}
402,651,2.23606797749979,33.13608305156178,6.0,10.0,10.04987562112089,11.0,9.0,27.018512172212592,17.029386365926403,16.0,16.0,19.0,8.5,9.5,1.5,2.5,6.082762530298219,6.0,6.0,20.0,14.0,16.0312195418814,{}
403,652,1.4142135623730951,35.12833614050059,5.0,8.06225774829855,9.055385138137416,10.0,10.0,24.08318915758459,16.0312195418814,15.5,16.0,19.0,7.5,6.5,2.5,2.5,6.082762530298219,6.082762530298219,6.0,19.0,14.0,17.11724276862369,{}
404,653,1.4142135623730951,34.132096331752024,5.0990195135927845,8.0,10.04987562112089,11.0,10.0,24.08318915758459,16.1245154965971,15.5,15.0,18.0,6.5,7.5,1.5,1.5,6.082762530298219,6.0,6.0,19.0,14.0,16.0312195418814,{}
405,654,1.0,37.12142238654117,6.082762530298219,10.04987562112089,10.0,11.0,10.0,27.073972741361768,17.029386365926403,16.5,15.0,18.0,6.5,10.5,0.5,1.5,6.082762530298219,6.082762530298219,5.5,19.0,14.0,17.029386365926403,{}
406,655,3.0,37.05401462729781,5.0990195135927845,10.04987562112089,10.0,11.0,10.0,28.0713376952364,18.027756377319943,16.5,16.0,18.0,7.0,11.0,0.0,2.0,5.0990195135927845,5.0,5.5,19.0,14.0,18.110770276274835,{}
407,656,4.123105625617661,37.12142238654117,6.082762530298219,10.0,10.04987562112089,11.0,9.0,29.068883707497267,19.1049731745428,17.0,15.0,18.0,7.5,12.5,1.5,1.5,6.082762530298219,6.082762530298219,6.0,20.0,15.0,16.0312195418814,{}
408,657,4.123105625617661,37.12142238654117,6.082762530298219,10.04987562112089,10.04987562112089,11.04536101718726,9.0,29.154759474226505,19.1049731745428,17.0,15.0,18.0,7.5,12.5,1.5,1.5,6.082762530298219,6.082762530298219,6.0,19.0,14.0,17.0,{}
409,658,5.0990195135927845,37.21558813185679,6.082762530298219,10.04987562112089,11.04536101718726,12.0,9.0,30.14962686336267,20.09975124224178,17.5,15.0,19.0,8.0,13.0,2.0,2.0,5.0990195135927845,5.0,5.5,19.0,14.0,17.11724276862369,{}
410,659,6.082762530298219,38.2099463490856,6.082762530298219,9.055385138137416,10.04987562112089,11.04536101718726,9.0,30.14962686336267,21.095023109728988,18.0,15.0,19.0,8.0,13.0,3.0,2.0,6.082762530298219,6.082762530298219,5.5,19.0,14.0,17.029386365926403,{}
411,660,5.0990195135927845,36.12478373637688,6.082762530298219,11.04536101718726,10.04987562112089,11.0,9.0,31.14482300479488,20.09975124224178,17.5,15.0,18.0,7.5,14.5,2.5,1.5,5.0990195135927845,6.0,5.5,20.0,15.0,18.027756377319943,{}
412,661,7.071067811865476,38.05259518088089,6.0,10.04987562112089,11.04536101718726,12.0,10.04987562112089,33.13608305156178,23.08679276123039,19.5,16.0,18.0,7.0,16.0,5.0,1.0,5.0990195135927845,6.082762530298219,5.5,19.0,14.0,17.11724276862369,{}
413,662,8.06225774829855,38.11823710509184,6.082762530298219,10.04987562112089,10.04987562112089,12.0,10.04987562112089,34.23448553724738,24.186773244895647,20.0,16.0,19.0,7.5,16.5,5.5,1.5,5.0990195135927845,5.0,5.0,20.0,14.0,16.0312195418814,{}
414,663,5.0,38.11823710509184,6.082762530298219,11.04536101718726,10.04987562112089,11.04536101718726,9.055385138137416,31.14482300479488,20.09975124224178,17.5,15.0,18.0,7.5,14.5,3.5,1.5,5.0990195135927845,6.0,5.5,20.0,14.0,16.0312195418814,{}
415,664,6.082762530298219,38.2099463490856,6.082762530298219,10.04987562112089,10.04987562112089,12.0,10.04987562112089,32.2490309931942,22.20360331117452,19.0,16.0,20.0,8.0,14.0,3.0,2.0,6.082762530298219,6.0,6.0,20.0,14.0,17.029386365926403,{}
416,665,5.0990195135927845,38.11823710509184,6.082762530298219,11.04536101718726,11.04536101718726,12.041594578792296,10.04987562112089,32.2490309931942,21.213203435596427,18.5,16.0,19.0,7.5,14.5,2.5,1.5,6.324555320336759,7.071067811865476,6.5,20.0,14.0,17.029386365926403,{}
417,666,6.082762530298219,38.11823710509184,6.0,10.04987562112089,11.04536101718726,11.0,10.198039027185567,32.2490309931942,22.20360331117452,19.0,16.0,19.0,7.5,14.5,3.5,1.5,6.082762530298219,5.0,5.5,20.0,14.0,17.029386365926403,{}
418,667,5.0990195135927845,37.12142238654117,5.0,10.04987562112089,11.04536101718726,11.0,11.04536101718726,31.14482300479488,21.095023109728988,18.5,16.0,19.0,6.5,13.5,2.5,1.5,5.0990195135927845,6.0,6.0,20.0,13.0,17.029386365926403,{}
419,668,5.0990195135927845,37.12142238654117,5.0,10.04987562112089,11.04536101718726,11.0,10.198039027185567,30.26549190084312,20.223748416156685,17.5,15.0,18.0,6.5,13.5,2.5,1.5,5.0990195135927845,5.0,5.0,19.0,13.0,16.0312195418814,{}
420,669,5.385164807134504,38.11823710509184,5.0,10.04987562112089,11.0,12.0,10.198039027185567,30.4138126514911,20.39607805437113,17.5,15.0,18.0,6.5,13.5,2.5,1.5,3.1622776601683795,3.1622776601683795,3.0,21.0,14.0,18.027756377319943,{}
421,670,4.123105625617661,38.2099463490856,5.0,9.055385138137416,11.04536101718726,12.0,10.198039027185567,28.284271247461906,19.235384061671343,17.0,14.0,18.0,6.0,12.0,2.0,1.0,4.123105625617661,4.0,3.5,21.0,14.0,18.110770276274835,{}
422,671,4.123105625617661,37.21558813185679,5.0990195135927845,9.055385138137416,11.04536101718726,12.041594578792296,10.04987562112089,28.284271247461906,19.235384061671343,17.0,14.0,18.0,6.0,12.0,2.0,1.0,4.123105625617661,3.1622776601683795,3.0,20.0,13.0,17.11724276862369,{}
423,672,2.23606797749979,37.33630940518894,6.082762530298219,9.055385138137416,11.04536101718726,12.041594578792296,10.04987562112089,27.29468812791236,18.24828759089466,17.0,14.0,19.0,6.5,10.5,0.5,1.5,4.123105625617661,4.123105625617661,3.5,20.0,13.0,17.11724276862369,{}
424,673,1.4142135623730951,37.21558813185679,5.0990195135927845,8.06225774829855,10.04987562112089,11.04536101718726,11.0,25.179356624028344,17.11724276862369,16.5,15.0,19.0,6.0,8.0,2.0,1.0,4.123105625617661,4.123105625617661,4.0,20.0,13.0,17.029386365926403,{}
425,674,1.0,37.12142238654117,5.0990195135927845,9.055385138137416,10.04987562112089,11.0,11.0,25.179356624028344,16.1245154965971,16.0,16.0,19.0,6.5,7.5,2.5,1.5,4.123105625617661,4.123105625617661,3.5,20.0,12.0,17.11724276862369,{}
426,675,1.0,36.22154055254967,5.0990195135927845,10.0,10.04987562112089,11.04536101718726,10.04987562112089,25.179356624028344,15.297058540778355,15.0,14.0,18.0,6.0,9.0,1.0,1.0,3.1622776601683795,3.0,3.0,20.0,13.0,16.1245154965971,{}
427,676,1.4142135623730951,36.12478373637688,4.123105625617661,9.055385138137416,10.04987562112089,11.04536101718726,11.04536101718726,25.317977802344327,16.278820596099706,15.5,15.0,18.0,5.5,8.5,1.5,1.5,4.123105625617661,4.0,3.5,20.0,13.0,17.11724276862369,{}
428,677,1.4142135623730951,36.22154055254967,4.123105625617661,9.055385138137416,10.04987562112089,11.04536101718726,11.0,25.179356624028344,16.1245154965971,15.5,15.0,19.0,6.0,8.0,2.0,2.0,4.123105625617661,4.123105625617661,3.5,20.0,13.0,17.11724276862369,{}
429,678,1.4142135623730951,37.21558813185679,4.123105625617661,9.055385138137416,10.04987562112089,11.04536101718726,11.0,25.179356624028344,16.1245154965971,15.5,15.0,19.0,6.0,8.0,2.0,2.0,3.1622776601683795,4.123105625617661,3.5,20.0,13.0,17.11724276862369,{}
430,679,1.4142135623730951,38.2099463490856,4.123105625617661,9.055385138137416,10.04987562112089,11.04536101718726,11.0,25.179356624028344,16.1245154965971,15.5,15.0,19.0,6.0,8.0,2.0,2.0,4.123105625617661,3.0,3.0,20.0,12.0,17.11724276862369,{}
431,680,1.4142135623730951,37.21558813185679,4.123105625617661,9.055385138137416,10.04987562112089,11.04536101718726,11.04536101718726,25.317977802344327,16.278820596099706,15.5,15.0,19.0,6.0,8.0,2.0,2.0,5.0990195135927845,5.0990195135927845,4.0,20.0,12.0,17.11724276862369,{}
432,681,1.0,38.2099463490856,5.0990195135927845,9.0,10.04987562112089,11.04536101718726,11.0,25.079872407968907,16.1245154965971,16.0,15.0,19.0,6.0,8.0,2.0,1.0,6.082762530298219,6.082762530298219,5.5,21.0,13.0,17.11724276862369,{}
433,682,1.0,37.21558813185679,5.0990195135927845,9.055385138137416,10.04987562112089,11.0,10.0,24.186773244895647,15.132745950421556,15.0,14.0,18.0,6.0,8.0,2.0,1.0,5.0990195135927845,5.0990195135927845,4.5,20.0,12.0,17.029386365926403,{}
434,683,1.4142135623730951,38.2099463490856,4.123105625617661,9.055385138137416,10.04987562112089,11.04536101718726,11.0,25.179356624028344,16.1245154965971,15.5,14.0,18.0,5.0,9.0,1.0,1.0,5.0990195135927845,5.0,5.0,20.0,13.0,15.132745950421556,{}
435,684,1.0,37.21558813185679,5.0990195135927845,9.055385138137416,11.04536101718726,11.04536101718726,10.0,24.186773244895647,15.132745950421556,15.0,15.0,19.0,7.0,7.0,3.0,2.0,4.123105625617661,4.0,4.0,20.0,12.0,16.1245154965971,{}
436,685,1.0,37.12142238654117,5.0,9.055385138137416,10.04987562112089,11.04536101718726,10.04987562112089,24.186773244895647,15.132745950421556,15.0,15.0,18.0,6.5,7.5,2.5,1.5,4.123105625617661,4.0,3.5,20.0,12.0,16.1245154965971,{}
437,686,1.0,38.2099463490856,5.0,9.055385138137416,11.04536101718726,11.0,10.04987562112089,24.186773244895647,15.132745950421556,15.0,15.0,19.0,7.0,7.0,3.0,2.0,4.0,4.123105625617661,3.5,20.0,13.0,17.11724276862369,{}
438,687,1.0,38.2099463490856,5.0,9.055385138137416,10.04987562112089,11.04536101718726,10.04987562112089,24.186773244895647,15.132745950421556,15.0,15.0,19.0,7.0,7.0,3.0,2.0,5.0990195135927845,4.123105625617661,4.0,20.0,12.0,17.029386365926403,{}
439,688,1.0,38.2099463490856,5.0990195135927845,9.055385138137416,10.04987562112089,11.04536101718726,10.0,24.186773244895647,15.132745950421556,15.0,15.0,19.0,7.0,7.0,3.0,2.0,5.0990195135927845,4.123105625617661,4.0,20.0,13.0,17.11724276862369,{}
440,689,1.0,38.2099463490856,5.0990195135927845,9.0,10.04987562112089,11.04536101718726,10.0,24.08318915758459,15.132745950421556,15.0,15.0,19.0,7.0,7.0,3.0,2.0,5.0990195135927845,4.123105625617661,4.0,20.0,13.0,17.11724276862369,{}
441,690,1.0,38.11823710509184,5.0,9.055385138137416,10.04987562112089,11.04536101718726,10.04987562112089,24.186773244895647,15.132745950421556,15.0,15.0,18.0,6.5,7.5,2.5,1.5,5.0990195135927845,4.123105625617661,4.0,19.0,12.0,17.11724276862369,{}
442,691,1.0,38.11823710509184,5.0,9.055385138137416,11.04536101718726,11.04536101718726,10.04987562112089,24.186773244895647,15.132745950421556,15.0,15.0,18.0,6.5,7.5,2.5,1.5,4.123105625617661,4.123105625617661,4.0,19.0,12.0,19.1049731745428,{}
443,692,1.0,38.11823710509184,5.0990195135927845,9.055385138137416,10.04987562112089,11.04536101718726,10.0,24.186773244895647,15.132745950421556,15.0,15.0,18.0,6.5,7.5,2.5,1.5,4.123105625617661,4.123105625617661,3.5,20.0,13.0,17.11724276862369,{}
444,693,1.0,37.12142238654117,5.0990195135927845,9.055385138137416,10.04987562112089,11.04536101718726,11.0,25.179356624028344,16.1245154965971,16.0,16.0,19.0,6.5,7.5,2.5,1.5,4.123105625617661,4.123105625617661,4.0,19.0,12.0,18.027756377319943,{}
445,694,1.0,38.11823710509184,6.082762530298219,10.0,10.04987562112089,11.04536101718726,10.0,26.0768096208106,16.1245154965971,16.0,16.0,19.0,7.5,8.5,2.5,1.5,4.123105625617661,4.0,4.0,18.0,12.0,16.1245154965971,{}
446,695,1.0,37.12142238654117,5.0990195135927845,10.04987562112089,11.04536101718726,12.041594578792296,10.0,26.0768096208106,16.0312195418814,15.5,17.0,20.0,8.5,7.5,3.5,3.5,4.123105625617661,3.0,3.0,18.0,12.0,14.0356688476182,{}
447,696,0.0,38.11823710509184,5.0990195135927845,10.04987562112089,10.04987562112089,10.04987562112089,11.04536101718726,26.1725046566048,16.1245154965971,16.0,16.0,19.0,6.5,8.5,2.5,1.5,4.123105625617661,5.0,4.5,18.0,13.0,14.0,{}
448,697,1.0,39.11521443121589,5.0,10.04987562112089,11.04536101718726,11.04536101718726,12.041594578792296,27.16615541441225,17.11724276862369,17.0,17.0,20.0,6.5,8.5,2.5,1.5,5.0990195135927845,5.0,5.0,17.0,13.0,12.0,{}
449,698,2.23606797749979,42.04759208325728,6.0,10.04987562112089,11.04536101718726,12.041594578792296,10.04987562112089,28.16025568065745,18.110770276274835,17.0,18.0,20.0,9.0,9.0,2.0,3.0,5.0990195135927845,5.0,5.0,17.0,13.0,14.0356688476182,{}
450,699,4.0,42.01190307520001,6.082762530298219,9.055385138137416,12.041594578792296,14.0,8.06225774829855,27.16615541441225,18.110770276274835,16.0,18.0,19.0,10.5,8.5,1.5,4.5,5.0,5.0,5.0,17.0,13.0,12.041594578792296,{}
451,700,5.0990195135927845,42.04759208325728,5.0,10.0,12.0,14.0,8.06225774829855,28.0713376952364,18.110770276274835,15.5,18.0,20.0,11.0,9.0,1.0,6.0,4.123105625617661,4.0,4.5,16.0,12.0,12.0,{}
452,701,6.0,41.01219330881976,5.0990195135927845,10.04987562112089,12.041594578792296,13.0,8.0,29.068883707497267,19.026297590440446,16.0,18.0,19.0,10.5,10.5,0.5,5.5,5.0,5.0,5.0,16.0,12.0,12.0,{}
453,702,6.082762530298219,41.04875150354759,5.0,10.0,12.0,13.0,9.055385138137416,30.066592756745816,20.09975124224178,17.0,18.0,20.0,10.0,11.0,0.0,5.0,5.0990195135927845,5.0,5.0,16.0,13.0,13.038404810405298,{}
454,703,8.06225774829855,40.01249804748511,5.0,10.0,12.0,13.0,9.055385138137416,32.0624390837628,22.09072203437452,18.0,18.0,19.0,9.5,13.5,2.5,4.5,5.0,5.0,5.5,16.0,13.0,13.0,{}
455,704,4.123105625617661,38.01315561749642,5.0,11.0,12.0,13.0,10.0,30.01666203960727,19.026297590440446,17.0,18.0,19.0,8.5,11.5,0.5,3.5,6.0,6.0,5.5,16.0,12.0,11.0,{}
456,705,4.123105625617661,37.05401462729781,6.0,11.04536101718726,11.0,13.0,10.0,31.064449134018133,20.024984394500787,18.0,18.0,20.0,9.0,12.0,0.0,3.0,5.0,6.0,5.5,16.0,12.0,12.0,{}
457,706,4.123105625617661,36.05551275463989,6.0,12.0,10.04987562112089,12.0,10.0,32.01562118716424,20.024984394500787,18.0,17.0,19.0,8.0,14.0,2.0,2.0,5.0,6.0,5.5,16.0,13.0,12.041594578792296,{}
458,707,5.0,35.0142828000232,6.082762530298219,11.04536101718726,11.0,12.0,10.04987562112089,32.01562118716424,21.0,18.5,18.0,19.0,8.5,13.5,1.5,2.5,5.0,6.0,6.0,15.0,13.0,12.0,{}
459,708,3.1622776601683795,36.0,6.0,10.0,11.0,11.0,10.04987562112089,29.0,19.0,17.5,18.0,18.0,8.0,11.0,0.0,2.0,6.082762530298219,6.0,6.0,15.0,14.0,13.038404810405298,{}
460,709,0.0,39.01281840626232,5.0,8.0,11.04536101718726,12.041594578792296,10.04987562112089,23.021728866442675,15.033296378372908,15.0,17.0,16.0,6.5,6.5,1.5,2.5,5.0,5.0,5.0,14.0,14.0,13.038404810405298,{}
461,710,1.4142135623730951,39.05124837953327,5.0,8.06225774829855,11.0,11.04536101718726,9.055385138137416,21.02379604162864,13.0,13.5,17.0,15.0,7.0,5.0,3.0,3.0,6.0,5.0990195135927845,5.5,14.0,14.0,12.0,{}
462,711,0.0,38.05259518088089,4.0,7.0,11.0,12.041594578792296,9.055385138137416,20.024984394500787,13.038404810405298,13.0,16.0,14.0,6.0,5.0,2.0,2.0,5.0,5.0990195135927845,5.5,13.0,14.0,12.041594578792296,{}
463,712,0.0,39.11521443121589,4.0,7.0,11.0,12.041594578792296,9.055385138137416,20.024984394500787,13.038404810405298,13.0,17.0,14.0,6.5,4.5,2.5,2.5,6.0,5.0990195135927845,5.5,12.0,14.0,13.0,{}
464,713,2.0,35.12833614050059,4.0,7.071067811865476,10.04987562112089,11.04536101718726,8.06225774829855,21.095023109728988,14.0356688476182,13.0,14.0,11.0,4.5,8.5,0.5,1.5,4.0,4.123105625617661,4.0,11.0,13.0,13.038404810405298,{}
465,714,1.0,35.12833614050059,4.0,8.06225774829855,10.04987562112089,11.0,8.06225774829855,21.095023109728988,13.038404810405298,12.5,14.0,11.0,4.5,8.5,0.5,1.5,4.0,4.123105625617661,4.0,11.0,13.0,12.16552506059644,{}
466,715,2.0,33.13608305156178,4.0,7.0,10.0,10.04987562112089,8.06225774829855,21.02379604162864,14.0356688476182,13.0,14.0,11.0,4.5,8.5,0.5,0.5,3.1622776601683795,3.1622776601683795,3.0,12.0,14.0,13.038404810405298,{}
467,716,1.0,33.13608305156178,4.123105625617661,7.0,9.055385138137416,10.04987562112089,8.0,20.024984394500787,13.038404810405298,12.5,14.0,11.0,4.5,7.5,0.5,1.5,2.23606797749979,3.0,3.0,12.0,14.0,13.152946437965904,{}
468,717,1.0,31.14482300479488,4.123105625617661,7.0,9.0,10.04987562112089,8.06225774829855,20.09975124224178,13.152946437965904,12.5,15.0,12.0,5.5,6.5,0.5,1.5,5.0,5.0990195135927845,5.0,12.0,14.0,12.041594578792296,{}
469,718,1.0,31.14482300479488,4.123105625617661,7.0,9.0,10.04987562112089,8.06225774829855,20.09975124224178,13.152946437965904,12.5,15.0,12.0,5.5,6.5,0.5,1.5,5.0,5.0990195135927845,5.0,12.0,14.0,12.041594578792296,{}
470,719,0.0,33.13608305156178,5.0990195135927845,8.0,9.0,10.04987562112089,8.06225774829855,21.095023109728988,13.152946437965904,13.0,15.0,12.0,5.5,7.5,0.5,1.5,4.0,4.123105625617661,3.5,13.0,15.0,13.152946437965904,{}
471,720,1.0,32.14031735997639,4.0,7.0,9.0,9.0,9.219544457292889,21.095023109728988,14.142135623730953,13.5,16.0,13.0,5.5,6.5,0.5,1.5,4.0,5.0990195135927845,4.5,16.0,16.0,15.132745950421556,{}
472,721,0.0,33.13608305156178,4.0,8.0,9.055385138137416,10.04987562112089,10.04987562112089,22.02271554554524,14.0356688476182,14.0,16.0,13.0,4.5,7.5,0.5,1.5,4.0,4.123105625617661,3.5,15.0,16.0,14.0356688476182,{}
473,722,1.0,33.13608305156178,4.0,8.0,9.055385138137416,10.04987562112089,10.0,22.02271554554524,14.0356688476182,14.0,16.0,13.0,4.5,7.5,0.5,1.5,4.0,4.123105625617661,4.0,15.0,16.0,15.033296378372908,{}
474,723,0.0,34.058772731852805,4.0,8.06225774829855,9.055385138137416,9.055385138137416,9.055385138137416,21.095023109728988,13.038404810405298,13.0,14.0,12.0,4.0,8.0,0.0,1.0,4.0,4.123105625617661,3.5,15.0,16.0,16.0312195418814,{}
475,724,5.0,35.05709628591621,4.0,8.06225774829855,10.04987562112089,11.0,8.06225774829855,25.079872407968907,17.029386365926403,14.5,15.0,13.0,6.0,11.0,3.0,3.0,4.0,4.123105625617661,4.0,14.0,16.0,16.0312195418814,{}
476,725,4.0,36.05551275463989,3.0,7.071067811865476,10.0,11.04536101718726,8.06225774829855,22.09072203437452,15.033296378372908,13.0,13.0,11.0,4.0,10.0,3.0,1.0,3.0,2.0,2.0,13.0,16.0,14.0356688476182,{}
477,726,4.0,36.05551275463989,3.0,7.071067811865476,10.0,11.04536101718726,8.06225774829855,22.09072203437452,15.033296378372908,13.0,13.0,11.0,4.0,10.0,3.0,1.0,3.0,2.0,2.0,13.0,16.0,14.0356688476182,{}
478,727,3.0,35.12833614050059,3.0,7.071067811865476,10.0,11.04536101718726,8.06225774829855,21.095023109728988,14.0356688476182,12.5,12.0,9.0,2.5,10.5,3.5,0.5,2.0,2.0,2.0,12.0,14.0,13.038404810405298,{}
479,728,5.0,34.058772731852805,3.0,7.071067811865476,10.0,11.0,8.06225774829855,23.08679276123039,16.0312195418814,13.5,13.0,11.0,4.0,11.0,4.0,1.0,4.0,5.0990195135927845,4.5,12.0,15.0,13.038404810405298,{}
480,729,7.0,34.058772731852805,3.0,6.0,10.04987562112089,10.04987562112089,8.06225774829855,24.020824298928627,18.027756377319943,14.5,13.0,11.0,4.0,12.0,5.0,2.0,4.0,4.123105625617661,4.0,11.0,14.0,14.0356688476182,{}
481,730,6.0,34.058772731852805,4.0,8.0,9.0,10.04987562112089,7.071067811865476,25.019992006393608,17.029386365926403,14.0,14.0,12.0,6.0,12.0,4.0,2.0,5.0,4.123105625617661,4.5,11.0,14.0,15.033296378372908,{}
482,731,7.0,34.058772731852805,4.0,7.0,9.055385138137416,10.04987562112089,8.06225774829855,26.019223662515376,19.026297590440446,15.5,14.0,12.0,5.0,13.0,6.0,2.0,4.0,4.123105625617661,4.5,12.0,14.0,13.038404810405298,{}
483,732,5.0,34.058772731852805,3.0,7.0,10.0,10.04987562112089,8.06225774829855,23.021728866442675,16.0312195418814,13.5,13.0,11.0,4.0,11.0,4.0,2.0,5.0,4.123105625617661,4.0,11.0,14.0,14.0356688476182,{}
484,733,5.0,35.05709628591621,3.0,7.0,10.04987562112089,11.04536101718726,7.0,22.0,15.0,12.5,13.0,11.0,5.0,10.0,2.0,3.0,5.0,5.0,4.5,11.0,13.0,14.0,{}
485,734,4.123105625617661,34.058772731852805,3.0,7.071067811865476,11.04536101718726,11.04536101718726,7.071067811865476,21.02379604162864,14.0,12.0,13.0,11.0,5.0,9.0,2.0,3.0,4.0,5.0,4.5,11.0,13.0,14.0356688476182,{}
486,735,4.0,34.058772731852805,3.0,8.0,10.04987562112089,11.04536101718726,7.0,22.0,14.0,12.0,13.0,11.0,5.0,10.0,2.0,3.0,4.0,4.123105625617661,3.5,12.0,13.0,14.0356688476182,{}
487,736,3.1622776601683795,33.015148038438355,5.0,8.06225774829855,9.055385138137416,11.04536101718726,8.06225774829855,24.020824298928627,16.0,14.5,14.0,13.0,5.5,10.5,2.5,1.5,5.0990195135927845,4.123105625617661,4.5,12.0,14.0,14.0356688476182,{}
488,737,4.0,32.01562118716424,4.0,8.0,9.0,10.0,8.06225774829855,24.020824298928627,16.0312195418814,14.0,13.0,12.0,4.5,11.5,3.5,0.5,5.0,5.0990195135927845,4.5,12.0,13.0,15.033296378372908,{}
489,738,4.0,32.01562118716424,4.0,8.0,9.0,10.0,8.06225774829855,24.020824298928627,16.0312195418814,14.0,13.0,12.0,4.5,11.5,3.5,0.5,5.0,5.0990195135927845,4.5,12.0,13.0,15.033296378372908,{}
490,739,4.0,31.064449134018133,4.0,8.0,8.0,10.0,8.0,24.0,16.0,14.0,14.0,12.0,5.0,11.0,3.0,1.0,5.0,5.0,4.5,11.0,13.0,15.033296378372908,{}
491,740,4.0,32.0624390837628,5.0,7.0,9.055385138137416,10.04987562112089,8.06225774829855,24.020824298928627,17.029386365926403,15.0,16.0,14.0,7.0,9.0,1.0,3.0,4.0,4.0,4.0,11.0,12.0,14.0,{}
492,741,1.0,31.064449134018133,4.0,7.0,9.055385138137416,9.0,10.0,22.0,15.0,14.5,15.0,13.0,4.0,8.0,0.0,1.0,4.0,4.123105625617661,4.5,11.0,13.0,14.0,{}
493,742,1.0,31.064449134018133,4.0,7.0,9.0,9.055385138137416,10.0,22.0,15.0,14.5,15.0,13.0,4.0,8.0,1.0,1.0,4.0,4.123105625617661,4.0,11.0,13.0,14.0,{}
494,743,1.0,32.0624390837628,4.0,8.0,8.0,10.04987562112089,10.0,23.0,15.0,14.5,15.0,13.0,4.0,9.0,1.0,0.0,4.0,4.0,4.0,11.0,13.0,13.038404810405298,{}
495,744,4.123105625617661,31.0,5.0,9.0,9.055385138137416,10.0,9.055385138137416,27.0,18.0,16.0,15.0,15.0,6.0,12.0,3.0,2.0,5.0,4.0,4.0,12.0,12.0,15.0,{}
496,745,4.0,30.01666203960727,4.0,8.0,10.0,10.04987562112089,9.0,25.0,17.0,15.0,15.0,14.0,5.5,10.5,2.5,1.5,4.0,4.0,4.0,12.0,13.0,14.0356688476182,{}
497,746,4.0,30.01666203960727,4.0,8.0,10.0,10.04987562112089,9.0,25.0,17.0,15.0,15.0,14.0,5.5,10.5,2.5,1.5,4.0,4.0,4.0,12.0,13.0,14.0356688476182,{}
498,747,1.4142135623730951,31.016124838541646,4.123105625617661,7.071067811865476,9.055385138137416,9.055385138137416,9.0,21.02379604162864,14.0,13.5,14.0,13.0,4.5,7.5,0.5,1.5,5.0,4.123105625617661,4.0,12.0,13.0,14.0356688476182,{}
499,748,0.0,33.24154027718932,3.1622776601683795,8.0,9.055385138137416,9.055385138137416,10.04987562112089,21.095023109728988,13.152946437965904,13.0,16.0,12.0,4.0,7.0,0.0,2.0,5.0,5.0,4.5,10.0,14.0,14.142135623730953,{}
500,749,0.0,33.24154027718932,5.0990195135927845,7.0,9.219544457292889,10.04987562112089,9.0,21.02379604162864,14.0356688476182,14.0,17.0,13.0,6.0,6.0,1.0,3.0,5.0990195135927845,4.123105625617661,4.5,10.0,15.0,14.142135623730953,{}
501,750,1.0,32.2490309931942,4.0,7.071067811865476,8.246211251235321,9.219544457292889,9.055385138137416,21.095023109728988,14.0356688476182,13.5,17.0,13.0,6.0,6.0,1.0,3.0,5.0990195135927845,4.123105625617661,4.5,10.0,15.0,14.0356688476182,{}
502,751,0.0,32.14031735997639,4.123105625617661,8.0,9.055385138137416,9.055385138137416,9.0,21.02379604162864,13.038404810405298,13.0,16.0,13.0,5.5,6.5,1.5,2.5,4.123105625617661,4.123105625617661,4.0,10.0,14.0,14.142135623730953,{}
503,752,0.0,33.24154027718932,4.0,7.071067811865476,9.055385138137416,9.055385138137416,9.055385138137416,20.09975124224178,13.038404810405298,13.0,16.0,12.0,5.0,6.0,1.0,2.0,4.0,4.0,4.0,10.0,14.0,14.142135623730953,{}
504,753,0.0,32.14031735997639,4.123105625617661,8.0,9.055385138137416,9.055385138137416,8.0,20.024984394500787,12.041594578792296,12.0,15.0,12.0,5.5,6.5,1.5,2.5,4.0,5.0990195135927845,4.5,10.0,13.0,14.142135623730953,{}
505,754,0.0,32.14031735997639,4.123105625617661,8.0,9.055385138137416,9.055385138137416,8.0,20.024984394500787,12.041594578792296,12.0,15.0,12.0,5.5,6.5,1.5,2.5,4.0,5.0990195135927845,4.5,10.0,13.0,14.142135623730953,{}
506,755,0.0,33.13608305156178,4.0,7.071067811865476,9.055385138137416,9.055385138137416,9.055385138137416,20.09975124224178,13.038404810405298,13.0,15.0,12.0,4.5,6.5,1.5,1.5,4.0,4.123105625617661,4.0,11.0,14.0,15.033296378372908,{}
507,756,3.1622776601683795,33.06055050963308,4.0,8.06225774829855,9.0,10.04987562112089,8.06225774829855,23.021728866442675,15.0,13.5,14.0,12.0,5.0,10.0,2.0,1.0,4.0,4.0,4.0,11.0,14.0,15.033296378372908,{}
508,757,3.1622776601683795,33.06055050963308,4.0,7.071067811865476,9.055385138137416,10.04987562112089,8.06225774829855,22.02271554554524,15.0,13.5,14.0,12.0,5.0,9.0,2.0,2.0,5.0,4.0,4.5,11.0,13.0,13.152946437965904,{}
509,758,2.23606797749979,33.06055050963308,5.0990195135927845,7.071067811865476,9.0,10.04987562112089,8.0,22.02271554554524,15.0,14.0,14.0,12.0,5.0,9.0,2.0,1.0,4.0,4.123105625617661,4.0,11.0,13.0,14.0356688476182,{}
510,759,1.0,32.14031735997639,3.0,8.0,9.0,10.04987562112089,9.055385138137416,21.02379604162864,13.038404810405298,12.5,14.0,11.0,3.5,8.5,0.5,0.5,4.123105625617661,4.123105625617661,4.5,11.0,13.0,13.038404810405298,{}
511,760,1.0,33.13608305156178,4.123105625617661,7.071067811865476,9.055385138137416,9.055385138137416,8.06225774829855,19.1049731745428,12.041594578792296,12.0,13.0,10.0,3.5,7.5,0.5,0.5,4.123105625617661,4.0,4.5,11.0,13.0,13.038404810405298,{}
512,761,1.4142135623730951,33.06055050963308,3.1622776601683795,7.071067811865476,9.0,9.055385138137416,9.0,20.024984394500787,13.0,12.5,13.0,11.0,3.0,8.0,1.0,0.0,4.0,4.123105625617661,4.0,10.0,13.0,15.033296378372908,{}
513,762,1.4142135623730951,33.06055050963308,3.1622776601683795,7.071067811865476,9.0,9.055385138137416,9.0,20.024984394500787,13.0,12.5,13.0,11.0,3.0,8.0,1.0,0.0,4.0,4.123105625617661,4.0,10.0,13.0,15.033296378372908,{}
514,763,3.0,33.06055050963308,4.0,7.0,9.055385138137416,10.0,8.0,22.0,15.0,13.5,14.0,12.0,5.0,9.0,1.0,2.0,5.0,4.0,4.0,10.0,13.0,14.0356688476182,{}
515,764,5.0,33.06055050963308,4.0,8.0,10.0,10.04987562112089,8.06225774829855,25.019992006393608,17.029386365926403,14.5,15.0,13.0,6.0,11.0,3.0,2.0,5.0,5.0,4.5,12.0,13.0,14.0356688476182,{}
516,765,5.0,34.058772731852805,4.0,7.0,9.0,10.04987562112089,8.0,24.0,17.0,14.5,14.0,12.0,5.0,11.0,4.0,1.0,4.0,4.123105625617661,4.0,12.0,13.0,13.038404810405298,{}
517,766,5.0,34.058772731852805,4.0,7.0,9.0,10.04987562112089,8.0,24.0,17.0,14.5,14.0,12.0,5.0,11.0,4.0,1.0,4.0,4.123105625617661,4.0,12.0,13.0,13.038404810405298,{}
518,767,6.0,32.0624390837628,4.0,8.0,9.0,10.04987562112089,8.0,26.0,18.0,15.0,15.0,13.0,6.0,12.0,4.0,2.0,5.0,4.123105625617661,4.5,13.0,13.0,14.0356688476182,{}
519,768,5.0,31.016124838541646,4.0,8.0,8.0,10.04987562112089,9.0,26.0,18.0,15.5,15.0,14.0,5.5,11.5,3.5,1.5,5.0,5.0,4.5,13.0,13.0,14.0356688476182,{}
520,769,6.0,31.016124838541646,5.0,8.06225774829855,9.0,10.0,8.0,27.018512172212592,19.0,16.0,15.0,14.0,6.5,12.5,3.5,2.5,4.0,4.123105625617661,4.0,13.0,13.0,14.0,{}
521,770,5.0990195135927845,32.01562118716424,4.0,8.0,9.055385138137416,10.04987562112089,9.0,26.019223662515376,18.027756377319943,15.5,15.0,14.0,5.5,11.5,3.5,2.5,4.0,4.123105625617661,4.0,13.0,13.0,13.0,{}
522,771,5.0,32.01562118716424,5.0,8.0,10.0,11.0,8.0,26.0,18.0,15.5,14.0,13.0,5.5,12.5,3.5,1.5,5.0,5.0990195135927845,5.0,12.0,12.0,14.0,{}
523,772,5.0990195135927845,33.0,3.0,7.0,9.0,10.04987562112089,9.0,24.020824298928627,17.029386365926403,14.5,13.0,13.0,4.0,11.0,3.0,1.0,5.0990195135927845,4.0,4.0,12.0,12.0,13.0,{}
524,773,4.123105625617661,34.0,4.0,8.0,9.0,10.0,9.0,25.019992006393608,17.029386365926403,15.0,13.0,13.0,4.0,12.0,4.0,1.0,4.0,4.123105625617661,4.0,13.0,12.0,14.0,{}
525,774,4.123105625617661,34.0,4.0,8.0,9.0,10.0,9.0,25.019992006393608,17.029386365926403,15.0,13.0,13.0,4.0,12.0,4.0,1.0,4.0,4.123105625617661,4.0,13.0,12.0,14.0,{}
526,775,5.0990195135927845,33.0,4.0,8.0,9.0,10.0,8.0,25.019992006393608,17.029386365926403,14.5,13.0,13.0,5.0,12.0,3.0,1.0,3.0,3.0,3.5,13.0,12.0,14.0,{}
527,776,5.0990195135927845,33.13608305156178,4.123105625617661,9.0,9.055385138137416,11.0,9.055385138137416,27.16615541441225,18.24828759089466,15.5,13.0,16.0,5.5,12.5,3.5,1.5,4.123105625617661,4.0,4.0,15.0,11.0,14.0356688476182,{}
528,777,1.4142135623730951,32.14031735997639,4.123105625617661,7.0,8.0,9.055385138137416,10.04987562112089,22.20360331117452,15.297058540778355,14.5,12.0,15.0,3.5,8.5,0.5,0.5,3.1622776601683795,5.0,4.5,15.0,10.0,13.038404810405298,{}
529,778,1.4142135623730951,32.14031735997639,4.123105625617661,7.0,8.0,9.055385138137416,10.04987562112089,22.20360331117452,15.297058540778355,14.5,12.0,15.0,3.5,8.5,0.5,0.5,3.1622776601683795,5.0,4.5,15.0,10.0,13.038404810405298,{}
530,779,1.0,31.064449134018133,5.0,8.06225774829855,9.055385138137416,9.055385138137416,9.219544457292889,22.36067977499789,14.317821063276352,14.0,13.0,15.0,5.0,8.0,1.0,0.0,3.1622776601683795,3.1622776601683795,2.5,15.0,10.0,15.033296378372908,{}
531,780,1.4142135623730951,31.14482300479488,5.0990195135927845,9.0,8.06225774829855,9.055385138137416,9.0,24.08318915758459,15.132745950421556,14.5,12.0,15.0,4.5,10.5,0.5,0.5,3.1622776601683795,4.0,3.5,16.0,10.0,15.132745950421556,{}
532,781,3.1622776601683795,29.068883707497267,4.123105625617661,9.0,8.0,9.0,8.06225774829855,24.186773244895647,15.297058540778355,13.5,12.0,14.0,5.0,11.0,2.0,1.0,3.1622776601683795,3.1622776601683795,3.5,16.0,10.0,15.033296378372908,{}
533,782,3.1622776601683795,29.068883707497267,4.123105625617661,9.0,8.0,9.0,8.06225774829855,24.186773244895647,15.297058540778355,13.5,12.0,14.0,5.0,11.0,2.0,1.0,3.1622776601683795,3.1622776601683795,3.5,16.0,10.0,15.033296378372908,{}
534,783,5.0990195135927845,31.14482300479488,4.0,8.06225774829855,9.0,9.0,8.06225774829855,25.179356624028344,17.11724276862369,14.5,12.0,15.0,5.5,11.5,2.5,1.5,3.1622776601683795,3.0,3.0,16.0,10.0,15.033296378372908,{}
535,784,8.06225774829855,30.14962686336267,4.0,8.06225774829855,9.055385138137416,9.0,8.246211251235321,28.284271247461906,20.223748416156685,16.0,13.0,16.0,6.5,13.5,4.5,2.5,4.123105625617661,4.0,4.0,16.0,10.0,13.152946437965904,{}
536,785,3.1622776601683795,30.066592756745816,4.0,8.06225774829855,8.06225774829855,8.0,8.06225774829855,23.194827009486403,15.132745950421556,13.5,12.0,14.0,5.0,10.0,2.0,0.0,3.1622776601683795,3.0,3.0,16.0,11.0,15.132745950421556,{}
537,786,3.1622776601683795,30.066592756745816,4.0,8.06225774829855,8.06225774829855,8.0,8.06225774829855,23.194827009486403,15.132745950421556,13.5,12.0,14.0,5.0,10.0,2.0,0.0,3.1622776601683795,3.0,3.0,16.0,11.0,15.132745950421556,{}
538,787,1.0,29.154759474226505,3.0,7.0,8.06225774829855,9.055385138137416,9.055385138137416,19.1049731745428,12.16552506059644,12.0,11.0,14.0,3.5,6.5,0.5,0.5,2.23606797749979,3.1622776601683795,3.0,15.0,10.0,14.0356688476182,{}
539,788,1.4142135623730951,27.16615541441225,4.0,8.06225774829855,8.06225774829855,9.0,8.06225774829855,21.213203435596427,13.152946437965904,12.5,12.0,15.0,5.5,7.5,1.5,1.5,3.1622776601683795,3.0,3.0,15.0,10.0,12.041594578792296,{}
540,789,1.0,27.073972741361768,5.0,8.06225774829855,8.06225774829855,8.06225774829855,8.0,21.095023109728988,13.038404810405298,13.0,13.0,15.0,6.0,7.0,1.0,1.0,3.1622776601683795,4.0,4.0,15.0,11.0,13.038404810405298,{}
541,790,1.0,27.16615541441225,4.0,8.06225774829855,8.06225774829855,8.06225774829855,9.0,21.095023109728988,13.038404810405298,13.0,13.0,16.0,5.5,6.5,1.5,1.5,3.1622776601683795,3.0,3.5,15.0,11.0,13.038404810405298,{}
542,791,1.4142135623730951,26.1725046566048,5.0,7.071067811865476,8.0,8.0,8.06225774829855,21.213203435596427,14.142135623730953,13.5,12.0,15.0,5.5,7.5,0.5,1.5,3.0,4.123105625617661,3.5,16.0,11.0,13.038404810405298,{}
543,792,1.0,27.073972741361768,4.123105625617661,8.06225774829855,8.0,8.06225774829855,8.0,21.095023109728988,13.038404810405298,12.5,12.0,14.0,5.0,8.0,1.0,1.0,3.0,3.0,3.0,15.0,10.0,14.0356688476182,{}
544,793,1.0,28.16025568065745,4.0,7.071067811865476,7.071067811865476,8.0,9.055385138137416,20.223748416156685,13.152946437965904,13.0,11.0,14.0,3.5,7.5,0.5,0.5,3.1622776601683795,3.0,3.0,16.0,10.0,14.0356688476182,{}
545,794,1.0,28.16025568065745,4.0,7.071067811865476,7.071067811865476,8.0,9.055385138137416,20.223748416156685,13.152946437965904,13.0,11.0,14.0,3.5,7.5,0.5,0.5,3.1622776601683795,3.0,3.0,16.0,10.0,14.0356688476182,{}
546,795,0.0,29.154759474226505,4.0,8.06225774829855,8.06225774829855,8.0,8.06225774829855,20.09975124224178,12.041594578792296,12.0,10.0,13.0,3.5,8.5,0.5,0.5,3.1622776601683795,3.1622776601683795,3.0,15.0,10.0,12.041594578792296,{}
547,796,2.23606797749979,31.25699921617557,4.0,7.071067811865476,9.055385138137416,9.0,8.06225774829855,21.213203435596427,14.142135623730953,13.0,10.0,14.0,4.0,9.0,1.0,0.0,2.23606797749979,3.1622776601683795,3.0,16.0,10.0,13.038404810405298,{}
548,797,2.23606797749979,29.27456233660889,4.0,8.06225774829855,9.055385138137416,9.0,8.06225774829855,22.20360331117452,14.142135623730953,13.0,11.0,15.0,5.0,9.0,0.0,1.0,2.23606797749979,3.1622776601683795,3.0,16.0,10.0,14.142135623730953,{}
549,798,2.23606797749979,29.27456233660889,4.0,8.06225774829855,9.055385138137416,9.0,8.06225774829855,22.20360331117452,14.142135623730953,13.0,11.0,15.0,5.0,9.0,0.0,1.0,2.23606797749979,3.1622776601683795,3.0,16.0,10.0,14.142135623730953,{}
550,799,1.4142135623730951,29.27456233660889,4.123105625617661,8.06225774829855,8.06225774829855,9.055385138137416,8.06225774829855,21.37755832643195,13.341664064126334,12.5,10.0,14.0,4.0,9.0,1.0,0.0,3.1622776601683795,3.1622776601683795,3.0,15.0,9.0,14.142135623730953,{}
551,800,1.0,31.400636936215164,4.123105625617661,7.071067811865476,9.055385138137416,9.055385138137416,6.082762530298219,18.24828759089466,11.180339887498947,10.5,7.0,12.0,3.5,8.5,0.5,0.5,3.1622776601683795,3.1622776601683795,2.5,16.0,8.0,13.152946437965904,{}
552,801,1.4142135623730951,31.25699921617557,4.0,7.071067811865476,9.055385138137416,9.055385138137416,7.280109889280518,19.4164878389476,12.36931687685298,11.5,8.0,12.0,3.0,9.0,1.0,1.0,3.1622776601683795,2.0,2.5,17.0,9.0,14.142135623730953,{}
553,802,1.4142135623730951,31.25699921617557,4.0,7.071067811865476,9.055385138137416,9.055385138137416,7.280109889280518,19.4164878389476,12.36931687685298,11.5,8.0,12.0,3.0,9.0,1.0,1.0,3.1622776601683795,2.0,2.5,17.0,9.0,14.142135623730953,{}
554,803,3.1622776601683795,30.4138126514911,4.123105625617661,7.071067811865476,8.06225774829855,10.04987562112089,7.071067811865476,21.37755832643195,14.317821063276352,12.5,9.0,14.0,4.5,9.5,1.5,0.5,2.8284271247461903,2.23606797749979,2.0,17.0,9.0,14.142135623730953,{}
555,804,1.0,29.27456233660889,4.123105625617661,7.280109889280518,8.06225774829855,9.055385138137416,8.06225774829855,20.39607805437113,13.152946437965904,12.5,9.0,13.0,3.0,9.0,1.0,1.0,3.1622776601683795,3.0,3.0,17.0,9.0,12.16552506059644,{}
556,805,1.4142135623730951,28.284271247461906,4.0,7.071067811865476,9.055385138137416,9.055385138137416,8.06225774829855,20.223748416156685,13.152946437965904,12.5,10.0,14.0,4.0,8.0,0.0,0.0,3.1622776601683795,4.0,4.0,16.0,9.0,12.16552506059644,{}
557,806,1.4142135623730951,29.27456233660889,4.0,7.071067811865476,9.055385138137416,9.055385138137416,8.06225774829855,20.223748416156685,13.152946437965904,12.5,10.0,14.0,4.0,8.0,0.0,0.0,4.47213595499958,4.123105625617661,4.0,16.0,9.0,12.041594578792296,{}
558,807,1.4142135623730951,28.16025568065745,3.0,7.071067811865476,7.071067811865476,8.06225774829855,8.06225774829855,19.235384061671343,12.16552506059644,11.5,9.0,12.0,2.5,8.5,0.5,0.5,3.1622776601683795,3.0,3.0,17.0,10.0,11.180339887498947,{}
559,808,1.0,27.29468812791236,5.0990195135927845,8.06225774829855,7.071067811865476,9.055385138137416,7.0,21.095023109728988,13.038404810405298,12.5,10.0,14.0,5.0,9.0,0.0,0.0,4.123105625617661,3.1622776601683795,3.0,17.0,10.0,13.152946437965904,{}
560,809,1.4142135623730951,27.16615541441225,5.0,8.06225774829855,8.0,8.06225774829855,8.06225774829855,22.20360331117452,14.142135623730953,13.5,11.0,14.0,4.5,9.5,0.5,0.5,4.47213595499958,4.0,4.0,17.0,10.0,12.16552506059644,{}
561,810,1.4142135623730951,27.16615541441225,5.0,8.06225774829855,8.0,8.06225774829855,8.06225774829855,22.20360331117452,14.142135623730953,13.5,11.0,14.0,4.5,9.5,0.5,0.5,4.47213595499958,4.0,4.0,17.0,10.0,12.16552506059644,{}
562,811,0.0,29.27456233660889,4.123105625617661,7.071067811865476,8.06225774829855,9.055385138137416,9.055385138137416,20.223748416156685,13.152946437965904,13.0,11.0,15.0,4.0,7.0,1.0,0.0,3.1622776601683795,2.0,2.5,16.0,10.0,13.152946437965904,{}
563,812,1.4142135623730951,29.27456233660889,3.1622776601683795,7.071067811865476,8.06225774829855,9.055385138137416,9.0,20.223748416156685,13.152946437965904,12.5,10.0,14.0,3.0,8.0,0.0,0.0,3.1622776601683795,2.0,2.0,16.0,10.0,14.0356688476182,{}
564,813,1.4142135623730951,27.16615541441225,4.123105625617661,8.06225774829855,8.06225774829855,9.0,9.0,22.20360331117452,14.142135623730953,13.5,12.0,15.0,4.5,8.5,0.5,0.5,3.1622776601683795,2.0,2.0,16.0,10.0,12.041594578792296,{}
565,814,1.4142135623730951,27.16615541441225,4.123105625617661,8.06225774829855,8.06225774829855,9.0,9.0,22.20360331117452,14.142135623730953,13.5,12.0,15.0,4.5,8.5,0.5,0.5,3.1622776601683795,2.0,2.0,16.0,10.0,12.041594578792296,{}
566,815,2.23606797749979,28.16025568065745,4.123105625617661,8.06225774829855,8.06225774829855,8.0,9.0,23.194827009486403,15.132745950421556,14.0,12.0,15.0,4.5,9.5,0.5,0.5,2.23606797749979,2.23606797749979,2.5,16.0,10.0,13.152946437965904,{}
567,816,3.605551275463989,31.064449134018133,4.0,9.055385138137416,7.071067811865476,9.055385138137416,9.055385138137416,25.317977802344327,16.278820596099706,14.5,12.0,14.0,4.0,12.0,3.0,0.0,3.605551275463989,4.123105625617661,3.5,16.0,10.0,13.152946437965904,{}
568,817,0.0,29.068883707497267,3.1622776601683795,8.06225774829855,8.06225774829855,9.055385138137416,10.04987562112089,21.213203435596427,13.152946437965904,13.0,11.0,13.0,2.0,9.0,1.0,1.0,3.605551275463989,3.0,3.5,15.0,9.0,13.038404810405298,{}
569,818,1.0,29.068883707497267,3.1622776601683795,7.071067811865476,8.06225774829855,9.055385138137416,10.04987562112089,21.213203435596427,14.142135623730953,13.5,11.0,13.0,2.0,9.0,1.0,1.0,4.123105625617661,3.0,3.5,15.0,10.0,12.041594578792296,{}
570,819,0.0,29.068883707497267,3.1622776601683795,8.06225774829855,8.0,9.0,10.04987562112089,21.213203435596427,13.152946437965904,13.0,11.0,13.0,2.0,9.0,0.0,0.0,3.1622776601683795,3.0,3.5,15.0,10.0,12.16552506059644,{}
571,820,2.0,32.01562118716424,3.1622776601683795,8.06225774829855,9.0,10.04987562112089,9.055385138137416,22.20360331117452,14.142135623730953,13.0,11.0,12.0,2.5,10.5,2.5,0.5,4.123105625617661,4.0,3.5,14.0,10.0,12.041594578792296,{}
572,821,1.0,32.01562118716424,4.0,8.0,9.0,10.0,9.055385138137416,21.095023109728988,13.152946437965904,13.0,11.0,12.0,2.5,9.5,1.5,0.5,3.1622776601683795,3.0,3.5,14.0,10.0,13.0,{}
573,822,1.0,32.01562118716424,4.0,8.0,9.0,10.0,9.055385138137416,21.095023109728988,13.152946437965904,13.0,11.0,12.0,2.5,9.5,1.5,0.5,3.1622776601683795,3.0,3.5,14.0,10.0,13.0,{}
574,823,2.23606797749979,33.015148038438355,4.0,7.0,9.0,11.0,8.0,21.02379604162864,14.0356688476182,13.0,10.0,11.0,2.5,10.5,2.5,1.5,3.1622776601683795,3.0,3.0,13.0,10.0,13.0,{}
575,824,2.0,33.015148038438355,4.0,8.06225774829855,9.0,11.0,9.0,23.021728866442675,15.0,14.0,12.0,13.0,3.5,10.5,2.5,0.5,3.1622776601683795,3.1622776601683795,2.5,12.0,11.0,12.041594578792296,{}
576,825,1.0,32.0,3.0,7.0,8.0,9.0,10.0,21.0,14.0,13.5,11.0,11.0,1.0,10.0,3.0,2.0,2.0,3.0,2.5,11.0,11.0,12.041594578792296,{}
577,826,1.0,32.0,3.0,7.0,8.0,9.0,10.0,21.0,14.0,13.5,11.0,11.0,1.0,10.0,3.0,2.0,2.0,3.0,2.5,11.0,11.0,12.041594578792296,{}
578,827,1.0,33.015148038438355,4.0,7.0,9.0,9.0,9.0,21.0,14.0,13.5,12.0,11.0,2.5,9.5,2.5,0.5,3.0,2.23606797749979,2.0,11.0,12.0,12.041594578792296,{}
579,828,4.0,31.0,4.123105625617661,7.0,9.0,10.0,9.055385138137416,24.08318915758459,17.11724276862369,15.0,13.0,13.0,4.0,11.0,3.0,1.0,2.0,2.0,2.0,11.0,13.0,11.0,{}
580,829,3.1622776601683795,31.0,3.0,7.0,9.0,9.0,9.055385138137416,22.09072203437452,15.132745950421556,13.5,12.0,12.0,3.0,10.0,2.0,0.0,2.0,2.0,2.0,11.0,13.0,12.041594578792296,{}
581,830,3.1622776601683795,31.0,3.0,7.0,9.0,9.0,9.055385138137416,22.09072203437452,15.132745950421556,13.5,12.0,12.0,3.0,10.0,2.0,0.0,2.0,2.0,2.0,11.0,13.0,12.041594578792296,{}
582,831,1.0,31.016124838541646,3.1622776601683795,7.0,9.0,9.0,9.055385138137416,20.09975124224178,13.152946437965904,12.5,12.0,11.0,2.5,8.5,0.5,0.5,2.0,2.23606797749979,2.0,11.0,13.0,11.04536101718726,{}
