,video_id,frame_seq,gap,time_seconds,m1,m3,m4,m5,m6,m7,m8,m9,m10,m11,m12,m13,m14,m15,m16,m17,e1,e2,e3,b1,b2,b3
0,63,249,1,10.38537500000003,2.0,34.0147027033899,4.0,7.0710678118654755,10.0,11.0,8.0,21.02379604162864,14.0,13.0,16.0,15.0,7.5,5.5,1.5,3.5,5.0,4.0,4.5,17.0,16.0,16.0
1,63,250,0,10.427083333333364,3.1622776601683795,35.0,4.0,9.055385138137417,10.0,11.0,8.06225774829855,24.020824298928627,15.0,13.5,15.0,15.0,7.0,9.0,0.0,3.0,5.0,5.0990195135927845,4.0,18.0,15.0,17.029386365926403
2,63,251,0,10.468791666666698,4.0,35.0,4.0,7.0,10.0,11.0,9.0,24.0,17.0,15.0,16.0,16.0,7.0,8.0,0.0,3.0,5.0,5.0990195135927845,4.0,18.0,15.0,17.029386365926403
3,63,252,0,10.510500000000032,3.0,35.0,4.0,8.0,10.0,10.0,7.0710678118654755,22.02271554554524,14.035668847618199,12.5,14.0,14.0,7.0,8.0,0.0,3.0,4.0,5.0,5.0,16.0,16.0,14.035668847618199
4,63,253,0,10.552208333333366,3.0,34.0,3.0,7.0710678118654755,10.0,11.0,8.0,21.02379604162864,14.0,12.5,14.0,14.0,6.0,7.0,0.0,3.0,4.0,4.0,4.0,17.0,16.0,14.0
5,63,254,0,10.5939166666667,3.0,35.014282800023196,4.0,7.0,10.0,11.0,7.0710678118654755,21.02379604162864,14.035668847618199,12.5,14.0,13.0,6.5,7.5,0.5,2.5,4.0,4.0,4.0,16.0,15.0,14.035668847618199
6,63,255,0,10.635625000000037,3.0,35.014282800023196,4.0,7.0,10.0,11.045361017187261,7.0710678118654755,21.02379604162864,14.035668847618199,12.5,14.0,13.0,6.5,7.5,0.5,2.5,4.0,4.0,4.0,16.0,15.0,15.033296378372908
7,63,256,0,10.677333333333369,4.0,35.05709628591621,4.0,8.06225774829855,10.04987562112089,11.0,8.0,24.020824298928627,16.0,14.0,15.0,13.0,6.0,10.0,2.0,3.0,5.0,4.0,4.0,15.0,15.0,15.033296378372908
8,63,257,0,10.719041666666705,6.0,35.014282800023196,4.0,7.0710678118654755,10.0,11.0,7.0,24.020824298928627,17.0,14.0,14.0,13.0,6.5,10.5,2.5,2.5,4.0,5.0,4.5,16.0,16.0,15.0
9,63,258,0,10.760750000000035,4.0,36.013886210738214,3.0,8.0,10.0,11.0,8.0,23.0,15.0,13.0,15.0,14.0,6.5,8.5,0.5,3.5,4.123105625617661,5.0,5.0,16.0,16.0,16.0
10,63,259,0,10.802458333333371,3.1622776601683795,36.013886210738214,4.0,8.0,10.0,10.0,7.0710678118654755,22.0,14.0,12.5,14.0,13.0,6.5,8.5,0.5,2.5,4.0,5.0,4.5,17.0,16.0,15.0
11,63,260,0,10.844166666666704,4.0,34.0,4.0,8.0,10.04987562112089,11.0,8.06225774829855,24.020824298928627,16.0312195418814,14.0,14.0,14.0,6.0,10.0,1.0,2.0,5.0990195135927845,4.123105625617661,4.0,19.0,16.0,14.035668847618199
12,63,261,0,10.88587500000004,3.0,34.0,4.0,9.0,10.0,10.0,8.0,24.0,15.0,13.5,14.0,14.0,6.0,10.0,1.0,2.0,5.0,6.082762530298219,6.0,21.0,17.0,16.0312195418814
13,63,262,0,10.927583333333374,2.0,33.0,4.0,8.0,9.0,10.0,8.0,22.0,14.0,13.0,14.0,14.0,6.0,8.0,0.0,2.0,5.0990195135927845,5.0,5.0,19.0,16.0,15.033296378372908
14,63,263,0,10.969291666666708,2.0,33.0,4.0,8.0,9.0,10.0,8.0,22.0,14.0,13.0,14.0,14.0,6.0,8.0,0.0,2.0,5.0990195135927845,5.0,5.0,19.0,16.0,15.033296378372908
15,63,264,0,11.011000000000042,4.0,33.015148038438355,3.0,8.0,10.0,10.0,8.06225774829855,23.021728866442675,15.033296378372908,13.0,13.0,14.0,5.5,9.5,0.5,2.5,5.0,4.0,3.5,20.0,16.0,15.033296378372908
16,63,265,0,11.052708333333376,2.0,33.015148038438355,4.0,8.0,9.0,9.055385138137417,8.0,22.0,14.0,13.0,15.0,14.0,6.5,7.5,0.5,2.5,4.0,3.0,3.5,18.0,15.0,17.0
17,63,266,0,11.09441666666671,1.0,33.0,3.0,8.0,10.0,10.0,9.0,21.0,13.0,12.5,14.0,14.0,5.0,7.0,1.0,2.0,4.0,3.0,3.5,18.0,15.0,16.0
18,63,267,0,11.136125000000044,2.23606797749979,33.015148038438355,4.0,7.0,9.0,10.0,8.0,21.02379604162864,14.035668847618199,13.0,13.0,14.0,5.5,7.5,0.5,2.5,5.0,4.0,4.0,16.0,14.0,15.033296378372908
19,63,268,0,11.177833333333378,0.0,33.0,5.0,8.0,9.0,10.0,11.0,24.0,16.0,16.0,15.0,15.0,4.0,9.0,0.0,0.0,4.123105625617661,4.0,4.0,18.0,15.0,16.0
20,63,269,0,11.219541666666712,1.0,33.015148038438355,4.0,8.0,8.0,9.0,11.0,24.0,16.0,15.5,15.0,14.0,3.5,9.5,0.5,0.5,5.0,5.0,5.0,18.0,15.0,14.0
21,63,270,0,11.261250000000048,1.0,35.014282800023196,4.0,9.0,9.0,11.0,10.0,24.0,15.0,14.5,15.0,14.0,4.5,9.5,0.5,0.5,4.123105625617661,4.0,4.0,18.0,15.0,16.0
22,63,271,0,11.30295833333338,1.0,35.014282800023196,4.0,9.0,9.0,11.0,10.0,24.0,15.0,14.5,15.0,14.0,4.5,9.5,0.5,0.5,4.123105625617661,4.0,4.0,18.0,15.0,16.0
23,63,272,0,11.344666666666717,3.0,35.0,4.0,8.0,10.0,10.0,8.06225774829855,23.021728866442675,15.033296378372908,13.5,14.0,14.0,6.0,9.0,1.0,2.0,4.0,4.0,4.0,17.0,15.0,14.0
24,63,273,0,11.386375000000047,4.0,35.0,4.0,7.0,10.0,11.0,8.0,23.0,16.0,14.0,14.0,14.0,6.0,9.0,1.0,2.0,4.0,4.123105625617661,4.0,16.0,14.0,16.0312195418814
25,63,274,0,11.428083333333385,4.0,34.0,4.0,8.0,9.055385138137417,10.0,8.0,24.0,16.0,14.0,13.0,13.0,5.0,11.0,3.0,1.0,5.0,5.0,5.0,16.0,15.0,15.0
26,63,275,0,11.469791666666715,4.0,34.0,4.0,8.0,9.0,11.0,8.0,24.0,16.0,14.0,13.0,13.0,5.0,11.0,3.0,2.0,4.0,5.0,4.5,17.0,15.0,15.0
27,63,276,0,11.511500000000051,4.0,33.015148038438355,5.0,8.0,9.0,10.04987562112089,8.0,25.0,17.0,15.0,14.0,13.0,5.5,11.5,3.5,1.5,5.0,5.0,5.0,17.0,15.0,16.0
28,63,277,0,11.553208333333384,5.0,33.015148038438355,4.0,8.06225774829855,9.0,11.0,8.0,25.019992006393608,17.0,14.5,14.0,13.0,5.5,11.5,3.5,2.5,5.0990195135927845,4.123105625617661,4.0,17.0,15.0,16.0
29,63,278,0,11.59491666666672,5.0,32.0,5.0,8.0,10.0,10.04987562112089,8.0,26.0,18.0,15.5,14.0,14.0,6.0,12.0,4.0,2.0,5.0,5.0990195135927845,5.0,18.0,15.0,15.033296378372908
30,63,279,0,11.636625000000054,6.0,32.0,4.123105625617661,7.0,9.0,10.0,8.0,25.019992006393608,18.027756377319946,15.0,14.0,14.0,6.0,11.0,4.0,2.0,4.123105625617661,4.0,4.0,18.0,16.0,15.0
31,63,280,0,11.678333333333388,6.082762530298219,32.01562118716424,5.0,7.0,9.0,10.0,8.0,26.019223662515376,19.026297590440446,16.0,14.0,15.0,6.5,11.5,3.5,2.5,4.0,4.0,4.0,17.0,15.0,14.0
32,63,281,0,11.720041666666722,2.0,32.0,5.0990195135927845,9.0,9.0,10.0,8.0,24.020824298928627,15.033296378372908,14.0,14.0,14.0,6.0,10.0,1.0,1.0,4.123105625617661,5.0,5.0,16.0,14.0,14.0
33,63,282,0,11.761750000000056,0.0,32.0,5.0,9.0,9.0,9.0,9.0,23.0,14.0,14.0,14.0,14.0,5.0,9.0,0.0,0.0,4.123105625617661,4.0,4.5,16.0,14.0,14.035668847618199
34,63,283,0,11.80345833333339,0.0,31.016124838541646,4.0,8.06225774829855,9.0,10.0,10.0,22.02271554554524,14.0,14.0,14.0,13.0,3.5,8.5,0.5,0.5,4.0,5.0,5.0,16.0,14.0,15.033296378372908
35,63,284,0,11.845166666666724,1.4142135623730951,32.01562118716424,5.0,9.0,9.055385138137417,9.0,9.0,24.020824298928627,15.033296378372908,14.5,14.0,13.0,4.5,10.5,1.5,0.5,5.0990195135927845,5.0,5.0,17.0,14.0,14.035668847618199
36,63,285,0,11.886875000000058,2.0,32.0,5.0990195135927845,8.06225774829855,9.0,10.0,9.0,24.08318915758459,16.0312195418814,15.0,14.0,14.0,5.0,10.0,2.0,0.0,5.0,4.0,4.0,18.0,15.0,14.035668847618199
37,63,286,0,11.928583333333393,4.0,32.01562118716424,5.0990195135927845,8.06225774829855,8.0,10.0,8.0,25.079872407968907,17.029386365926403,15.0,14.0,13.0,5.5,11.5,2.5,0.5,5.0990195135927845,4.0,4.5,20.0,16.0,16.0
38,63,287,0,11.970291666666729,4.0,32.01562118716424,5.0990195135927845,8.06225774829855,8.0,10.0,8.0,25.079872407968907,17.029386365926403,15.0,14.0,13.0,5.5,11.5,2.5,0.5,5.0990195135927845,4.0,4.5,20.0,16.0,16.0
39,63,288,0,12.01200000000006,6.082762530298219,31.0,4.123105625617661,8.0,9.0,10.0,9.0,27.073972741361768,19.1049731745428,16.0,14.0,14.0,5.0,13.0,5.0,1.0,5.0990195135927845,5.0990195135927845,5.0,18.0,15.0,13.038404810405298
40,63,289,0,12.053708333333397,6.082762530298219,31.0,4.123105625617661,8.0,9.0,11.0,8.0,26.076809620810597,18.110770276274835,15.0,14.0,14.0,6.0,12.0,3.0,2.0,5.0990195135927845,4.0,4.0,19.0,16.0,14.035668847618199
41,63,290,0,12.095416666666727,4.123105625617661,32.0,5.0990195135927845,9.0,10.0,11.0,7.0,25.079872407968907,16.1245154965971,14.0,14.0,14.0,7.0,11.0,2.0,2.0,4.123105625617661,4.0,4.0,19.0,15.0,14.0
42,63,291,0,12.137125000000063,3.1622776601683795,31.0,5.0990195135927845,9.0,9.0,11.0,8.0,25.079872407968907,16.1245154965971,14.5,14.0,14.0,6.0,11.0,2.0,2.0,4.0,4.0,4.5,19.0,15.0,14.0
43,63,292,0,12.178833333333396,5.0990195135927845,30.0,4.0,8.06225774829855,9.0,10.0,8.0,25.079872407968907,17.029386365926403,14.5,14.0,14.0,6.0,11.0,2.0,2.0,5.0990195135927845,4.0,4.0,19.0,15.0,13.038404810405298
44,63,293,0,12.220541666666731,2.23606797749979,31.0,5.0,9.0,9.0,11.0,8.0,24.020824298928627,15.033296378372908,14.0,15.0,15.0,7.0,9.0,0.0,2.0,5.0,4.0,4.5,18.0,15.0,14.035668847618199
45,63,294,0,12.262250000000066,1.0,31.0,5.0990195135927845,9.055385138137417,9.0,10.0,8.06225774829855,23.021728866442675,14.0,13.5,14.0,14.0,6.0,9.0,1.0,2.0,5.0990195135927845,5.0,5.0,19.0,15.0,14.035668847618199
46,63,295,0,12.3039583333334,1.0,31.0,5.0990195135927845,9.055385138137417,9.0,10.0,8.06225774829855,23.021728866442675,14.0,13.5,14.0,14.0,6.0,9.0,1.0,2.0,5.0990195135927845,5.0,5.0,19.0,15.0,14.035668847618199
47,63,296,0,12.345666666666734,3.1622776601683795,32.01562118716424,5.0,9.055385138137417,10.0,11.0,7.0,24.08318915758459,15.033296378372908,13.5,14.0,15.0,7.5,9.5,0.5,2.5,5.0990195135927845,5.0,5.0,20.0,16.0,15.033296378372908
48,63,297,0,12.387375000000068,2.0,33.015148038438355,4.0,8.0,10.0,11.0,8.0,22.0,14.0,13.0,13.0,14.0,5.5,8.5,0.5,2.5,5.0990195135927845,5.0,4.5,19.0,15.0,15.033296378372908
49,63,298,0,12.429083333333402,4.0,32.01562118716424,4.0,8.0,9.055385138137417,10.0,7.0,23.0,15.0,13.0,13.0,14.0,6.5,9.5,0.5,2.5,6.082762530298219,5.0,5.0,21.0,16.0,16.0312195418814
50,63,299,0,12.470791666666736,4.0,32.01562118716424,4.0,8.0,9.055385138137417,10.0,7.0,23.0,15.0,13.0,13.0,14.0,6.5,9.5,0.5,2.5,6.082762530298219,5.0,5.0,21.0,16.0,16.0312195418814
51,63,300,0,12.51250000000007,1.0,34.0,4.0,9.0,9.0,10.0,10.0,23.021728866442675,14.035668847618199,14.0,14.0,14.0,4.0,9.0,0.0,1.0,5.0,4.0,4.0,19.0,14.0,16.0312195418814
52,63,301,0,12.554208333333404,1.4142135623730951,34.0,4.0,9.0,9.0,10.0,9.0,23.021728866442675,14.035668847618199,13.5,14.0,14.0,5.0,9.0,0.0,1.0,4.123105625617661,4.0,4.0,20.0,16.0,16.1245154965971
53,63,302,0,12.59591666666674,1.4142135623730951,35.014282800023196,5.0,8.0,9.0,10.04987562112089,8.06225774829855,22.0,14.0,13.5,14.0,13.0,5.5,8.5,0.5,1.5,5.0,4.123105625617661,4.0,20.0,15.0,16.0
54,63,303,0,12.637625000000073,1.4142135623730951,35.014282800023196,5.0,8.0,9.0,10.04987562112089,8.06225774829855,22.0,14.0,13.5,14.0,13.0,5.5,8.5,0.5,1.5,5.0,4.123105625617661,4.0,20.0,15.0,16.0
55,63,304,0,12.679333333333409,2.23606797749979,36.0,5.0,8.0,10.0,11.0,7.0,22.02271554554524,14.035668847618199,13.0,13.0,13.0,6.0,9.0,1.0,1.0,6.0,4.123105625617661,4.5,20.0,17.0,16.0312195418814
56,63,305,0,12.72104166666674,1.0,35.014282800023196,5.0,9.055385138137417,11.045361017187261,11.0,8.06225774829855,23.0,14.035668847618199,13.5,15.0,14.0,6.5,8.5,0.5,2.5,5.0990195135927845,5.0,5.0,19.0,17.0,19.026297590440446
57,63,306,0,12.762750000000077,2.0,34.0147027033899,6.0,9.0,10.04987562112089,11.045361017187261,7.0,24.0,15.0,14.0,15.0,14.0,7.5,9.5,0.5,2.5,5.0,5.0,5.0,19.0,18.0,18.0
58,63,307,0,12.80445833333341,2.23606797749979,35.014282800023196,6.0,9.0,10.0,11.045361017187261,7.0,24.020824298928627,15.033296378372908,14.0,15.0,14.0,7.5,9.5,0.5,2.5,5.0,5.0990195135927845,5.0,20.0,18.0,17.029386365926403
59,63,308,0,12.846166666666743,1.0,32.0624390837628,6.0,10.0,9.055385138137417,11.045361017187261,8.246211251235321,25.079872407968907,15.132745950421556,14.5,18.0,16.0,9.0,8.0,2.0,4.0,6.0,5.0,5.0,19.0,19.0,19.026297590440446
60,63,309,0,12.887875000000076,2.0,31.064449134018133,5.0,9.0,10.04987562112089,10.04987562112089,8.06225774829855,24.020824298928627,15.033296378372908,14.0,17.0,15.0,8.0,8.0,2.0,4.0,6.0,5.0990195135927845,5.5,18.0,19.0,17.029386365926403
61,63,310,0,12.929583333333412,2.0,29.274562336608895,5.0,9.055385138137417,8.06225774829855,9.219544457292887,8.06225774829855,24.08318915758459,15.033296378372908,14.0,18.0,14.0,8.0,8.0,1.0,4.0,6.0,6.0,5.5,18.0,19.0,16.0312195418814
62,63,311,0,12.971291666666746,2.0,30.14962686336267,5.0,9.0,8.06225774829855,9.219544457292887,9.055385138137417,25.019992006393608,16.0312195418814,15.0,18.0,15.0,7.5,8.5,0.5,3.5,6.0,6.0,5.5,18.0,19.0,16.0312195418814
63,63,312,0,13.01300000000008,1.0,30.14962686336267,5.0,9.0,8.06225774829855,9.055385138137417,8.06225774829855,23.021728866442675,14.035668847618199,13.5,17.0,14.0,7.5,7.5,1.5,3.5,5.0,6.082762530298219,5.5,16.0,18.0,17.0
64,63,313,0,13.054708333333414,2.0,30.265491900843113,5.0,8.0,9.055385138137417,10.198039027185569,9.055385138137417,24.020824298928627,16.0312195418814,15.0,18.0,14.0,7.0,8.0,0.0,3.0,6.0,5.0990195135927845,5.5,16.0,17.0,16.0
65,63,314,0,13.096416666666748,2.0,30.14962686336267,5.0,9.0,8.06225774829855,9.055385138137417,9.055385138137417,25.019992006393608,16.0312195418814,15.0,17.0,14.0,6.5,9.5,0.5,2.5,6.0,6.0,5.5,16.0,19.0,15.033296378372908
66,63,315,0,13.138125000000082,2.0,30.14962686336267,5.0,9.0,8.06225774829855,9.055385138137417,9.055385138137417,25.019992006393608,16.0312195418814,15.0,17.0,14.0,6.5,9.5,0.5,2.5,5.0,5.0,5.0,16.0,18.0,15.0
67,63,316,0,13.179833333333416,3.1622776601683795,33.24154027718932,4.0,8.0,9.055385138137417,10.04987562112089,9.0,24.020824298928627,16.0312195418814,14.5,15.0,11.0,4.0,11.0,3.0,1.0,6.0,5.0990195135927845,5.0,16.0,19.0,16.0312195418814
68,63,317,0,13.22154166666675,3.0,34.23448553724738,5.0,8.06225774829855,10.198039027185569,11.180339887498949,8.0,24.020824298928627,16.0,14.5,14.0,10.0,4.0,12.0,4.0,1.0,5.0,4.123105625617661,4.5,17.0,18.0,16.0312195418814
69,63,318,0,13.263250000000085,6.082762530298219,36.124783736376884,4.123105625617661,8.06225774829855,9.219544457292887,11.180339887498949,8.0,26.019223662515376,18.0,15.0,14.0,11.0,4.5,13.5,5.5,1.5,5.0,5.0990195135927845,4.5,18.0,18.0,19.026297590440446
70,63,319,0,13.30495833333342,6.082762530298219,36.124783736376884,4.123105625617661,8.06225774829855,9.219544457292887,11.180339887498949,8.0,26.019223662515376,18.0,15.0,14.0,11.0,4.5,13.5,5.5,1.5,5.0,5.0990195135927845,4.5,18.0,18.0,19.026297590440446
71,63,320,0,13.346666666666753,4.0,35.12833614050059,3.0,7.0,9.055385138137417,11.180339887498949,8.06225774829855,22.02271554554524,15.033296378372908,13.0,13.0,10.0,3.5,10.5,3.5,1.5,5.0990195135927845,5.0990195135927845,5.0,17.0,18.0,16.0
72,63,321,0,13.388375000000089,4.123105625617661,34.132096331752024,4.0,7.0,10.04987562112089,10.04987562112089,8.0,23.021728866442675,16.0312195418814,14.0,14.0,11.0,4.5,10.5,3.5,1.5,5.0,4.123105625617661,4.5,18.0,19.0,16.0
73,63,322,0,13.43008333333342,1.0,33.13608305156178,5.0990195135927845,8.0,9.055385138137417,10.04987562112089,8.06225774829855,22.090722034374522,14.142135623730951,13.5,15.0,12.0,5.5,8.5,0.5,1.5,5.0,6.082762530298219,5.5,19.0,18.0,17.0
74,63,323,0,13.471791666666755,1.0,33.13608305156178,5.0990195135927845,8.0,9.055385138137417,10.04987562112089,8.06225774829855,22.090722034374522,14.142135623730951,13.5,15.0,12.0,5.5,8.5,0.5,1.5,5.0,6.082762530298219,5.5,19.0,18.0,17.0
75,63,324,0,13.51350000000009,0.0,33.13608305156178,4.123105625617661,9.055385138137417,9.055385138137417,10.04987562112089,9.219544457292887,22.090722034374522,13.038404810405298,13.0,15.0,12.0,4.5,8.5,0.5,1.5,6.0,4.123105625617661,4.5,20.0,18.0,16.0312195418814
76,63,325,0,13.555208333333423,1.0,33.24154027718932,5.0,8.0,9.055385138137417,10.04987562112089,8.06225774829855,22.02271554554524,14.035668847618199,13.5,16.0,12.0,6.0,8.0,0.0,2.0,5.0,5.0,5.0,18.0,19.0,16.0312195418814
77,63,326,0,13.596916666666758,1.0,33.13608305156178,4.0,8.0,9.055385138137417,10.04987562112089,9.055385138137417,22.02271554554524,14.035668847618199,13.5,15.0,12.0,4.5,8.5,0.5,1.5,6.0,5.0,5.0,16.0,17.0,15.0
78,63,327,0,13.638625000000092,1.0,33.13608305156178,4.0,8.0,9.055385138137417,10.04987562112089,9.055385138137417,22.02271554554524,14.035668847618199,13.5,15.0,12.0,4.5,8.5,0.5,1.5,6.0,5.0,5.0,16.0,17.0,15.0
79,63,328,0,13.680333333333426,0.0,34.132096331752024,5.0,8.0,10.04987562112089,11.045361017187261,9.055385138137417,22.02271554554524,14.035668847618199,14.0,15.0,12.0,4.5,8.5,0.5,1.5,5.0,5.0,5.0,17.0,18.0,16.0312195418814
80,63,329,0,13.72204166666676,3.0,33.13608305156178,4.0,8.06225774829855,9.055385138137417,10.198039027185569,8.0,23.021728866442675,15.0,13.5,14.0,11.0,4.5,10.5,1.5,1.5,5.0,5.0,5.0,17.0,17.0,16.0312195418814
81,63,330,0,13.763750000000094,4.0,35.12833614050059,4.0,7.0,10.04987562112089,11.045361017187261,8.06225774829855,23.021728866442675,16.0312195418814,14.0,14.0,11.0,4.5,10.5,3.5,1.5,5.0,5.0,5.0,18.0,18.0,16.0312195418814
82,63,331,0,13.805458333333428,4.0,35.12833614050059,4.0,7.0,10.04987562112089,11.045361017187261,8.06225774829855,23.021728866442675,16.0312195418814,14.0,14.0,11.0,4.5,10.5,3.5,1.5,5.0,5.0,5.0,18.0,18.0,16.0312195418814
83,63,332,0,13.847166666666762,3.0,35.12833614050059,4.0,8.0,10.04987562112089,11.180339887498949,8.0,23.0,15.0,13.5,14.0,11.0,4.5,10.5,2.5,1.5,5.0,5.0,5.0,17.0,17.0,15.033296378372908
84,63,333,0,13.888875000000096,2.23606797749979,35.05709628591621,5.0,9.055385138137417,9.0,11.045361017187261,7.0710678118654755,23.021728866442675,14.0,13.0,14.0,12.0,6.0,10.0,1.0,1.0,5.0,5.0,5.0,16.0,17.0,17.029386365926403
85,63,334,0,13.93058333333343,2.23606797749979,34.132096331752024,5.0,8.06225774829855,10.198039027185569,11.045361017187261,8.06225774829855,23.021728866442675,15.0,14.0,15.0,12.0,5.5,9.5,1.5,2.5,6.0,5.0990195135927845,5.0,17.0,18.0,17.029386365926403
86,63,335,0,13.972291666666765,2.23606797749979,34.132096331752024,5.0,8.06225774829855,10.198039027185569,11.045361017187261,8.06225774829855,23.021728866442675,15.0,14.0,15.0,12.0,5.5,9.5,1.5,2.5,6.0,5.0990195135927845,5.0,17.0,18.0,17.029386365926403
87,63,336,0,14.0140000000001,2.0,33.13608305156178,5.0,9.0,9.055385138137417,10.04987562112089,8.06225774829855,24.020824298928627,15.033296378372908,14.0,16.0,13.0,6.5,9.5,0.5,2.5,5.0,5.0,5.0,16.0,18.0,16.0
88,63,337,0,14.055708333333431,2.0,32.2490309931942,5.0,8.06225774829855,9.0,11.045361017187261,8.06225774829855,23.08679276123039,15.033296378372908,14.0,16.0,12.0,6.0,9.0,0.0,2.0,5.0,5.0990195135927845,5.0,16.0,18.0,15.033296378372908
89,63,338,0,14.097416666666769,2.0,34.23448553724738,4.0,9.0,9.055385138137417,10.198039027185569,9.055385138137417,24.020824298928627,15.033296378372908,14.0,16.0,12.0,5.0,10.0,1.0,2.0,5.0,5.0990195135927845,5.5,17.0,18.0,16.0312195418814
90,63,339,0,14.1391250000001,2.0,34.23448553724738,4.0,9.0,9.055385138137417,10.198039027185569,9.055385138137417,24.020824298928627,15.033296378372908,14.0,16.0,12.0,5.0,10.0,1.0,2.0,5.0,5.0990195135927845,5.5,17.0,18.0,16.0312195418814
91,63,340,0,14.180833333333435,4.0,35.12833614050059,4.0,8.0,10.0,11.045361017187261,8.0,24.0,16.0,14.0,15.0,12.0,5.5,10.5,2.5,2.5,5.0,4.0,4.5,17.0,18.0,15.033296378372908
92,63,341,0,14.22254166666677,1.4142135623730951,34.132096331752024,5.0,9.055385138137417,10.04987562112089,11.180339887498949,8.06225774829855,23.021728866442675,14.0,13.5,15.0,12.0,5.5,9.5,0.5,1.5,6.0,5.0990195135927845,5.0,16.0,17.0,15.033296378372908
93,63,342,0,14.264250000000104,1.0,35.12833614050059,4.0,8.06225774829855,9.055385138137417,10.0,8.06225774829855,21.095023109728988,13.038404810405298,12.5,14.0,11.0,4.5,8.5,0.5,1.5,5.0990195135927845,5.0990195135927845,4.5,17.0,17.0,17.029386365926403
94,63,343,0,14.305958333333438,0.0,34.132096331752024,4.0,8.0,10.04987562112089,10.04987562112089,9.055385138137417,21.02379604162864,13.038404810405298,13.0,15.0,12.0,4.5,7.5,0.5,1.5,5.0,5.0,5.0,17.0,17.0,17.0
95,63,344,0,14.347666666666772,2.0,36.05551275463989,4.0,8.06225774829855,10.04987562112089,11.180339887498949,9.0,23.021728866442675,15.0,14.0,14.0,12.0,4.0,10.0,1.0,1.0,6.0,5.0,5.0,16.0,17.0,16.0312195418814
96,63,345,0,14.389375000000106,5.0,35.05709628591621,4.0,8.0,10.0,10.04987562112089,9.0,26.0,18.0,15.5,14.0,12.0,4.0,13.0,4.0,0.0,5.0990195135927845,5.0990195135927845,5.0,18.0,18.0,17.029386365926403
97,63,346,0,14.43108333333344,6.082762530298219,35.05709628591621,4.0,8.06225774829855,9.0,11.0,8.06225774829855,26.019223662515376,18.0,15.0,14.0,12.0,5.0,13.0,5.0,1.0,5.0,5.0,5.0,18.0,17.0,16.0
98,63,347,0,14.472791666666774,6.082762530298219,35.05709628591621,4.0,8.06225774829855,9.0,11.0,8.06225774829855,26.019223662515376,18.0,15.0,14.0,12.0,5.0,13.0,5.0,1.0,5.0,5.0,5.0,18.0,17.0,16.0
99,63,348,0,14.514500000000108,1.4142135623730951,35.05709628591621,4.123105625617661,7.0,9.055385138137417,9.055385138137417,11.0,23.0,16.0,15.5,15.0,13.0,3.0,9.0,2.0,0.0,6.082762530298219,5.0,5.0,18.0,17.0,17.029386365926403
100,63,349,0,14.556208333333442,0.0,36.124783736376884,5.0,8.06225774829855,10.0,10.04987562112089,10.0,23.021728866442675,15.0,15.0,15.0,12.0,3.5,9.5,1.5,0.5,6.0,5.0,5.0,17.0,17.0,17.029386365926403
101,63,350,0,14.597916666666777,0.0,35.05709628591621,4.0,8.0,9.055385138137417,10.04987562112089,11.0,23.0,15.0,15.0,15.0,13.0,3.0,9.0,1.0,0.0,5.0,5.0990195135927845,5.0,18.0,17.0,17.029386365926403
102,63,351,0,14.63962500000011,0.0,35.05709628591621,5.0,9.0,9.055385138137417,10.04987562112089,11.0,25.0,16.0,16.0,16.0,14.0,4.0,10.0,1.0,0.0,6.0,5.0990195135927845,5.0,19.0,18.0,17.029386365926403
103,63,352,0,14.681333333333445,2.0,34.23448553724738,5.0,8.06225774829855,9.055385138137417,10.04987562112089,9.0,24.020824298928627,16.0,15.0,16.0,12.0,5.0,10.0,2.0,1.0,6.0,5.0990195135927845,5.5,18.0,18.0,17.029386365926403
104,63,353,0,14.72304166666678,3.1622776601683795,34.058772731852805,4.0,8.06225774829855,9.055385138137417,11.045361017187261,9.055385138137417,24.020824298928627,16.0,14.5,15.0,13.0,5.0,10.0,2.0,2.0,5.0,5.0990195135927845,4.5,16.0,17.0,17.11724276862369
105,63,354,0,14.764750000000111,3.0,34.132096331752024,4.0,8.0,10.04987562112089,10.04987562112089,9.0,24.0,16.0,14.5,15.0,12.0,4.5,10.5,1.5,1.5,5.0,5.0990195135927845,5.0,15.0,17.0,16.0312195418814
106,63,355,0,14.806458333333447,3.0,34.132096331752024,4.0,8.0,10.04987562112089,10.04987562112089,9.0,24.0,16.0,14.5,15.0,12.0,4.5,10.5,1.5,1.5,5.0,5.0990195135927845,5.0,15.0,17.0,16.0312195418814
107,63,356,0,14.84816666666678,1.4142135623730951,34.058772731852805,4.123105625617661,7.0,10.0,10.04987562112089,9.0,21.0,14.0,13.5,15.0,13.0,5.0,7.0,0.0,1.0,5.0990195135927845,5.0990195135927845,5.0,15.0,16.0,16.0312195418814
108,63,357,0,14.889875000000115,0.0,32.0624390837628,4.0,8.0,8.06225774829855,10.04987562112089,10.0,22.0,14.0,14.0,15.0,13.0,4.0,8.0,0.0,1.0,6.082762530298219,5.0990195135927845,5.0,17.0,17.0,18.110770276274835
109,63,358,0,14.93158333333345,0.0,34.058772731852805,4.0,8.0,10.04987562112089,10.04987562112089,10.0,22.0,14.0,14.0,15.0,13.0,4.0,8.0,0.0,1.0,5.0990195135927845,5.0990195135927845,5.0,17.0,16.0,16.0312195418814
110,63,359,0,14.973291666666784,0.0,34.058772731852805,4.0,8.0,10.04987562112089,10.0,10.0,22.0,14.0,14.0,15.0,13.0,4.0,8.0,0.0,1.0,5.0990195135927845,5.0990195135927845,5.0,18.0,17.0,17.029386365926403
111,63,360,0,15.015000000000118,2.0,35.05709628591621,4.0,8.06225774829855,9.055385138137417,11.045361017187261,10.0,24.020824298928627,16.0,15.0,16.0,14.0,5.0,9.0,1.0,2.0,5.0,4.0,4.0,17.0,17.0,16.1245154965971
112,63,361,0,15.056708333333452,2.0,35.05709628591621,5.0,9.0,10.04987562112089,10.04987562112089,9.055385138137417,25.019992006393608,16.0312195418814,15.0,16.0,14.0,6.0,10.0,1.0,2.0,4.0,4.0,4.0,17.0,16.0,15.033296378372908
113,63,362,0,15.098416666666786,2.0,34.058772731852805,4.123105625617661,8.0,9.055385138137417,11.045361017187261,9.055385138137417,23.0,15.0,14.0,15.0,13.0,5.0,9.0,1.0,2.0,5.0,4.123105625617661,4.0,16.0,16.0,15.033296378372908
114,63,363,0,15.14012500000012,3.0,34.058772731852805,5.0,8.0,9.055385138137417,10.04987562112089,8.06225774829855,24.020824298928627,16.0312195418814,14.5,15.0,13.0,6.0,10.0,2.0,2.0,4.0,4.123105625617661,4.0,17.0,17.0,15.0
115,63,364,0,15.181833333333454,5.0,32.0624390837628,4.0,8.0,9.0,10.04987562112089,8.06225774829855,25.019992006393608,17.029386365926403,14.5,14.0,12.0,5.0,12.0,4.0,1.0,5.0,4.123105625617661,4.5,18.0,18.0,16.0312195418814
116,63,365,0,15.223541666666788,2.0,33.13608305156178,4.0,8.0,9.0,10.04987562112089,9.055385138137417,23.021728866442675,15.033296378372908,14.0,15.0,12.0,4.5,9.5,1.5,0.5,5.0990195135927845,5.0990195135927845,5.0,17.0,17.0,16.0312195418814
117,63,366,0,15.265250000000124,1.4142135623730951,33.13608305156178,4.0,7.0,10.04987562112089,10.198039027185569,8.06225774829855,20.09975124224178,13.152946437965905,12.5,15.0,12.0,5.5,6.5,0.5,2.5,5.0,5.0990195135927845,4.5,17.0,17.0,15.033296378372908
118,63,367,0,15.306958333333457,1.0,31.25699921617557,4.123105625617661,8.0,9.0,10.04987562112089,8.06225774829855,21.095023109728988,13.152946437965905,12.5,15.0,11.0,5.0,8.0,0.0,1.0,5.0990195135927845,5.0990195135927845,5.0,18.0,18.0,15.033296378372908
119,63,368,0,15.34866666666679,2.23606797749979,33.13608305156178,5.0990195135927845,8.06225774829855,10.0,11.045361017187261,7.0,22.02271554554524,14.0,13.0,14.0,11.0,5.5,9.5,1.5,1.5,5.0,5.0,5.0,15.0,16.0,16.1245154965971
120,63,369,0,15.390375000000123,3.0,33.24154027718932,4.0,8.0,10.04987562112089,11.045361017187261,8.0,23.0,15.0,13.5,15.0,11.0,5.0,10.0,2.0,2.0,5.0,4.123105625617661,4.5,15.0,16.0,16.1245154965971
121,63,370,0,15.43208333333346,5.0990195135927845,33.13608305156178,5.0,8.0,10.04987562112089,11.045361017187261,7.0710678118654755,25.0,17.0,14.5,15.0,12.0,6.5,11.5,3.5,2.5,5.0,5.0990195135927845,5.0,15.0,17.0,15.132745950421556
122,63,371,0,15.473791666666791,5.0990195135927845,33.13608305156178,5.0,8.0,10.04987562112089,11.045361017187261,7.0710678118654755,25.0,17.0,14.5,15.0,12.0,6.5,11.5,3.5,2.5,5.0,5.0990195135927845,5.0,15.0,17.0,15.132745950421556
123,63,372,0,15.515500000000127,9.055385138137417,32.14031735997639,4.0,8.06225774829855,9.055385138137417,11.180339887498949,8.0,29.0,21.02379604162864,16.5,15.0,12.0,5.5,15.5,7.5,2.5,6.0,5.0990195135927845,5.0,16.0,17.0,15.033296378372908
124,63,373,0,15.55720833333346,10.0,33.13608305156178,4.123105625617661,9.0,9.055385138137417,11.045361017187261,7.0,30.01666203960727,21.02379604162864,16.0,13.0,10.0,4.5,18.5,9.5,1.5,5.0,5.0990195135927845,5.5,14.0,16.0,15.132745950421556
125,63,374,0,15.598916666666796,9.055385138137417,33.13608305156178,3.0,8.0,9.055385138137417,10.04987562112089,7.0,27.018512172212592,19.026297590440446,14.5,12.0,9.0,3.5,16.5,8.5,1.5,5.0,5.0990195135927845,5.0,14.0,16.0,15.132745950421556
126,63,375,0,15.64062500000013,9.055385138137417,33.13608305156178,3.0,8.0,9.055385138137417,10.04987562112089,7.0,27.018512172212592,19.026297590440446,14.5,12.0,9.0,3.5,16.5,8.5,1.5,5.0,5.0990195135927845,5.0,14.0,16.0,15.132745950421556
127,63,376,0,15.682333333333464,5.0,33.24154027718932,2.23606797749979,7.0,9.055385138137417,10.198039027185569,7.0710678118654755,21.0,14.0,11.5,10.0,6.0,1.0,13.0,6.0,0.0,4.0,4.0,4.0,13.0,15.0,13.038404810405298
128,63,377,0,15.724041666666798,5.0990195135927845,32.2490309931942,2.0,6.0,9.055385138137417,10.198039027185569,6.082762530298219,19.0,13.0,10.5,9.0,5.0,1.0,12.0,6.0,0.0,4.123105625617661,4.0,4.0,13.0,15.0,12.041594578792296
129,63,378,0,15.765750000000132,5.0,32.38826948140329,2.0,6.082762530298219,9.055385138137417,10.198039027185569,6.0,19.026297590440446,13.0,10.5,9.0,4.0,0.5,12.5,6.5,0.5,5.0,5.0990195135927845,4.5,12.0,14.0,14.142135623730951
130,63,379,0,15.807458333333466,5.0,32.2490309931942,2.23606797749979,6.082762530298219,9.055385138137417,10.198039027185569,6.082762530298219,19.026297590440446,13.0,10.5,9.0,5.0,1.0,12.0,6.0,0.0,5.0,5.0990195135927845,5.0,12.0,15.0,13.152946437965905
131,63,380,0,15.8491666666668,4.0,31.25699921617557,2.0,6.082762530298219,8.06225774829855,9.219544457292887,5.0990195135927845,17.0,11.045361017187261,9.0,7.0,3.0,0.0,12.0,6.0,1.0,5.0990195135927845,4.0,4.0,13.0,15.0,13.152946437965905
132,63,381,0,15.890875000000134,4.0,31.25699921617557,2.0,6.0,9.055385138137417,10.198039027185569,5.0,17.0,11.0,9.0,7.0,3.0,0.0,12.0,6.0,1.0,4.0,4.123105625617661,3.5,12.0,14.0,13.152946437965905
133,63,382,0,15.932583333333469,4.0,30.265491900843113,1.0,5.0990195135927845,9.055385138137417,10.198039027185569,7.0710678118654755,17.0,12.041594578792296,10.0,8.0,4.0,1.0,11.0,6.0,1.0,4.0,4.123105625617661,4.0,12.0,15.0,13.152946437965905
134,63,383,0,15.974291666666804,4.0,30.265491900843113,1.0,5.0990195135927845,9.055385138137417,10.198039027185569,7.0710678118654755,17.0,12.041594578792296,10.0,8.0,4.0,1.0,11.0,6.0,1.0,4.0,4.123105625617661,4.0,12.0,15.0,13.152946437965905
135,63,384,0,16.016000000000137,4.0,30.265491900843113,2.0,7.0,9.055385138137417,10.198039027185569,6.0,19.0,12.0,10.0,8.0,4.0,0.0,13.0,6.0,1.0,4.0,4.0,4.0,13.0,15.0,15.132745950421556
136,63,385,0,16.05770833333347,4.0,30.14962686336267,2.0,6.082762530298219,9.055385138137417,9.219544457292887,6.082762530298219,18.0,12.041594578792296,10.0,8.0,5.0,0.5,11.5,6.5,0.5,4.123105625617661,4.0,4.0,11.0,13.0,14.142135623730951
137,63,386,0,16.0994166666668,5.0,31.144823004794873,2.0,6.0,9.055385138137417,9.219544457292887,6.0,19.0,13.0,10.5,8.0,5.0,0.5,12.5,6.5,0.5,4.123105625617661,4.0,4.0,12.0,14.0,14.142135623730951
138,63,387,0,16.141125000000134,5.0,31.144823004794873,2.0,5.0,9.055385138137417,9.055385138137417,6.0,18.0,13.0,10.5,9.0,6.0,1.5,10.5,5.5,0.5,5.0,4.123105625617661,4.0,12.0,14.0,15.132745950421556
139,63,388,0,16.182833333333466,6.0,32.0624390837628,3.0,5.0,8.06225774829855,10.198039027185569,7.0710678118654755,21.02379604162864,16.0312195418814,13.0,10.0,8.0,2.0,12.0,7.0,0.0,4.0,5.0990195135927845,5.0,13.0,15.0,15.132745950421556
140,63,389,0,16.2245416666668,5.0,32.0624390837628,3.0,5.0,8.06225774829855,10.04987562112089,8.06225774829855,21.02379604162864,16.0312195418814,13.5,12.0,10.0,3.0,10.0,5.0,1.0,5.0,4.0,4.5,12.0,14.0,15.132745950421556
141,63,390,0,16.26625000000013,4.0,29.068883707497267,3.0,5.0,9.0,10.04987562112089,9.0,21.0,16.0,14.0,12.0,10.0,2.0,10.0,5.0,0.0,5.0990195135927845,5.0990195135927845,5.0,13.0,14.0,14.142135623730951
142,63,391,0,16.307958333333463,4.0,29.068883707497267,3.0,5.0,9.0,10.04987562112089,9.0,21.0,16.0,14.0,12.0,10.0,2.0,10.0,5.0,0.0,5.0990195135927845,5.0990195135927845,5.0,13.0,14.0,14.142135623730951
143,63,392,0,16.349666666666796,3.0,31.064449134018133,2.0,6.0,9.055385138137417,9.055385138137417,9.0,20.0,14.0,12.5,12.0,10.0,2.0,9.0,3.0,1.0,4.0,3.0,3.5,14.0,15.0,16.0
144,63,393,0,16.391375000000128,1.0,30.066592756745816,3.0,6.0,8.06225774829855,9.055385138137417,9.0,19.0,13.0,12.5,13.0,11.0,3.0,7.0,1.0,1.0,4.0,3.0,3.0,15.0,15.0,16.0312195418814
145,63,394,0,16.43308333333346,1.0,28.0178514522438,3.0,7.0,8.0,9.0,8.0,19.0,12.0,11.5,12.0,11.0,3.5,7.5,0.5,0.5,4.0,3.1622776601683795,3.0,14.0,14.0,16.0312195418814
146,63,395,0,16.474791666666793,1.4142135623730951,29.017236257093817,3.0,7.0,9.0,9.0,8.0,19.026297590440446,12.041594578792296,11.5,12.0,11.0,3.5,7.5,0.5,0.5,4.0,3.1622776601683795,3.0,14.0,14.0,16.0312195418814
147,63,396,0,16.516500000000125,0.0,30.066592756745816,4.0,6.0,8.0,9.055385138137417,8.0,18.0,12.0,12.0,13.0,11.0,4.0,6.0,0.0,1.0,4.0,4.0,4.0,14.0,14.0,15.033296378372908
148,63,397,0,16.558208333333457,0.0,31.064449134018133,3.0,7.0,9.055385138137417,9.055385138137417,9.0,19.0,12.0,12.0,13.0,11.0,3.0,7.0,0.0,1.0,3.0,3.0,3.5,13.0,14.0,15.033296378372908
149,63,398,0,16.59991666666679,1.0,31.064449134018133,3.0,8.0,8.0,10.0,8.0,20.0,12.0,11.5,12.0,10.0,3.0,9.0,1.0,0.0,4.0,4.0,4.0,15.0,15.0,15.033296378372908
150,63,399,0,16.641625000000122,2.0,31.064449134018133,4.0,7.0,9.055385138137417,10.0,7.0,20.0,13.0,12.0,12.0,10.0,4.0,9.0,1.0,1.0,4.0,3.1622776601683795,3.5,14.0,14.0,15.0
151,63,400,0,16.683333333333454,4.0,32.01562118716424,2.0,6.0,9.055385138137417,10.04987562112089,8.0,20.0,14.0,12.0,12.0,11.0,3.5,8.5,2.5,2.5,4.0,4.0,4.0,14.0,14.0,15.033296378372908
152,63,401,0,16.725041666666787,4.0,31.016124838541646,2.0,7.0,9.0,10.04987562112089,8.0,21.0,14.0,12.0,12.0,11.0,3.5,9.5,2.5,1.5,4.123105625617661,4.0,4.0,14.0,14.0,15.033296378372908
153,63,402,0,16.76675000000012,4.0,30.01666203960727,3.0,7.0,9.0,10.04987562112089,8.0,22.0,15.0,13.0,12.0,11.0,3.5,10.5,3.5,0.5,4.0,4.0,4.0,14.0,14.0,15.033296378372908
154,63,403,0,16.80845833333345,4.0,30.0,3.0,7.0,9.0,10.04987562112089,8.0,22.0,15.0,13.0,12.0,12.0,4.0,10.0,3.0,1.0,5.0990195135927845,4.0,4.0,14.0,14.0,16.0
155,63,404,0,16.850166666666784,1.0,29.0,4.0,8.06225774829855,9.0,9.0,7.0,20.024984394500787,12.0,11.5,11.0,11.0,4.0,9.0,1.0,0.0,5.0990195135927845,5.0,5.0,16.0,14.0,15.0
156,63,405,0,16.891875000000116,1.0,29.0,4.123105625617661,8.0,8.0,9.0,8.0,21.02379604162864,13.038404810405298,12.5,12.0,12.0,4.0,9.0,1.0,1.0,4.0,4.0,4.0,15.0,14.0,16.0312195418814
157,63,406,0,16.93358333333345,4.0,30.01666203960727,4.123105625617661,7.0,9.0,9.055385138137417,8.0,23.021728866442675,16.0312195418814,14.0,12.0,13.0,4.5,10.5,2.5,0.5,5.0,4.0,4.0,15.0,13.0,16.0312195418814
158,63,407,0,16.97529166666678,3.0,30.01666203960727,4.123105625617661,8.06225774829855,8.0,9.055385138137417,8.0,23.08679276123039,15.033296378372908,13.5,12.0,13.0,4.5,10.5,2.5,0.5,4.0,4.123105625617661,4.0,15.0,13.0,16.0312195418814
159,63,408,0,17.017000000000113,3.0,31.016124838541646,4.123105625617661,7.0,9.055385138137417,10.04987562112089,7.0,21.02379604162864,14.035668847618199,12.5,11.0,12.0,4.5,9.5,2.5,0.5,4.0,5.0,5.0,15.0,13.0,15.0
160,63,409,0,17.058708333333445,3.0,32.0624390837628,4.123105625617661,7.0,9.055385138137417,10.04987562112089,7.0,21.02379604162864,14.035668847618199,12.5,11.0,13.0,5.0,9.0,1.0,1.0,5.0990195135927845,5.0,5.0,15.0,12.0,16.0312195418814
161,63,410,0,17.100416666666778,4.0,30.066592756745816,3.1622776601683795,7.0710678118654755,9.0,10.0,9.0,23.08679276123039,16.0312195418814,14.0,11.0,13.0,3.0,11.0,3.0,0.0,4.123105625617661,5.0,5.0,16.0,12.0,15.0
162,63,411,0,17.14212500000011,3.1622776601683795,30.066592756745816,4.123105625617661,8.0,8.0,9.055385138137417,8.0,23.08679276123039,15.132745950421556,13.5,11.0,13.0,4.0,11.0,3.0,0.0,4.123105625617661,5.0,5.0,15.0,12.0,15.033296378372908
163,63,412,0,17.183833333333443,1.0,30.066592756745816,3.0,7.0710678118654755,8.0,9.0,9.219544457292887,20.223748416156685,13.152946437965905,12.5,10.0,12.0,2.0,9.0,1.0,1.0,5.0990195135927845,5.0990195135927845,5.0,17.0,13.0,14.0
164,63,413,0,17.225541666666775,1.0,30.01666203960727,4.123105625617661,7.0710678118654755,8.0,9.0,9.055385138137417,21.213203435596427,14.142135623730951,13.5,12.0,13.0,3.5,8.5,1.5,0.5,5.0990195135927845,5.0,5.0,16.0,12.0,13.0
165,63,414,0,17.267250000000107,2.23606797749979,29.068883707497267,4.0,7.0710678118654755,7.0,8.06225774829855,9.055385138137417,22.20360331117452,15.132745950421556,14.0,11.0,13.0,3.0,10.0,2.0,1.0,5.0990195135927845,4.0,4.5,15.0,12.0,14.035668847618199
166,63,415,0,17.30895833333344,2.23606797749979,29.068883707497267,4.0,7.0710678118654755,7.0,8.06225774829855,9.055385138137417,22.20360331117452,15.132745950421556,14.0,11.0,13.0,3.0,10.0,2.0,1.0,5.0990195135927845,4.0,4.5,15.0,12.0,14.035668847618199
167,63,416,0,17.350666666666772,6.082762530298219,30.01666203960727,4.123105625617661,8.06225774829855,8.0,9.0,8.06225774829855,26.30589287593181,18.24828759089466,15.0,12.0,13.0,4.5,13.5,5.5,0.5,5.0990195135927845,5.0,5.0,16.0,12.0,14.035668847618199
168,63,417,0,17.392375000000104,6.082762530298219,29.0,4.123105625617661,8.06225774829855,9.0,10.0,7.0,25.179356624028344,17.11724276862369,14.0,11.0,11.0,4.0,14.0,6.0,1.0,5.0990195135927845,4.0,4.5,16.0,13.0,14.0
169,63,418,0,17.434083333333437,7.0710678118654755,29.017236257093817,3.0,7.0710678118654755,8.0,9.055385138137417,8.246211251235321,25.317977802344327,18.24828759089466,14.5,11.0,12.0,3.5,13.5,5.5,0.5,5.0990195135927845,5.0,5.0,16.0,13.0,14.035668847618199
170,63,419,0,17.47579166666677,5.0990195135927845,29.017236257093817,4.0,8.06225774829855,8.0,9.055385138137417,8.246211251235321,25.317977802344327,17.26267650163207,14.5,11.0,12.0,3.5,13.5,5.5,0.5,5.0990195135927845,5.0,5.0,17.0,14.0,14.035668847618199
171,63,420,0,17.5175000000001,5.0990195135927845,28.0178514522438,4.123105625617661,8.06225774829855,8.06225774829855,9.0,8.06225774829855,25.317977802344327,17.26267650163207,14.5,11.0,12.0,3.5,13.5,4.5,0.5,5.0990195135927845,4.123105625617661,4.5,15.0,13.0,13.038404810405298
172,63,421,0,17.559208333333434,6.082762530298219,28.0178514522438,4.0,7.0710678118654755,9.0,9.0,7.280109889280518,24.331050121192877,17.26267650163207,14.0,10.0,11.0,3.5,13.5,5.5,0.5,5.0990195135927845,5.0,5.0,15.0,13.0,14.0
173,63,422,0,17.600916666666766,4.123105625617661,28.0,4.0,7.0710678118654755,7.0,8.06225774829855,8.06225774829855,23.194827009486403,16.1245154965971,14.0,11.0,11.0,3.0,12.0,5.0,0.0,5.0990195135927845,5.0,5.0,15.0,13.0,14.0
174,63,423,0,17.6426250000001,4.123105625617661,28.0,4.0,7.0710678118654755,7.0,8.06225774829855,8.06225774829855,23.194827009486403,16.1245154965971,14.0,11.0,11.0,3.0,12.0,5.0,0.0,5.0990195135927845,5.0,5.0,15.0,13.0,14.0
175,63,424,0,17.68433333333343,4.0,29.0,4.0,7.0710678118654755,7.0,8.06225774829855,7.0710678118654755,22.090722034374522,15.033296378372908,13.0,11.0,11.0,4.0,11.0,3.0,1.0,4.123105625617661,5.0,5.0,14.0,13.0,12.041594578792296
176,63,425,0,17.726041666666763,1.0,30.01666203960727,4.0,7.0710678118654755,8.0,9.055385138137417,7.280109889280518,19.235384061671343,12.165525060596439,11.5,10.0,9.0,2.5,9.5,2.5,0.5,5.0990195135927845,4.123105625617661,4.0,14.0,13.0,13.038404810405298
177,63,426,0,17.767750000000095,1.0,29.017236257093817,3.0,8.06225774829855,8.0,9.055385138137417,9.055385138137417,21.095023109728988,13.038404810405298,12.5,12.0,11.0,2.5,9.5,1.5,0.5,5.0990195135927845,4.123105625617661,4.0,14.0,13.0,12.0
178,63,427,0,17.809458333333428,1.0,29.017236257093817,3.0,8.06225774829855,8.0,9.055385138137417,9.055385138137417,21.095023109728988,13.038404810405298,12.5,12.0,11.0,2.5,9.5,1.5,0.5,5.0990195135927845,4.123105625617661,4.0,14.0,13.0,12.0
179,63,428,0,17.85116666666676,3.0,31.016124838541646,4.123105625617661,7.0,8.0,9.0,8.0,22.02271554554524,15.033296378372908,13.5,11.0,10.0,2.5,11.5,4.5,0.5,5.0,5.0990195135927845,5.0,14.0,14.0,16.0
180,63,429,0,17.892875000000092,4.0,31.016124838541646,4.123105625617661,7.0,8.06225774829855,9.055385138137417,8.0,23.021728866442675,16.0312195418814,14.0,12.0,11.0,3.5,11.5,4.5,0.5,5.0,5.0,5.0,15.0,15.0,15.033296378372908
181,63,430,0,17.934583333333425,1.0,31.064449134018133,4.0,7.0,8.0,9.055385138137417,8.0,20.0,13.0,12.5,12.0,10.0,3.0,9.0,2.0,1.0,5.0,5.0,5.0,14.0,14.0,15.033296378372908
182,63,431,0,17.976291666666757,1.0,31.064449134018133,4.0,7.0,8.0,9.055385138137417,8.0,20.0,13.0,12.5,12.0,10.0,3.0,9.0,2.0,1.0,5.0,5.0,5.0,14.0,14.0,15.033296378372908
183,63,432,0,18.01800000000009,1.0,31.064449134018133,4.0,7.0,9.055385138137417,9.055385138137417,8.0,20.0,13.0,12.5,12.0,10.0,3.0,9.0,2.0,0.0,5.0,5.0990195135927845,5.0,13.0,14.0,15.033296378372908
184,63,433,0,18.059708333333425,1.0,32.14031735997639,4.0,8.0,9.055385138137417,10.04987562112089,8.0,21.0,13.0,12.5,13.0,10.0,3.5,9.5,1.5,0.5,4.123105625617661,5.0,4.5,13.0,15.0,14.035668847618199
185,63,434,0,18.10141666666676,3.0,33.13608305156178,4.0,8.0,9.055385138137417,10.04987562112089,8.06225774829855,23.021728866442675,15.033296378372908,13.5,13.0,10.0,3.5,11.5,3.5,0.5,4.0,3.1622776601683795,3.0,13.0,15.0,14.035668847618199
186,63,435,0,18.143125000000087,3.0,33.13608305156178,4.0,8.0,9.055385138137417,10.04987562112089,8.06225774829855,23.021728866442675,15.033296378372908,13.5,13.0,10.0,3.5,11.5,3.5,0.5,4.123105625617661,3.1622776601683795,3.0,13.0,15.0,14.035668847618199
187,63,436,0,18.18483333333342,0.0,33.24154027718932,4.123105625617661,7.0,9.055385138137417,10.04987562112089,9.055385138137417,20.09975124224178,13.152946437965905,13.0,13.0,9.0,2.0,9.0,2.0,1.0,4.0,4.0,3.5,13.0,16.0,15.132745950421556
188,63,437,0,18.22654166666675,0.0,34.36568055487916,3.1622776601683795,7.0710678118654755,9.055385138137417,9.219544457292887,9.055385138137417,19.235384061671343,12.165525060596439,12.0,13.0,8.0,1.5,8.5,1.5,0.5,5.0,5.0990195135927845,4.5,12.0,16.0,15.132745950421556
189,63,438,0,18.268250000000084,0.0,33.54101966249684,4.123105625617661,7.0710678118654755,8.246211251235321,9.219544457292887,9.055385138137417,20.223748416156685,13.152946437965905,13.0,14.0,8.0,2.0,9.0,2.0,0.0,4.0,3.1622776601683795,3.0,11.0,17.0,16.278820596099706
190,63,439,0,18.309958333333416,0.0,33.54101966249684,4.123105625617661,7.0710678118654755,8.246211251235321,9.219544457292887,9.055385138137417,20.223748416156685,13.152946437965905,13.0,14.0,8.0,2.0,9.0,2.0,0.0,4.0,3.1622776601683795,3.0,11.0,17.0,16.278820596099706
191,63,440,0,18.35166666666675,1.4142135623730951,33.37663853655727,4.123105625617661,7.0710678118654755,9.055385138137417,9.055385138137417,9.055385138137417,21.37755832643195,14.317821063276353,13.5,14.0,9.0,2.5,9.5,1.5,0.5,3.0,3.1622776601683795,3.0,11.0,17.0,14.142135623730951
192,63,441,0,18.39337500000008,0.0,34.23448553724738,4.123105625617661,6.082762530298219,9.055385138137417,9.055385138137417,10.04987562112089,20.223748416156685,14.142135623730951,14.0,14.0,10.0,2.0,8.0,2.0,0.0,4.123105625617661,3.1622776601683795,3.0,10.0,16.0,13.341664064126334
193,63,442,0,18.435083333333413,1.0,34.36568055487916,4.123105625617661,7.0710678118654755,9.055385138137417,10.04987562112089,9.055385138137417,21.213203435596427,14.142135623730951,13.5,14.0,9.0,2.5,9.5,2.5,0.5,4.0,3.605551275463989,3.0,10.0,16.0,13.341664064126334
194,63,443,0,18.476791666666745,1.4142135623730951,33.24154027718932,3.1622776601683795,7.0710678118654755,9.055385138137417,9.055385138137417,10.04987562112089,21.37755832643195,14.317821063276353,13.5,14.0,10.0,2.0,9.0,2.0,0.0,4.0,3.1622776601683795,3.0,11.0,17.0,13.341664064126334
195,63,444,0,18.51850000000008,3.1622776601683795,34.23448553724738,3.0,6.0,9.0,10.04987562112089,7.0710678118654755,19.1049731745428,13.152946437965905,11.5,11.0,7.0,2.0,10.0,4.0,1.0,4.0,3.1622776601683795,3.0,10.0,15.0,13.152946437965905
196,63,445,0,18.56020833333341,2.0,35.12833614050059,3.1622776601683795,6.082762530298219,9.0,10.04987562112089,8.06225774829855,19.235384061671343,13.152946437965905,12.0,11.0,8.0,1.5,9.5,3.5,1.5,3.1622776601683795,3.1622776601683795,3.0,11.0,16.0,12.165525060596439
197,63,446,0,18.601916666666742,2.0,34.132096331752024,3.0,7.0710678118654755,10.04987562112089,10.0,8.246211251235321,20.223748416156685,13.152946437965905,12.0,11.0,8.0,1.5,10.5,3.5,0.5,3.0,3.1622776601683795,2.5,11.0,15.0,14.142135623730951
198,63,447,0,18.643625000000075,2.0,34.132096331752024,3.0,7.0710678118654755,10.04987562112089,10.0,8.246211251235321,20.223748416156685,13.152946437965905,12.0,11.0,8.0,1.5,10.5,3.5,0.5,3.0,3.1622776601683795,2.5,11.0,15.0,14.142135623730951
199,63,448,0,18.685333333333407,3.0,34.0147027033899,3.0,7.0710678118654755,10.04987562112089,10.0,8.06225774829855,21.095023109728988,14.035668847618199,12.5,10.0,9.0,1.5,11.5,3.5,0.5,2.0,2.0,2.5,11.0,13.0,13.038404810405298
200,63,449,0,18.72704166666674,1.4142135623730951,33.06055050963308,3.0,7.0,9.055385138137417,10.0,8.0,19.026297590440446,12.041594578792296,11.5,10.0,8.0,1.0,10.0,3.0,1.0,2.0,2.0,2.0,11.0,13.0,13.038404810405298
201,63,450,0,18.76875000000007,1.0,33.015148038438355,3.1622776601683795,7.0,9.055385138137417,11.045361017187261,8.0,19.026297590440446,12.041594578792296,11.5,9.0,8.0,0.5,10.5,3.5,1.5,2.0,2.0,2.0,11.0,13.0,12.041594578792296
202,63,451,0,18.810458333333404,1.0,33.015148038438355,3.1622776601683795,7.0,9.055385138137417,11.045361017187261,8.0,19.026297590440446,12.041594578792296,11.5,9.0,8.0,0.5,10.5,3.5,1.5,2.0,2.0,2.0,11.0,13.0,12.041594578792296
203,63,452,0,18.852166666666736,3.0,34.0147027033899,3.0,6.0,9.055385138137417,11.0,8.06225774829855,20.024984394500787,14.035668847618199,12.5,9.0,8.0,0.5,11.5,4.5,1.5,3.0,3.1622776601683795,3.0,11.0,12.0,12.041594578792296
204,63,453,0,18.89387500000007,2.23606797749979,34.0147027033899,3.0,7.0,9.0,11.0,8.0,20.024984394500787,13.038404810405298,12.0,9.0,8.0,0.5,11.5,3.5,1.5,3.1622776601683795,3.0,3.0,11.0,12.0,13.038404810405298
205,63,454,0,18.9355833333334,3.0,34.0147027033899,3.0,7.0,10.0,12.0,8.0,21.0,14.0,12.5,10.0,9.0,1.5,11.5,4.5,0.5,3.0,3.1622776601683795,3.0,12.0,12.0,12.0
206,63,455,0,18.977291666666734,3.0,34.058772731852805,3.0,7.0,10.0,12.0,8.0,21.0,14.0,12.5,10.0,8.0,1.0,12.0,4.0,1.0,3.0,3.1622776601683795,3.0,12.0,12.0,12.041594578792296
207,63,456,0,19.019000000000062,1.0,34.058772731852805,2.23606797749979,7.0,9.055385138137417,10.04987562112089,9.0,19.026297590440446,12.041594578792296,11.5,8.0,6.0,2.0,12.0,5.0,3.0,3.1622776601683795,3.0,3.0,12.0,12.0,12.041594578792296
208,63,457,0,19.0607083333334,2.0,34.058772731852805,3.0,7.0,10.04987562112089,11.045361017187261,7.0710678118654755,19.026297590440446,12.041594578792296,11.0,8.0,6.0,0.0,12.0,5.0,2.0,3.0,3.0,3.0,11.0,11.0,12.041594578792296
209,63,458,0,19.10241666666673,2.23606797749979,34.0147027033899,2.0,7.0710678118654755,10.0,11.045361017187261,8.0,19.0,12.041594578792296,11.0,8.0,7.0,0.5,11.5,4.5,2.5,3.0,3.0,3.0,12.0,12.0,12.0
210,63,459,0,19.144125000000063,2.0,34.058772731852805,2.0,7.0,10.04987562112089,11.045361017187261,8.06225774829855,19.026297590440446,12.041594578792296,11.0,8.0,6.0,1.0,12.0,5.0,2.0,3.0,3.0,3.0,12.0,12.0,13.0
211,63,460,0,19.185833333333395,0.0,34.0147027033899,3.0,7.0,9.055385138137417,10.04987562112089,7.0,17.0,10.0,10.0,7.0,6.0,0.5,10.5,3.5,2.5,2.0,2.0,2.0,11.0,11.0,12.0
212,63,461,0,19.227541666666728,1.0,34.0147027033899,3.0,7.0,9.055385138137417,10.0,7.0710678118654755,18.027756377319946,11.045361017187261,10.5,7.0,6.0,0.5,11.5,3.5,2.5,3.0,3.0,2.5,11.0,11.0,11.0
213,63,462,0,19.26925000000006,2.23606797749979,35.0,3.0,7.0,9.0,10.0,7.0,19.026297590440446,12.041594578792296,11.0,6.0,6.0,1.0,13.0,5.0,3.0,2.23606797749979,2.0,2.0,12.0,12.0,13.0
214,63,463,0,19.310958333333392,2.0,35.014282800023196,3.0,7.0710678118654755,9.0,10.0,7.0,19.026297590440446,12.0,11.0,7.0,6.0,0.5,12.5,4.5,2.5,2.23606797749979,2.0,2.0,12.0,12.0,12.0
215,63,464,0,19.352666666666725,5.0,36.0,3.0,7.0,10.0,11.0,7.0,22.0,15.0,12.5,7.0,7.0,0.0,15.0,7.0,2.0,3.0,2.23606797749979,2.0,12.0,12.0,12.041594578792296
216,63,465,0,19.394375000000057,5.0990195135927845,36.0,3.0,7.0,11.0,11.0,7.0,22.02271554554524,15.033296378372908,12.5,7.0,7.0,0.0,15.0,7.0,2.0,3.0,3.0,3.0,12.0,12.0,12.0
217,63,466,0,19.43608333333339,4.0,35.0,3.0,7.0,10.0,11.0,7.0,21.0,14.0,12.0,7.0,7.0,0.0,14.0,7.0,2.0,3.1622776601683795,3.0,3.0,12.0,12.0,11.0
218,63,467,0,19.47779166666672,4.0,34.0,3.0,7.0,10.0,11.0,7.0,21.0,14.0,12.0,7.0,7.0,0.0,14.0,7.0,2.0,4.0,3.1622776601683795,3.5,11.0,11.0,11.0
219,63,468,0,19.51950000000005,2.0,35.0,3.0,7.0,10.0,11.0,6.0,18.0,11.0,10.0,6.0,6.0,0.0,12.0,5.0,3.0,3.0,2.0,2.0,12.0,12.0,12.041594578792296
220,63,469,0,19.561208333333383,3.0,35.0,3.0,7.0,10.0,11.0,6.0,19.0,12.0,10.5,7.0,7.0,1.0,12.0,5.0,2.0,2.0,2.0,1.5,12.0,11.0,13.0
221,63,470,0,19.60291666666672,4.0,34.0,2.0,7.0,10.0,10.0,7.0,20.0,13.0,11.0,7.0,7.0,0.0,13.0,5.0,2.0,2.0,3.0,2.5,12.0,11.0,11.0
222,63,471,0,19.64462500000005,4.0,34.0,2.0,7.0,10.0,10.0,7.0,20.0,13.0,11.0,7.0,7.0,0.0,13.0,5.0,2.0,2.0,3.0,2.5,12.0,11.0,11.0
223,63,472,0,19.686333333333383,2.0,34.0,3.1622776601683795,7.0,9.055385138137417,10.0,8.0,20.024984394500787,13.038404810405298,12.0,8.0,8.0,0.0,12.0,5.0,3.0,2.0,2.0,2.0,11.0,12.0,12.0
224,63,473,0,19.72804166666672,2.23606797749979,34.0,2.0,6.0,9.0,10.0,8.0,18.027756377319946,12.041594578792296,11.0,8.0,8.0,0.0,10.0,3.0,2.0,2.0,2.0,2.0,11.0,12.0,12.0
225,63,474,0,19.769750000000048,2.23606797749979,36.013886210738214,3.0,7.0,10.0,10.0,8.0,20.024984394500787,13.038404810405298,12.0,9.0,8.0,0.5,11.5,3.5,1.5,2.0,1.0,1.0,11.0,12.0,13.0
226,63,475,0,19.81145833333338,2.23606797749979,36.013886210738214,3.0,7.0,10.0,10.0,8.0,20.024984394500787,13.038404810405298,12.0,9.0,8.0,0.5,11.5,3.5,1.5,2.0,1.0,1.0,11.0,12.0,13.0
227,63,476,0,19.85316666666672,2.0,36.013886210738214,2.0,7.0,10.04987562112089,11.0,8.0,19.0,12.0,11.0,9.0,8.0,0.5,10.5,2.5,0.5,4.0,3.1622776601683795,3.5,12.0,13.0,13.0
228,63,477,0,19.894875000000045,3.0,35.05709628591621,2.0,7.0,10.0,11.0,8.0,20.0,13.0,11.5,11.0,9.0,2.0,10.0,2.0,0.0,4.123105625617661,4.123105625617661,4.0,12.0,13.0,14.035668847618199
229,63,478,0,19.936583333333378,3.0,35.05709628591621,3.0,7.0,10.04987562112089,12.041594578792296,7.0,20.0,13.0,11.5,11.0,9.0,3.0,10.0,3.0,1.0,5.0,4.0,4.5,12.0,13.0,14.035668847618199
230,63,479,0,19.97829166666671,3.0,35.05709628591621,3.0,7.0,10.04987562112089,11.045361017187261,7.0,20.0,13.0,11.5,11.0,9.0,3.0,10.0,3.0,1.0,4.123105625617661,4.123105625617661,3.5,11.0,13.0,14.035668847618199
231,63,480,0,20.02000000000004,6.082762530298219,34.23448553724738,3.0,7.0710678118654755,9.055385138137417,10.198039027185569,7.0,23.0,16.0312195418814,13.0,12.0,8.0,3.0,13.0,6.0,1.0,4.0,4.123105625617661,4.0,13.0,15.0,13.038404810405298
232,63,481,0,20.06170833333337,7.0710678118654755,32.2490309931942,3.0,7.0,9.055385138137417,10.198039027185569,7.0710678118654755,24.0,17.0,13.5,12.0,8.0,3.0,14.0,7.0,1.0,4.0,5.0990195135927845,5.0,12.0,15.0,15.132745950421556
233,63,482,0,20.103416666666707,4.123105625617661,31.144823004794873,4.0,7.0710678118654755,9.055385138137417,9.055385138137417,7.0,22.0,15.033296378372908,13.0,12.0,9.0,3.5,11.5,4.5,0.5,5.0,4.0,4.5,11.0,15.0,15.132745950421556
234,63,483,0,20.14512500000004,4.123105625617661,31.144823004794873,4.0,7.0710678118654755,9.055385138137417,9.055385138137417,7.0,22.0,15.033296378372908,13.0,12.0,9.0,3.5,11.5,4.5,0.5,5.0,4.0,4.5,11.0,15.0,15.132745950421556
235,63,484,0,20.18683333333337,1.0,32.38826948140329,3.0,7.0710678118654755,8.06225774829855,9.219544457292887,7.0,18.027756377319946,11.0,10.5,13.0,8.0,3.5,7.5,0.5,1.5,4.0,4.123105625617661,4.0,11.0,15.0,14.142135623730951
236,63,485,0,20.228541666666704,1.0,30.4138126514911,4.0,7.0,9.219544457292887,9.219544457292887,7.0710678118654755,19.026297590440446,12.041594578792296,11.5,13.0,8.0,3.5,8.5,2.5,1.5,5.0,5.0990195135927845,5.0,11.0,16.0,14.035668847618199
237,63,486,0,20.27025000000004,1.0,32.55764119219941,3.0,8.06225774829855,9.055385138137417,9.219544457292887,7.0,19.026297590440446,11.0,10.5,13.0,7.0,3.0,9.0,2.0,1.0,4.0,4.123105625617661,4.0,10.0,14.0,13.152946437965905
238,63,487,0,20.31195833333337,2.0,31.400636936215164,3.0,7.0710678118654755,9.055385138137417,9.219544457292887,7.0,19.026297590440446,12.0,11.0,13.0,8.0,3.5,8.5,1.5,1.5,4.0,5.0990195135927845,5.0,10.0,15.0,15.297058540778355
239,63,488,0,20.3536666666667,3.0,32.2490309931942,3.0,8.0,10.04987562112089,10.198039027185569,7.0,21.0,13.0,11.5,13.0,9.0,4.0,10.0,2.0,2.0,5.0,5.0990195135927845,4.5,11.0,15.0,15.132745950421556
240,63,489,0,20.39537500000004,3.0,34.36568055487916,3.0,7.0710678118654755,10.04987562112089,10.198039027185569,7.0,20.024984394500787,13.0,11.5,14.0,9.0,4.5,8.5,1.5,2.5,5.0,5.0990195135927845,5.0,11.0,15.0,16.1245154965971
241,63,490,0,20.43708333333337,4.123105625617661,34.36568055487916,3.1622776601683795,8.06225774829855,10.04987562112089,11.180339887498949,7.0,22.02271554554524,14.0,12.0,14.0,9.0,4.5,10.5,3.5,2.5,4.0,4.123105625617661,4.5,11.0,15.0,15.297058540778355
242,63,491,0,20.47879166666669,4.123105625617661,34.36568055487916,3.1622776601683795,8.06225774829855,10.04987562112089,11.180339887498949,7.0,22.02271554554524,14.0,12.0,14.0,9.0,4.5,10.5,2.5,2.5,5.0,4.123105625617661,4.5,11.0,15.0,15.132745950421556
243,63,492,0,20.52050000000003,7.0,34.23448553724738,4.0,7.0,10.04987562112089,11.180339887498949,7.0,25.0,18.0,14.5,13.0,9.0,4.0,14.0,7.0,1.0,5.0,5.0990195135927845,5.0,12.0,16.0,15.132745950421556
244,63,493,0,20.562208333333363,5.0,35.12833614050059,4.0,7.0,10.0,11.045361017187261,7.0,23.0,16.0,13.5,12.0,9.0,3.5,12.5,5.5,0.5,5.0,5.0990195135927845,5.0,10.0,14.0,14.142135623730951
245,63,494,0,20.60391666666669,6.0,35.12833614050059,3.0,7.0710678118654755,10.0,11.045361017187261,8.06225774829855,24.08318915758459,17.029386365926403,14.0,13.0,10.0,3.5,12.5,4.5,0.5,5.0,5.0990195135927845,5.5,11.0,15.0,14.142135623730951
246,63,495,0,20.645625000000027,6.0,35.12833614050059,3.0,7.0710678118654755,10.0,11.045361017187261,8.06225774829855,24.08318915758459,17.029386365926403,14.0,13.0,10.0,3.5,12.5,4.5,0.5,5.0,5.0990195135927845,5.5,11.0,15.0,14.142135623730951
247,63,496,0,20.68733333333336,3.0,34.0147027033899,3.0,7.0,10.0,11.0,8.06225774829855,21.02379604162864,14.035668847618199,12.5,11.0,10.0,2.5,10.5,2.5,0.5,4.0,5.0990195135927845,4.5,11.0,13.0,13.038404810405298
248,63,497,0,20.72904166666669,3.0,34.0147027033899,2.0,7.0,10.0,11.0,8.06225774829855,20.024984394500787,13.038404810405298,11.5,10.0,9.0,1.5,10.5,3.5,0.5,4.0,4.123105625617661,4.5,11.0,14.0,12.165525060596439
249,63,498,0,20.770750000000024,3.1622776601683795,35.014282800023196,2.23606797749979,7.0710678118654755,9.0,10.0,8.0,20.024984394500787,13.0,11.5,10.0,9.0,1.5,10.5,2.5,0.5,4.0,4.123105625617661,4.5,11.0,14.0,13.038404810405298
250,63,499,0,20.81245833333336,3.1622776601683795,35.014282800023196,2.23606797749979,7.0710678118654755,9.0,10.0,8.0,20.024984394500787,13.0,11.5,10.0,9.0,1.5,10.5,2.5,0.5,4.0,4.123105625617661,4.5,11.0,14.0,13.038404810405298
251,63,500,0,20.85416666666669,2.0,35.05709628591621,3.1622776601683795,7.0710678118654755,10.04987562112089,11.0,7.0,19.1049731745428,12.041594578792296,11.0,10.0,8.0,2.0,10.0,3.0,0.0,4.0,4.0,4.0,11.0,14.0,14.035668847618199
252,63,501,0,20.89587500000002,4.0,34.132096331752024,2.0,6.082762530298219,10.04987562112089,10.04987562112089,8.06225774829855,20.09975124224178,14.035668847618199,12.0,11.0,8.0,1.5,10.5,3.5,0.5,5.0990195135927845,5.0990195135927845,5.0,11.0,14.0,15.033296378372908
253,63,502,0,20.93758333333336,4.0,34.132096331752024,3.0,7.0,10.04987562112089,11.0,8.06225774829855,22.02271554554524,15.033296378372908,13.0,12.0,9.0,2.5,11.5,4.5,0.5,5.0,5.0,4.5,12.0,14.0,13.038404810405298
254,63,503,0,20.97929166666669,4.0,35.12833614050059,3.1622776601683795,7.0,11.045361017187261,11.0,8.0,22.02271554554524,15.033296378372908,13.0,12.0,9.0,2.5,11.5,4.5,0.5,5.0,5.0990195135927845,4.5,11.0,13.0,15.033296378372908
255,63,504,0,21.02100000000002,2.23606797749979,30.01666203960727,4.123105625617661,8.06225774829855,6.0,7.0,11.180339887498949,25.495097567963924,17.46424919657298,16.0,14.0,15.0,3.5,10.5,2.5,0.5,5.0990195135927845,5.0,5.0,18.0,15.0,14.142135623730951
256,63,505,0,21.06270833333335,2.23606797749979,30.01666203960727,4.123105625617661,7.0710678118654755,7.0,8.0,11.045361017187261,24.331050121192877,17.26267650163207,16.0,14.0,15.0,3.5,9.5,1.5,0.5,5.0,4.0,4.0,18.0,15.0,13.152946437965905
257,63,506,0,21.104416666666683,2.23606797749979,29.017236257093817,5.0990195135927845,7.0710678118654755,7.0,8.0,10.04987562112089,24.331050121192877,17.26267650163207,16.0,13.0,14.0,3.5,10.5,2.5,0.5,5.0990195135927845,5.0990195135927845,5.0,18.0,14.0,13.152946437965905
258,63,507,0,21.146125000000016,3.1622776601683795,28.0178514522438,5.0990195135927845,9.055385138137417,6.082762530298219,8.0,10.198039027185569,27.459060435491963,18.439088914585774,16.5,14.0,15.0,4.5,12.5,2.5,0.5,4.123105625617661,4.0,4.0,19.0,15.0,13.152946437965905
259,63,508,0,21.187833333333348,4.123105625617661,27.073972741361768,4.123105625617661,9.055385138137417,7.0,8.0,10.198039027185569,27.459060435491963,18.439088914585774,16.0,14.0,16.0,5.0,12.0,2.0,1.0,5.0990195135927845,5.0,5.0,18.0,15.0,15.033296378372908
260,63,509,0,21.22954166666668,4.123105625617661,30.14962686336267,5.0990195135927845,9.055385138137417,7.0710678118654755,8.06225774829855,10.04987562112089,28.284271247461902,19.235384061671343,17.0,14.0,17.0,5.5,12.5,2.5,0.5,4.123105625617661,5.0,5.0,19.0,16.0,13.152946437965905
261,63,510,0,21.271250000000013,4.123105625617661,31.144823004794873,5.0990195135927845,9.055385138137417,7.0710678118654755,9.055385138137417,9.219544457292887,27.459060435491963,18.439088914585774,16.0,13.0,16.0,5.5,12.5,3.5,0.5,4.0,4.0,4.5,20.0,17.0,14.142135623730951
262,63,511,0,21.312958333333345,3.1622776601683795,33.13608305156178,4.0,9.055385138137417,8.06225774829855,9.0,9.219544457292887,25.317977802344327,16.278820596099706,14.5,12.0,15.0,4.5,11.5,1.5,0.5,5.0990195135927845,5.0,5.0,20.0,17.0,14.142135623730951
263,63,512,0,21.35466666666668,2.0,30.01666203960727,4.123105625617661,10.04987562112089,8.0,9.0,9.219544457292887,25.317977802344327,15.297058540778355,14.0,12.0,13.0,3.5,12.5,2.5,0.5,4.0,5.0,5.0,18.0,16.0,14.035668847618199
264,63,513,0,21.39637500000001,2.0,31.064449134018133,4.123105625617661,9.055385138137417,8.0,9.0,9.055385138137417,24.186773244895647,15.132745950421556,14.0,13.0,15.0,5.0,10.0,0.0,1.0,4.123105625617661,5.0,5.0,19.0,17.0,15.132745950421556
265,63,514,0,21.438083333333346,1.0,29.017236257093817,5.0990195135927845,9.055385138137417,7.0,9.055385138137417,8.06225774829855,23.194827009486403,14.142135623730951,13.5,13.0,14.0,5.5,9.5,0.5,1.5,4.0,5.0,5.0,19.0,16.0,15.132745950421556
266,63,515,0,21.479791666666674,3.0,28.0178514522438,4.0,9.055385138137417,8.0,9.055385138137417,8.06225774829855,24.08318915758459,15.033296378372908,13.5,14.0,15.0,6.5,9.5,0.5,2.5,4.123105625617661,4.0,4.0,19.0,16.0,16.1245154965971
267,63,516,0,21.521500000000007,4.123105625617661,27.073972741361768,5.0990195135927845,10.04987562112089,7.0710678118654755,8.0,9.055385138137417,28.071337695236398,18.027756377319946,16.0,15.0,17.0,7.0,12.0,1.0,2.0,4.123105625617661,5.0,5.0,19.0,16.0,15.132745950421556
268,63,517,0,21.56320833333334,1.4142135623730951,30.01666203960727,5.0990195135927845,9.0,8.0,9.0,10.0,25.079872407968907,16.1245154965971,15.5,15.0,16.0,5.5,9.5,0.5,0.5,4.123105625617661,5.0,5.0,19.0,15.0,15.033296378372908
269,63,518,0,21.60491666666667,1.0,30.066592756745816,4.123105625617661,9.055385138137417,9.0,9.0,11.0,25.079872407968907,16.0312195418814,15.5,15.0,17.0,5.0,9.0,0.0,1.0,5.0990195135927845,4.0,4.5,20.0,16.0,15.033296378372908
270,63,519,0,21.646625000000004,3.0,29.017236257093817,5.0990195135927845,9.0,8.06225774829855,9.0,9.055385138137417,26.076809620810597,17.11724276862369,15.5,16.0,15.0,6.5,10.5,0.5,2.5,5.0990195135927845,5.0,5.0,19.0,15.0,14.142135623730951
271,63,520,0,21.688333333333336,6.0,29.017236257093817,4.123105625617661,9.055385138137417,8.0,8.0,8.0,27.073972741361768,18.027756377319946,15.0,17.0,16.0,8.5,10.5,1.5,4.5,5.385164807134504,4.0,4.5,20.0,16.0,15.132745950421556
272,63,521,0,21.73004166666667,3.0,29.0,4.0,8.06225774829855,9.0,9.0,8.0,23.021728866442675,15.0,13.5,14.0,14.0,6.0,9.0,0.0,2.0,5.385164807134504,4.0,4.0,21.0,17.0,16.278820596099706
273,63,522,0,21.77175,1.4142135623730951,30.0,5.0,9.055385138137417,8.0,8.0,9.0,24.08318915758459,15.033296378372908,14.5,15.0,15.0,6.0,9.0,0.0,2.0,5.0990195135927845,4.123105625617661,4.0,21.0,16.0,16.1245154965971
274,63,523,0,21.813458333333333,4.0,33.015148038438355,4.123105625617661,10.04987562112089,10.04987562112089,11.045361017187261,9.0,27.073972741361768,17.029386365926403,15.0,15.0,16.0,6.5,11.5,1.5,2.5,5.0990195135927845,4.0,4.5,21.0,16.0,16.1245154965971
275,63,524,0,21.855166666666666,4.0,33.0,4.123105625617661,10.04987562112089,9.0,10.0,8.0,26.076809620810597,16.0312195418814,14.0,15.0,15.0,7.0,11.0,1.0,3.0,4.123105625617661,4.0,3.5,20.0,15.0,16.0312195418814
276,63,525,0,21.896875,5.0,33.0,4.123105625617661,9.055385138137417,10.0,10.04987562112089,8.0,26.076809620810597,17.029386365926403,14.5,14.0,14.0,6.0,12.0,3.0,2.0,3.0,3.0,3.0,21.0,17.0,17.11724276862369
277,63,526,0,21.93858333333333,4.123105625617661,35.0,5.0,9.055385138137417,10.0,11.045361017187261,8.0,26.076809620810597,17.029386365926403,15.0,15.0,15.0,7.0,11.0,2.0,3.0,3.1622776601683795,3.0,3.0,20.0,16.0,18.110770276274835
278,63,527,0,21.980291666666663,4.123105625617661,36.013886210738214,5.0,9.055385138137417,10.0,11.045361017187261,8.0,26.076809620810597,17.029386365926403,15.0,14.0,15.0,6.5,11.5,2.5,2.5,3.1622776601683795,3.0,3.0,20.0,17.0,17.029386365926403
279,63,528,0,22.021999999999995,3.0,36.0,5.0990195135927845,9.055385138137417,10.0,11.045361017187261,9.0,26.076809620810597,17.029386365926403,15.5,15.0,15.0,6.0,11.0,1.0,2.0,3.0,3.0,3.5,19.0,16.0,18.110770276274835
280,63,529,0,22.063708333333327,4.123105625617661,35.0,5.0990195135927845,9.0,11.0,11.0,9.0,27.073972741361768,18.110770276274835,16.0,15.0,15.0,6.0,12.0,3.0,2.0,5.0990195135927845,4.0,4.0,18.0,16.0,17.029386365926403
281,63,530,0,22.10541666666666,5.0990195135927845,36.013886210738214,4.0,8.0,11.0,12.041594578792296,9.055385138137417,26.076809620810597,18.110770276274835,15.5,16.0,15.0,6.5,10.5,1.5,2.5,3.1622776601683795,3.0,3.0,19.0,16.0,18.0
282,63,531,0,22.147124999999992,4.0,36.0,4.0,9.0,11.0,11.0,8.0,25.0,16.0,14.0,14.0,14.0,6.0,11.0,1.0,2.0,3.0,3.1622776601683795,3.0,17.0,15.0,19.026297590440446
283,63,532,0,22.188833333333324,3.0,36.05551275463989,5.0,9.0,10.0,11.045361017187261,8.0,25.0,16.0,14.5,15.0,13.0,6.0,11.0,2.0,2.0,5.0990195135927845,4.0,4.0,19.0,16.0,19.0
284,63,533,0,22.230541666666657,1.0,36.013886210738214,6.0,9.0,11.045361017187261,11.045361017187261,9.0,25.0,16.0,15.5,15.0,14.0,5.5,10.5,0.5,1.5,4.123105625617661,3.0,3.0,18.0,16.0,18.0
285,63,534,0,22.27224999999999,3.0,37.013511046643494,5.0990195135927845,9.055385138137417,11.0,12.041594578792296,9.055385138137417,26.019223662515376,17.0,15.5,16.0,15.0,6.5,10.5,0.5,1.5,3.1622776601683795,3.0,3.0,18.0,16.0,18.0
286,63,535,0,22.31395833333332,4.123105625617661,37.013511046643494,5.0,9.0,11.045361017187261,12.041594578792296,9.0,27.018512172212592,18.027756377319946,16.0,15.0,14.0,5.5,12.5,2.5,1.5,4.0,4.0,4.0,18.0,16.0,18.0
287,63,536,0,22.355666666666654,4.0,38.0,4.123105625617661,9.0,11.0,12.041594578792296,9.055385138137417,26.0,17.0,15.0,15.0,15.0,6.0,11.0,2.0,2.0,4.123105625617661,4.0,4.0,17.0,16.0,19.0
288,63,537,0,22.397374999999982,4.0,38.01315561749642,4.0,9.0,12.041594578792296,12.0,9.0,26.0,17.0,15.0,15.0,14.0,5.5,11.5,1.5,2.5,4.123105625617661,4.0,3.5,17.0,16.0,18.0
289,63,538,0,22.43908333333332,2.23606797749979,37.013511046643494,5.0,9.0,11.0,12.041594578792296,9.055385138137417,25.0,16.0,15.0,15.0,14.0,5.5,10.5,0.5,1.5,4.123105625617661,4.0,4.0,17.0,16.0,17.0
290,63,539,0,22.48079166666665,1.0,38.05259518088089,5.0,10.0,11.0,12.041594578792296,10.04987562112089,26.019223662515376,16.0312195418814,15.5,16.0,14.0,5.0,11.0,0.0,1.0,4.123105625617661,4.123105625617661,3.5,17.0,16.0,18.0
291,63,540,0,22.522499999999983,1.0,38.01315561749642,5.0,10.0,10.0,11.0,10.04987562112089,26.019223662515376,16.0312195418814,15.5,16.0,15.0,5.5,10.5,0.5,1.5,4.0,4.123105625617661,3.5,17.0,15.0,17.0
292,63,541,0,22.564208333333315,1.0,38.01315561749642,5.0,10.0,11.045361017187261,12.0,10.04987562112089,26.019223662515376,16.0312195418814,15.5,16.0,15.0,5.5,10.5,0.5,1.5,4.123105625617661,4.123105625617661,4.0,17.0,15.0,17.0
293,63,542,0,22.605916666666648,0.0,36.013886210738214,5.0,11.0,11.045361017187261,11.0,10.0,26.0,15.0,15.0,17.0,16.0,6.5,9.5,1.5,2.5,5.0990195135927845,4.0,4.0,18.0,16.0,17.0
294,63,543,0,22.64762499999998,0.0,36.013886210738214,5.0,10.0,10.0,11.0,11.0,26.0,16.0,16.0,17.0,16.0,5.5,9.5,0.5,1.5,4.0,4.0,4.0,17.0,15.0,18.0
295,63,544,0,22.689333333333312,1.0,35.0,5.0,9.0,10.0,10.04987562112089,11.0,25.019992006393608,16.0312195418814,16.0,16.0,16.0,5.0,9.0,0.0,1.0,4.123105625617661,4.0,4.0,17.0,14.0,17.0
296,63,545,0,22.731041666666645,1.0,36.013886210738214,5.0,10.0,10.0,11.045361017187261,11.0,26.019223662515376,16.0312195418814,16.0,17.0,16.0,5.5,9.5,0.5,0.5,4.0,4.0,4.0,16.0,14.0,17.029386365926403
297,63,546,0,22.772749999999977,0.0,35.0,5.0990195135927845,10.0,10.04987562112089,11.045361017187261,12.041594578792296,27.0,17.0,17.0,17.0,17.0,5.0,10.0,0.0,0.0,4.0,4.0,4.0,16.0,15.0,17.029386365926403
298,63,547,0,22.81445833333331,0.0,35.014282800023196,5.0990195135927845,10.0,10.04987562112089,10.04987562112089,12.041594578792296,27.0,17.0,17.0,18.0,17.0,5.5,9.5,0.5,1.5,5.0990195135927845,4.0,4.0,16.0,15.0,16.0
299,63,548,0,22.85616666666664,1.0,37.013511046643494,5.0,10.0,10.04987562112089,11.0,12.0,27.018512172212592,17.029386365926403,17.0,18.0,17.0,5.5,9.5,0.5,1.5,4.123105625617661,5.0,4.5,16.0,15.0,16.0
300,63,549,0,22.89787499999997,0.0,37.0,4.0,9.0,10.0,11.045361017187261,13.0,26.0,17.0,17.0,16.0,16.0,3.0,10.0,1.0,1.0,4.123105625617661,5.0,5.0,16.0,15.0,16.0
301,63,550,0,22.939583333333307,1.0,39.01281840626232,4.0,9.0,10.0,11.045361017187261,13.0,26.019223662515376,17.029386365926403,17.0,16.0,15.0,2.5,10.5,1.5,0.5,5.0990195135927845,4.0,4.0,15.0,14.0,16.0
302,63,551,0,22.98129166666664,0.0,40.01249804748511,4.0,9.0,11.045361017187261,12.041594578792296,12.041594578792296,25.019992006393608,16.0312195418814,16.0,15.0,14.0,2.5,10.5,1.5,0.5,4.0,4.0,4.0,16.0,15.0,18.0
303,63,552,0,23.02299999999997,1.0,42.04759208325728,4.0,9.055385138137417,11.045361017187261,11.180339887498949,12.0,25.0,16.0312195418814,16.0,15.0,13.0,2.0,11.0,2.0,1.0,4.0,4.0,3.5,15.0,15.0,17.0
304,63,553,0,23.064708333333304,1.0,38.01315561749642,5.0,9.055385138137417,11.0,11.045361017187261,11.045361017187261,26.076809620810597,17.029386365926403,16.5,16.0,15.0,4.5,10.5,1.5,0.5,4.0,4.0,4.0,16.0,16.0,18.0
305,63,554,0,23.10641666666664,5.0,38.01315561749642,5.0990195135927845,9.0,11.0,12.041594578792296,11.0,30.01666203960727,21.02379604162864,18.5,17.0,16.0,5.5,13.5,4.5,1.5,5.0,5.0990195135927845,5.0,17.0,16.0,18.0
306,63,555,0,23.14812499999997,7.0710678118654755,38.01315561749642,4.0,9.0,10.0,12.041594578792296,12.0,32.01562118716424,23.021728866442675,19.5,18.0,17.0,5.5,14.5,4.5,1.5,5.0990195135927845,5.0,5.0,18.0,17.0,17.0
307,63,556,0,23.1898333333333,6.0,39.01281840626232,4.0,10.04987562112089,10.0,11.045361017187261,12.041594578792296,32.0624390837628,22.02271554554524,19.0,18.0,17.0,5.5,14.5,4.5,1.5,5.0990195135927845,5.0990195135927845,5.0,19.0,18.0,20.0
308,63,557,0,23.23154166666664,5.0,38.05259518088089,6.0,10.0,10.0,11.045361017187261,11.045361017187261,32.01562118716424,22.02271554554524,19.5,18.0,16.0,6.0,15.0,5.0,0.0,5.0990195135927845,6.0,5.5,21.0,18.0,20.024984394500787
309,63,558,0,23.273249999999965,3.0,41.048751503547585,5.0,9.0,10.04987562112089,11.045361017187261,12.0,29.0,20.0,18.5,17.0,15.0,4.0,13.0,4.0,0.0,5.0,6.0,5.5,21.0,19.0,20.024984394500787
310,63,559,0,23.314958333333298,1.0,39.05124837953327,4.0,7.0,10.04987562112089,11.045361017187261,12.0,24.0,17.0,16.5,16.0,14.0,3.0,9.0,2.0,0.0,5.0990195135927845,5.0,4.5,21.0,20.0,19.026297590440446
311,63,560,0,23.35666666666663,0.0,40.11234224026316,4.0,5.0,10.04987562112089,10.198039027185569,13.0,22.0,17.0,17.0,16.0,13.0,1.5,7.5,2.5,0.5,4.0,4.0,4.0,21.0,20.0,20.0
312,63,561,0,23.39837499999996,0.0,41.10960958218893,4.0,5.0,10.04987562112089,11.045361017187261,13.0,22.0,17.0,17.0,17.0,14.0,2.5,6.5,1.5,0.5,5.0,5.0,4.5,22.0,20.0,18.0
313,63,562,0,23.44008333333329,0.0,41.10960958218893,4.0,5.0990195135927845,10.198039027185569,11.045361017187261,13.0,22.02271554554524,17.0,17.0,16.0,13.0,1.5,7.5,2.5,0.5,5.0990195135927845,5.0,5.0,22.0,21.0,19.0
314,63,563,0,23.481791666666627,1.0,42.190046219457976,4.0,5.0,10.04987562112089,11.045361017187261,12.0,21.02379604162864,16.0312195418814,16.0,16.0,12.0,2.0,7.0,2.0,1.0,6.082762530298219,5.0,5.0,21.0,21.0,21.02379604162864
315,63,564,0,23.52349999999996,1.0,43.18564576337837,4.0,5.0,11.045361017187261,11.180339887498949,11.0,21.0,16.0,15.5,15.0,11.0,2.0,8.0,3.0,1.0,4.123105625617661,4.0,4.0,21.0,20.0,19.0
316,63,565,0,23.56520833333329,1.0,42.190046219457976,5.0990195135927845,7.0,11.045361017187261,11.180339887498949,11.045361017187261,24.0,17.0,16.5,16.0,12.0,3.0,10.0,3.0,1.0,5.0,5.0,4.5,20.0,21.0,20.024984394500787
317,63,566,0,23.606916666666624,5.0,43.18564576337837,4.0,8.0,12.041594578792296,13.038404810405298,13.0,30.0,22.0,19.5,17.0,13.0,2.0,15.0,7.0,1.0,4.123105625617661,4.0,4.0,18.0,19.0,19.026297590440446
318,63,567,0,23.64862499999996,8.0,43.104524124504614,4.0,8.0,12.041594578792296,12.165525060596439,11.0,31.0,23.0,19.0,16.0,13.0,3.5,16.5,8.5,0.5,4.123105625617661,4.0,4.0,16.0,17.0,18.027756377319946
319,63,568,0,23.69033333333329,9.0,43.104524124504614,3.0,8.0,12.165525060596439,12.165525060596439,11.045361017187261,31.016124838541646,23.021728866442675,18.5,15.0,12.0,2.5,17.5,9.5,0.5,4.0,4.0,4.0,16.0,17.0,18.110770276274835
320,63,569,0,23.73204166666662,8.0,42.190046219457976,3.0,7.0,11.045361017187261,12.041594578792296,11.045361017187261,29.017236257093817,22.02271554554524,18.0,14.0,10.0,1.0,17.0,10.0,1.0,5.0990195135927845,4.0,4.0,15.0,16.0,17.029386365926403
321,63,570,0,23.77374999999996,6.082762530298219,42.190046219457976,4.0,8.06225774829855,11.045361017187261,13.152946437965905,9.0,27.0,19.026297590440446,16.0,14.0,10.0,3.0,15.0,7.0,0.0,3.0,3.0,3.5,14.0,16.0,18.027756377319946
322,63,571,0,23.81545833333329,4.0,41.10960958218893,4.0,9.0,12.041594578792296,12.165525060596439,9.0,26.0,17.0,15.0,13.0,10.0,2.5,14.5,5.5,0.5,4.0,3.0,3.0,14.0,16.0,18.027756377319946
323,63,572,0,23.85716666666662,5.0,41.19465984809196,3.0,8.06225774829855,13.038404810405298,13.152946437965905,8.06225774829855,24.0,16.0312195418814,13.5,14.0,10.0,4.0,12.0,4.0,2.0,3.0,3.0,2.5,14.0,16.0,19.026297590440446
324,63,573,0,23.89887499999995,4.123105625617661,42.190046219457976,4.0,9.055385138137417,12.041594578792296,13.152946437965905,8.0,25.0,16.0312195418814,14.0,15.0,11.0,5.0,12.0,3.0,3.0,4.0,4.123105625617661,3.5,14.0,16.0,20.09975124224178
325,63,574,0,23.940583333333283,4.0,40.19950248448356,4.0,9.0,12.165525060596439,13.152946437965905,8.0,25.0,16.0,14.0,15.0,11.0,5.0,12.0,3.0,3.0,3.0,3.1622776601683795,2.5,13.0,15.0,19.1049731745428
326,63,575,0,23.98229166666661,5.0,41.19465984809196,3.0,9.055385138137417,12.041594578792296,13.152946437965905,8.0,25.019992006393608,16.0,13.5,15.0,11.0,5.0,12.0,4.0,3.0,3.1622776601683795,2.0,2.5,14.0,16.0,19.026297590440446
327,63,576,0,24.023999999999948,6.082762530298219,41.19465984809196,4.0,9.055385138137417,13.038404810405298,14.317821063276353,9.0,28.0,19.026297590440446,16.0,15.0,11.0,4.0,15.0,6.0,1.0,3.0,2.0,2.5,14.0,16.0,18.110770276274835
328,63,577,0,24.06570833333328,4.123105625617661,39.11521443121589,4.0,9.0,13.038404810405298,13.152946437965905,10.04987562112089,27.0,18.0,16.0,16.0,13.0,4.5,12.5,3.5,1.5,3.0,3.0,3.0,13.0,16.0,18.027756377319946
329,63,578,0,24.10741666666661,2.0,40.11234224026316,4.0,9.0,12.041594578792296,12.041594578792296,10.0,25.0,16.0,15.0,17.0,14.0,5.5,9.5,0.5,2.5,4.0,3.0,3.0,14.0,16.0,19.026297590440446
330,63,579,0,24.149124999999945,1.4142135623730951,37.05401462729781,4.0,9.055385138137417,11.045361017187261,12.041594578792296,10.0,24.0,15.033296378372908,14.5,16.0,14.0,5.0,9.0,0.0,2.0,4.0,4.123105625617661,4.0,14.0,16.0,19.026297590440446
331,63,580,0,24.19083333333328,1.0,38.118237105091836,4.0,9.0,12.041594578792296,12.041594578792296,11.0,25.0,16.0,15.5,17.0,14.0,4.5,9.5,0.5,2.5,4.0,3.1622776601683795,3.0,14.0,16.0,18.027756377319946
332,63,581,0,24.23254166666661,1.0,39.11521443121589,4.0,10.04987562112089,12.041594578792296,13.038404810405298,11.0,26.019223662515376,16.0,15.5,17.0,14.0,4.5,10.5,0.5,1.5,4.123105625617661,3.1622776601683795,3.0,14.0,16.0,18.027756377319946
333,63,582,0,24.27424999999994,3.1622776601683795,39.11521443121589,4.0,9.055385138137417,11.045361017187261,12.041594578792296,10.0,26.0,17.029386365926403,15.5,16.0,13.0,4.5,11.5,2.5,1.5,3.0,3.0,3.0,14.0,16.0,18.027756377319946
334,63,583,0,24.31595833333328,3.0,41.10960958218893,3.0,8.06225774829855,12.041594578792296,13.038404810405298,9.0,23.021728866442675,15.0,13.5,15.0,12.0,4.5,9.5,1.5,2.5,3.0,3.0,3.0,14.0,16.0,18.027756377319946
335,63,584,0,24.357666666666606,1.4142135623730951,39.11521443121589,4.123105625617661,10.04987562112089,11.045361017187261,12.041594578792296,10.0,25.019992006393608,15.0,14.5,16.0,13.0,4.5,10.5,0.5,1.5,3.0,3.0,3.0,14.0,16.0,18.110770276274835
336,63,585,0,24.39937499999994,1.0,39.11521443121589,4.0,9.0,11.045361017187261,12.041594578792296,11.045361017187261,25.019992006393608,16.0312195418814,15.5,17.0,14.0,4.5,9.5,0.5,1.5,4.0,3.0,3.0,14.0,17.0,18.027756377319946
337,63,586,0,24.44108333333327,0.0,38.2099463490856,5.0990195135927845,10.0,11.180339887498949,12.165525060596439,10.0,25.019992006393608,15.033296378372908,15.0,17.0,13.0,5.0,10.0,0.0,2.0,4.123105625617661,3.0,3.0,13.0,16.0,18.110770276274835
338,63,587,0,24.482791666666603,1.0,38.2099463490856,5.0,9.055385138137417,11.045361017187261,12.041594578792296,11.0,26.019223662515376,17.0,16.5,17.0,13.0,4.0,11.0,2.0,1.0,4.0,4.0,3.5,13.0,17.0,17.11724276862369
339,63,588,0,24.524499999999936,5.0,40.11234224026316,5.0,9.055385138137417,11.180339887498949,12.041594578792296,11.0,30.01666203960727,21.0,18.5,17.0,14.0,4.5,14.5,4.5,1.5,5.0,4.123105625617661,4.0,14.0,17.0,17.11724276862369
340,63,589,0,24.566208333333268,9.055385138137417,39.20459156782532,4.0,9.055385138137417,12.041594578792296,13.038404810405298,11.045361017187261,33.015148038438355,24.0,19.5,18.0,14.0,5.0,17.0,8.0,2.0,4.0,4.0,4.0,13.0,16.0,18.027756377319946
341,63,590,0,24.6079166666666,8.0,41.10960958218893,4.0,9.055385138137417,11.045361017187261,12.041594578792296,10.0,31.016124838541646,22.0,18.0,16.0,13.0,4.5,16.5,6.5,1.5,4.0,4.123105625617661,3.5,14.0,16.0,17.11724276862369
342,63,591,0,24.649624999999933,3.0,40.11234224026316,4.0,9.055385138137417,12.041594578792296,12.041594578792296,11.045361017187261,27.073972741361768,18.027756377319946,16.5,16.0,13.0,3.5,12.5,3.5,0.5,4.0,4.0,3.5,13.0,16.0,17.11724276862369
343,63,592,0,24.691333333333265,3.0,40.11234224026316,3.0,9.055385138137417,12.041594578792296,12.041594578792296,11.045361017187261,26.076809620810597,17.029386365926403,15.5,16.0,13.0,3.5,11.5,2.5,1.5,4.123105625617661,3.1622776601683795,3.0,13.0,16.0,17.029386365926403
344,63,593,0,24.7330416666666,2.0,39.20459156782532,4.0,9.055385138137417,12.041594578792296,12.165525060596439,10.04987562112089,25.079872407968907,16.0312195418814,15.0,16.0,12.0,4.0,11.0,2.0,2.0,3.1622776601683795,3.0,3.0,13.0,17.0,17.11724276862369
345,63,594,0,24.77474999999993,1.0,39.20459156782532,5.0,9.055385138137417,12.165525060596439,12.041594578792296,9.055385138137417,24.08318915758459,15.033296378372908,14.5,16.0,12.0,5.0,10.0,1.0,2.0,3.0,3.1622776601683795,3.0,12.0,16.0,19.1049731745428
346,63,595,0,24.816458333333262,1.0,39.20459156782532,4.123105625617661,10.04987562112089,11.045361017187261,12.165525060596439,10.04987562112089,25.179356624028344,15.132745950421556,14.5,17.0,13.0,5.0,10.0,0.0,2.0,3.0,3.1622776601683795,3.0,12.0,17.0,19.1049731745428
347,63,596,0,24.858166666666595,1.4142135623730951,39.319206502675,5.0,9.055385138137417,11.045361017187261,12.041594578792296,10.04987562112089,25.179356624028344,16.1245154965971,15.5,18.0,13.0,5.5,9.5,0.5,2.5,3.1622776601683795,4.123105625617661,3.5,12.0,17.0,18.24828759089466
348,63,597,0,24.899874999999927,2.23606797749979,39.45883931389772,4.0,9.055385138137417,12.041594578792296,12.041594578792296,10.04987562112089,25.179356624028344,16.1245154965971,15.0,19.0,13.0,6.0,9.0,1.0,3.0,4.0,3.1622776601683795,3.5,12.0,17.0,17.11724276862369
349,63,598,0,24.94158333333326,3.1622776601683795,38.3275357934736,4.0,10.04987562112089,11.045361017187261,12.165525060596439,10.04987562112089,27.16615541441225,17.11724276862369,15.5,18.0,13.0,5.5,11.5,1.5,2.5,4.0,5.0990195135927845,5.0,12.0,18.0,17.11724276862369
350,63,599,0,24.98329166666659,6.0,39.45883931389772,5.0990195135927845,8.06225774829855,11.045361017187261,13.152946437965905,11.180339887498949,30.265491900843113,22.20360331117452,19.0,20.0,14.0,6.0,13.0,5.0,2.0,5.0,5.385164807134504,5.5,12.0,19.0,20.09975124224178
351,63,600,0,25.024999999999924,1.4142135623730951,39.6232255123179,5.0,9.055385138137417,12.041594578792296,12.36931687685298,11.180339887498949,26.30589287593181,17.26267650163207,16.5,20.0,13.0,5.5,9.5,0.5,1.5,6.0,5.0990195135927845,5.0,12.0,19.0,19.235384061671343
352,63,601,0,25.066708333333256,0.0,39.45883931389772,5.0990195135927845,9.055385138137417,11.180339887498949,12.165525060596439,11.045361017187261,25.179356624028344,16.1245154965971,16.0,19.0,13.0,5.0,9.0,0.0,2.0,5.0,5.0990195135927845,5.0,10.0,18.0,19.1049731745428
353,63,602,0,25.10841666666659,1.0,39.6232255123179,5.0,9.055385138137417,12.041594578792296,12.165525060596439,10.198039027185569,24.331050121192877,15.297058540778355,15.0,19.0,12.0,5.5,8.5,0.5,1.5,5.0,5.0990195135927845,5.0,11.0,19.0,17.26267650163207
354,63,603,0,25.15012499999992,1.0,38.63935817272331,5.0990195135927845,9.055385138137417,10.198039027185569,11.40175425099138,11.180339887498949,25.495097567963924,16.492422502470642,16.0,20.0,13.0,5.5,8.5,0.5,2.5,6.082762530298219,5.0990195135927845,5.0,10.0,18.0,19.235384061671343
355,63,604,0,25.191833333333253,1.0,39.81205847478876,5.0990195135927845,9.055385138137417,11.180339887498949,12.36931687685298,11.180339887498949,25.495097567963924,16.492422502470642,16.0,21.0,13.0,6.0,8.0,0.0,3.0,6.082762530298219,5.385164807134504,5.0,10.0,19.0,19.4164878389476
356,63,605,0,25.233541666666586,1.0,39.81205847478876,5.0990195135927845,9.219544457292887,11.180339887498949,12.165525060596439,11.180339887498949,26.476404589747453,17.26267650163207,16.5,21.0,13.0,6.0,9.0,0.0,3.0,5.0,6.082762530298219,6.0,10.0,19.0,18.24828759089466
357,63,606,0,25.27524999999992,3.0,37.8549864614954,5.0990195135927845,10.04987562112089,11.180339887498949,12.165525060596439,11.180339887498949,29.274562336608895,19.235384061671343,17.5,22.0,14.0,7.0,11.0,1.0,3.0,6.082762530298219,5.0990195135927845,5.0,10.0,19.0,16.278820596099706
358,63,607,0,25.31695833333325,3.1622776601683795,36.87817782917155,6.082762530298219,10.04987562112089,12.165525060596439,12.36931687685298,11.045361017187261,30.265491900843113,20.223748416156685,18.5,23.0,15.0,8.0,11.0,1.0,4.0,6.082762530298219,6.324555320336759,6.0,9.0,19.0,19.4164878389476
359,63,608,0,25.358666666666583,1.0,35.6931365951495,6.082762530298219,10.04987562112089,11.045361017187261,11.40175425099138,10.198039027185569,27.294688127912362,17.26267650163207,16.5,22.0,15.0,8.5,8.5,0.5,3.5,6.082762530298219,6.082762530298219,6.0,10.0,19.0,19.235384061671343
360,63,609,0,25.400374999999915,0.0,37.8549864614954,6.082762530298219,11.180339887498949,10.198039027185569,11.180339887498949,11.045361017187261,28.284271247461902,17.11724276862369,17.0,23.0,15.0,8.0,9.0,1.0,4.0,7.0710678118654755,6.082762530298219,6.0,10.0,19.0,19.4164878389476
361,63,610,0,25.442083333333247,3.1622776601683795,38.8329756778952,6.082762530298219,10.04987562112089,10.198039027185569,11.40175425099138,11.045361017187261,30.265491900843113,20.223748416156685,18.5,22.0,14.0,7.0,12.0,2.0,3.0,5.0,5.385164807134504,5.5,10.0,20.0,16.492422502470642
362,63,611,0,25.48379166666658,6.0,38.63935817272331,5.0990195135927845,10.04987562112089,11.180339887498949,12.165525060596439,10.198039027185569,31.25699921617557,21.213203435596427,18.0,21.0,14.0,7.5,13.5,3.5,3.5,6.082762530298219,5.385164807134504,5.5,11.0,20.0,16.492422502470642
363,63,612,0,25.525499999999912,7.0710678118654755,38.63935817272331,5.0,10.04987562112089,11.045361017187261,12.165525060596439,10.198039027185569,32.2490309931942,22.20360331117452,18.5,21.0,14.0,7.5,14.5,4.5,3.5,6.082762530298219,5.0990195135927845,5.5,10.0,20.0,19.235384061671343
364,63,613,0,25.567208333333244,7.0,36.49657518178932,5.0,9.055385138137417,11.045361017187261,12.36931687685298,10.198039027185569,31.144823004794873,22.090722034374522,18.5,20.0,14.0,7.0,14.0,5.0,3.0,6.0,6.082762530298219,6.0,11.0,19.0,18.24828759089466
365,63,614,0,25.608916666666577,6.0,36.49657518178932,5.0,10.04987562112089,11.045361017187261,12.165525060596439,11.180339887498949,32.14031735997639,22.090722034374522,19.0,21.0,15.0,7.0,14.0,4.0,3.0,5.0,5.0990195135927845,5.0,10.0,19.0,21.213203435596427
366,63,615,0,25.65062499999991,6.082762530298219,38.3275357934736,5.0,9.055385138137417,11.180339887498949,11.40175425099138,10.04987562112089,30.14962686336267,21.095023109728988,18.0,19.0,14.0,6.5,13.5,4.5,2.5,4.0,4.47213595499958,4.5,11.0,18.0,19.235384061671343
367,63,616,0,25.69233333333324,0.0,37.48332962798263,5.0,9.055385138137417,10.198039027185569,10.198039027185569,12.041594578792296,26.076809620810597,17.029386365926403,17.0,19.0,13.0,4.0,10.0,2.0,1.0,5.0,5.385164807134504,5.0,12.0,18.0,20.223748416156685
368,63,617,0,25.73404166666657,1.0,39.45883931389772,5.0,9.055385138137417,10.198039027185569,10.198039027185569,12.041594578792296,25.079872407968907,16.0312195418814,16.5,19.0,13.0,4.0,9.0,0.0,1.0,4.123105625617661,5.0990195135927845,5.0,12.0,18.0,19.1049731745428
369,63,618,0,25.775749999999903,1.0,40.311288741492746,5.0,9.055385138137417,10.04987562112089,10.04987562112089,12.041594578792296,25.079872407968907,16.0312195418814,16.5,19.0,14.0,4.5,8.5,0.5,0.5,5.0,4.123105625617661,4.5,12.0,17.0,18.110770276274835
370,63,619,0,25.81745833333324,0.0,39.319206502675,5.0,8.0,10.04987562112089,11.180339887498949,12.041594578792296,25.019992006393608,17.029386365926403,17.0,19.0,14.0,4.5,8.5,0.5,0.5,4.0,3.0,3.5,12.0,17.0,18.027756377319946
371,63,620,0,25.85916666666657,4.0,38.2099463490856,5.0,9.0,10.04987562112089,11.045361017187261,11.045361017187261,29.017236257093817,20.024984394500787,18.0,20.0,16.0,7.0,11.0,2.0,3.0,4.0,5.0990195135927845,4.5,14.0,17.0,17.029386365926403
372,63,621,0,25.900874999999903,6.082762530298219,37.21558813185679,5.0,9.0,11.045361017187261,11.045361017187261,11.045361017187261,31.0,22.0,19.0,20.0,16.0,7.0,13.0,4.0,3.0,3.0,3.0,3.0,15.0,18.0,17.029386365926403
373,63,622,0,25.94258333333324,7.0710678118654755,36.05551275463989,5.0,10.0,10.04987562112089,11.045361017187261,10.04987562112089,32.0,22.0,18.5,18.0,16.0,7.0,15.0,5.0,3.0,4.0,3.0,3.5,14.0,17.0,16.0312195418814
374,63,623,0,25.984291666666568,8.0,35.05709628591621,6.0,9.0,10.04987562112089,11.045361017187261,10.0,33.0,24.0,20.0,19.0,17.0,8.0,15.0,6.0,3.0,4.0,4.123105625617661,4.0,15.0,18.0,17.029386365926403
375,63,624,0,26.0259999999999,7.0710678118654755,36.05551275463989,5.0,10.0,10.0,11.180339887498949,10.04987562112089,32.0,22.0,18.5,18.0,16.0,7.0,15.0,5.0,2.0,4.0,4.0,4.0,15.0,17.0,17.029386365926403
376,63,625,0,26.06770833333324,7.0,35.05709628591621,5.0990195135927845,10.0,10.0,11.180339887498949,10.04987562112089,32.0,22.0,18.5,18.0,16.0,7.0,15.0,5.0,2.0,4.0,4.0,4.5,15.0,17.0,19.026297590440446
377,63,626,0,26.109416666666565,6.0,34.058772731852805,5.0990195135927845,10.0,10.0,11.045361017187261,10.04987562112089,31.0,21.0,18.0,18.0,16.0,7.0,14.0,3.0,2.0,3.0,4.0,4.5,16.0,18.0,17.0
378,63,627,0,26.151124999999897,6.082762530298219,36.05551275463989,5.0,9.0,10.04987562112089,11.045361017187261,10.04987562112089,30.0,21.0,18.0,18.0,16.0,7.0,13.0,4.0,3.0,3.0,4.123105625617661,4.0,16.0,17.0,17.0
379,63,628,0,26.19283333333323,6.082762530298219,35.014282800023196,5.0,9.0,10.04987562112089,11.045361017187261,10.0,30.01666203960727,21.02379604162864,18.0,18.0,17.0,7.5,12.5,3.5,3.5,3.0,3.0,3.0,17.0,17.0,18.027756377319946
380,63,629,0,26.23454166666656,6.082762530298219,35.014282800023196,5.0,9.0,10.04987562112089,11.045361017187261,10.0,30.01666203960727,21.02379604162864,18.0,17.0,16.0,6.5,13.5,4.5,2.5,3.0,3.0,3.0,17.0,17.0,18.027756377319946
381,63,630,0,26.27624999999989,7.0710678118654755,36.013886210738214,5.0,9.0,9.0,11.045361017187261,10.0,31.016124838541646,22.02271554554524,18.5,17.0,16.0,6.5,14.5,5.5,1.5,4.123105625617661,4.0,4.0,16.0,16.0,18.0
382,63,631,0,26.317958333333227,8.06225774829855,36.013886210738214,5.0,9.0,10.0,11.045361017187261,10.04987562112089,32.0624390837628,23.08679276123039,19.0,18.0,17.0,7.5,14.5,4.5,2.5,5.0,5.0,5.0,18.0,17.0,17.029386365926403
383,63,632,0,26.35966666666656,8.06225774829855,34.0,5.0,10.04987562112089,10.0,11.045361017187261,11.0,34.058772731852805,24.020824298928627,20.0,18.0,18.0,7.0,16.0,6.0,2.0,5.0,5.0990195135927845,5.0,18.0,17.0,17.0
384,63,633,0,26.40137499999989,5.0990195135927845,35.0,5.0,10.04987562112089,9.0,11.0,10.0,30.066592756745816,20.024984394500787,17.5,17.0,17.0,7.0,13.0,2.0,2.0,5.0,6.0,5.5,18.0,16.0,16.0312195418814
385,63,634,0,26.443083333333224,1.0,35.014282800023196,5.0990195135927845,9.0,10.0,11.0,10.04987562112089,25.0,16.0,15.5,16.0,17.0,6.5,8.5,0.5,1.5,5.0990195135927845,5.0,5.5,18.0,15.0,18.0
386,63,635,0,26.48479166666656,1.0,36.013886210738214,6.0,9.0,9.055385138137417,10.0,9.0,24.020824298928627,15.033296378372908,15.0,15.0,16.0,6.5,8.5,1.5,0.5,5.0990195135927845,5.0,5.0,17.0,14.0,18.027756377319946
387,63,636,0,26.52649999999989,1.4142135623730951,37.05401462729781,5.0,9.0,11.0,12.0,9.055385138137417,24.0,15.0,14.5,15.0,17.0,7.0,8.0,2.0,2.0,5.0990195135927845,5.0,4.5,18.0,15.0,17.029386365926403
388,63,637,0,26.56820833333322,3.0,36.05551275463989,5.0,10.04987562112089,10.0,12.041594578792296,9.0,27.018512172212592,17.0,15.5,16.0,18.0,8.0,10.0,0.0,3.0,5.0990195135927845,5.0,5.0,17.0,14.0,18.110770276274835
389,63,638,0,26.60991666666656,0.0,36.05551275463989,6.0,10.04987562112089,9.0,10.0,9.055385138137417,25.079872407968907,15.033296378372908,15.0,15.0,17.0,7.0,9.0,1.0,1.0,5.0990195135927845,5.0990195135927845,5.0,18.0,13.0,18.027756377319946
390,63,639,0,26.65162499999989,0.0,37.12142238654117,5.0990195135927845,10.04987562112089,10.0,11.0,11.045361017187261,26.1725046566048,16.1245154965971,16.0,15.0,18.0,5.5,9.5,0.5,0.5,5.0990195135927845,6.0,5.5,18.0,13.0,17.029386365926403
391,63,640,0,26.69333333333321,2.23606797749979,37.12142238654117,6.0,9.055385138137417,9.055385138137417,10.04987562112089,11.045361017187261,28.160255680657446,19.1049731745428,18.0,15.0,18.0,5.5,11.5,1.5,0.5,6.082762530298219,5.0990195135927845,5.5,19.0,14.0,16.0312195418814
392,63,641,0,26.73504166666655,4.123105625617661,37.12142238654117,6.082762530298219,9.055385138137417,9.055385138137417,11.045361017187261,10.0,29.154759474226502,20.09975124224178,18.0,15.0,18.0,6.5,12.5,2.5,0.5,5.0990195135927845,5.0990195135927845,5.5,19.0,14.0,18.110770276274835
393,63,642,0,26.776749999999883,3.1622776601683795,37.12142238654117,6.0,10.04987562112089,10.04987562112089,11.0,10.04987562112089,29.154759474226502,19.1049731745428,17.5,15.0,18.0,6.5,12.5,1.5,0.5,5.0990195135927845,5.0,5.0,20.0,14.0,15.132745950421556
394,63,643,0,26.81845833333321,4.123105625617661,37.21558813185679,6.082762530298219,9.055385138137417,10.04987562112089,11.045361017187261,10.0,29.154759474226502,20.09975124224178,18.0,15.0,19.0,7.0,12.0,2.0,1.0,5.0990195135927845,5.0,5.0,20.0,13.0,16.1245154965971
395,63,644,0,26.860166666666547,4.123105625617661,35.35533905932738,6.082762530298219,10.04987562112089,10.04987562112089,11.045361017187261,9.0,29.154759474226502,19.1049731745428,17.0,15.0,20.0,8.5,11.5,0.5,2.5,6.082762530298219,5.0,5.5,19.0,13.0,16.0312195418814
396,63,645,0,26.90187499999988,3.1622776601683795,34.23448553724738,6.082762530298219,10.04987562112089,10.04987562112089,11.045361017187261,10.04987562112089,29.274562336608895,19.235384061671343,17.5,16.0,20.0,8.0,11.0,0.0,2.0,6.082762530298219,6.0,6.0,20.0,13.0,16.0312195418814
397,63,646,0,26.94358333333321,5.0990195135927845,34.23448553724738,5.0990195135927845,10.04987562112089,10.04987562112089,12.041594578792296,10.0,30.14962686336267,20.09975124224178,17.5,17.0,21.0,9.0,11.0,0.0,3.0,6.082762530298219,6.0,6.0,20.0,13.0,17.11724276862369
398,63,647,0,26.985291666666544,4.123105625617661,33.24154027718932,6.082762530298219,10.198039027185569,11.045361017187261,11.045361017187261,10.0,30.265491900843113,20.09975124224178,18.0,17.0,21.0,9.0,11.0,0.0,3.0,6.082762530298219,6.082762530298219,5.5,20.0,13.0,17.11724276862369
399,63,648,0,27.02699999999988,5.0990195135927845,33.24154027718932,5.0,11.045361017187261,9.055385138137417,11.0,9.055385138137417,30.14962686336267,19.1049731745428,16.5,16.0,20.0,9.0,12.0,1.0,3.0,6.082762530298219,6.0,6.0,20.0,13.0,16.0312195418814
400,63,649,0,27.06870833333321,5.0990195135927845,32.2490309931942,5.0,10.04987562112089,9.055385138137417,11.0,10.0,30.066592756745816,20.024984394500787,17.5,17.0,21.0,9.0,11.0,0.0,4.0,6.082762530298219,6.0,6.0,19.0,13.0,16.0312195418814
401,63,650,0,27.11041666666654,4.0,33.13608305156178,6.082762530298219,10.04987562112089,10.04987562112089,11.045361017187261,9.0,29.068883707497267,19.026297590440446,17.0,17.0,20.0,9.5,10.5,0.5,3.5,6.082762530298219,6.0,5.5,20.0,14.0,16.0312195418814
402,63,651,0,27.15212499999988,2.23606797749979,33.13608305156178,6.0,10.0,10.04987562112089,11.0,9.0,27.018512172212592,17.029386365926403,16.0,16.0,19.0,8.5,9.5,1.5,2.5,6.082762530298219,6.0,6.0,20.0,14.0,16.0312195418814
403,63,652,0,27.19383333333321,1.4142135623730951,35.12833614050059,5.0,8.06225774829855,9.055385138137417,10.0,10.0,24.08318915758459,16.0312195418814,15.5,16.0,19.0,7.5,6.5,2.5,2.5,6.082762530298219,6.082762530298219,6.0,19.0,14.0,17.11724276862369
404,63,653,0,27.23554166666654,1.4142135623730951,34.132096331752024,5.0990195135927845,8.0,10.04987562112089,11.0,10.0,24.08318915758459,16.1245154965971,15.5,15.0,18.0,6.5,7.5,1.5,1.5,6.082762530298219,6.0,6.0,19.0,14.0,16.0312195418814
405,63,654,0,27.27724999999987,1.0,37.12142238654117,6.082762530298219,10.04987562112089,10.0,11.0,10.0,27.073972741361768,17.029386365926403,16.5,15.0,18.0,6.5,10.5,0.5,1.5,6.082762530298219,6.082762530298219,5.5,19.0,14.0,17.029386365926403
406,63,655,0,27.318958333333203,3.0,37.05401462729781,5.0990195135927845,10.04987562112089,10.0,11.0,10.0,28.071337695236398,18.027756377319946,16.5,16.0,18.0,7.0,11.0,0.0,2.0,5.0990195135927845,5.0,5.5,19.0,14.0,18.110770276274835
407,63,656,0,27.36066666666653,4.123105625617661,37.12142238654117,6.082762530298219,10.0,10.04987562112089,11.0,9.0,29.068883707497267,19.1049731745428,17.0,15.0,18.0,7.5,12.5,1.5,1.5,6.082762530298219,6.082762530298219,6.0,20.0,15.0,16.0312195418814
408,63,657,0,27.402374999999868,4.123105625617661,37.12142238654117,6.082762530298219,10.04987562112089,10.04987562112089,11.045361017187261,9.0,29.154759474226502,19.1049731745428,17.0,15.0,18.0,7.5,12.5,1.5,1.5,6.082762530298219,6.082762530298219,6.0,19.0,14.0,17.0
409,63,658,0,27.4440833333332,5.0990195135927845,37.21558813185679,6.082762530298219,10.04987562112089,11.045361017187261,12.0,9.0,30.14962686336267,20.09975124224178,17.5,15.0,19.0,8.0,13.0,2.0,2.0,5.0990195135927845,5.0,5.5,19.0,14.0,17.11724276862369
410,63,659,0,27.485791666666533,6.082762530298219,38.2099463490856,6.082762530298219,9.055385138137417,10.04987562112089,11.045361017187261,9.0,30.14962686336267,21.095023109728988,18.0,15.0,19.0,8.0,13.0,3.0,2.0,6.082762530298219,6.082762530298219,5.5,19.0,14.0,17.029386365926403
411,63,660,0,27.527499999999865,5.0990195135927845,36.124783736376884,6.082762530298219,11.045361017187261,10.04987562112089,11.0,9.0,31.144823004794873,20.09975124224178,17.5,15.0,18.0,7.5,14.5,2.5,1.5,5.0990195135927845,6.0,5.5,20.0,15.0,18.027756377319946
412,63,661,0,27.5692083333332,7.0710678118654755,38.05259518088089,6.0,10.04987562112089,11.045361017187261,12.0,10.04987562112089,33.13608305156178,23.08679276123039,19.5,16.0,18.0,7.0,16.0,5.0,1.0,5.0990195135927845,6.082762530298219,5.5,19.0,14.0,17.11724276862369
413,63,662,0,27.61091666666653,8.06225774829855,38.118237105091836,6.082762530298219,10.04987562112089,10.04987562112089,12.0,10.04987562112089,34.23448553724738,24.186773244895647,20.0,16.0,19.0,7.5,16.5,5.5,1.5,5.0990195135927845,5.0,5.0,20.0,14.0,16.0312195418814
414,63,663,0,27.652624999999865,5.0,38.118237105091836,6.082762530298219,11.045361017187261,10.04987562112089,11.045361017187261,9.055385138137417,31.144823004794873,20.09975124224178,17.5,15.0,18.0,7.5,14.5,3.5,1.5,5.0990195135927845,6.0,5.5,20.0,14.0,16.0312195418814
415,63,664,0,27.694333333333194,6.082762530298219,38.2099463490856,6.082762530298219,10.04987562112089,10.04987562112089,12.0,10.04987562112089,32.2490309931942,22.20360331117452,19.0,16.0,20.0,8.0,14.0,3.0,2.0,6.082762530298219,6.0,6.0,20.0,14.0,17.029386365926403
416,63,665,0,27.736041666666527,5.0990195135927845,38.118237105091836,6.082762530298219,11.045361017187261,11.045361017187261,12.041594578792296,10.04987562112089,32.2490309931942,21.213203435596427,18.5,16.0,19.0,7.5,14.5,2.5,1.5,6.324555320336759,7.0710678118654755,6.5,20.0,14.0,17.029386365926403
417,63,666,0,27.77774999999986,6.082762530298219,38.118237105091836,6.0,10.04987562112089,11.045361017187261,11.0,10.198039027185569,32.2490309931942,22.20360331117452,19.0,16.0,19.0,7.5,14.5,3.5,1.5,6.082762530298219,5.0,5.5,20.0,14.0,17.029386365926403
418,63,667,0,27.81945833333319,5.0990195135927845,37.12142238654117,5.0,10.04987562112089,11.045361017187261,11.0,11.045361017187261,31.144823004794873,21.095023109728988,18.5,16.0,19.0,6.5,13.5,2.5,1.5,5.0990195135927845,6.0,6.0,20.0,13.0,17.029386365926403
419,63,668,0,27.861166666666524,5.0990195135927845,37.12142238654117,5.0,10.04987562112089,11.045361017187261,11.0,10.198039027185569,30.265491900843113,20.223748416156685,17.5,15.0,18.0,6.5,13.5,2.5,1.5,5.0990195135927845,5.0,5.0,19.0,13.0,16.0312195418814
420,63,669,0,27.902874999999856,5.385164807134504,38.118237105091836,5.0,10.04987562112089,11.0,12.0,10.198039027185569,30.4138126514911,20.396078054371138,17.5,15.0,18.0,6.5,13.5,2.5,1.5,3.1622776601683795,3.1622776601683795,3.0,21.0,14.0,18.027756377319946
421,63,670,0,27.94458333333319,4.123105625617661,38.2099463490856,5.0,9.055385138137417,11.045361017187261,12.0,10.198039027185569,28.284271247461902,19.235384061671343,17.0,14.0,18.0,6.0,12.0,2.0,1.0,4.123105625617661,4.0,3.5,21.0,14.0,18.110770276274835
422,63,671,0,27.98629166666652,4.123105625617661,37.21558813185679,5.0990195135927845,9.055385138137417,11.045361017187261,12.041594578792296,10.04987562112089,28.284271247461902,19.235384061671343,17.0,14.0,18.0,6.0,12.0,2.0,1.0,4.123105625617661,3.1622776601683795,3.0,20.0,13.0,17.11724276862369
423,63,672,0,28.027999999999853,2.23606797749979,37.33630940518894,6.082762530298219,9.055385138137417,11.045361017187261,12.041594578792296,10.04987562112089,27.294688127912362,18.24828759089466,17.0,14.0,19.0,6.5,10.5,0.5,1.5,4.123105625617661,4.123105625617661,3.5,20.0,13.0,17.11724276862369
424,63,673,0,28.069708333333185,1.4142135623730951,37.21558813185679,5.0990195135927845,8.06225774829855,10.04987562112089,11.045361017187261,11.0,25.179356624028344,17.11724276862369,16.5,15.0,19.0,6.0,8.0,2.0,1.0,4.123105625617661,4.123105625617661,4.0,20.0,13.0,17.029386365926403
425,63,674,0,28.11141666666652,1.0,37.12142238654117,5.0990195135927845,9.055385138137417,10.04987562112089,11.0,11.0,25.179356624028344,16.1245154965971,16.0,16.0,19.0,6.5,7.5,2.5,1.5,4.123105625617661,4.123105625617661,3.5,20.0,12.0,17.11724276862369
426,63,675,0,28.15312499999985,1.0,36.22154055254967,5.0990195135927845,10.0,10.04987562112089,11.045361017187261,10.04987562112089,25.179356624028344,15.297058540778355,15.0,14.0,18.0,6.0,9.0,1.0,1.0,3.1622776601683795,3.0,3.0,20.0,13.0,16.1245154965971
427,63,676,0,28.194833333333182,1.4142135623730951,36.124783736376884,4.123105625617661,9.055385138137417,10.04987562112089,11.045361017187261,11.045361017187261,25.317977802344327,16.278820596099706,15.5,15.0,18.0,5.5,8.5,1.5,1.5,4.123105625617661,4.0,3.5,20.0,13.0,17.11724276862369
428,63,677,0,28.236541666666515,1.4142135623730951,36.22154055254967,4.123105625617661,9.055385138137417,10.04987562112089,11.045361017187261,11.0,25.179356624028344,16.1245154965971,15.5,15.0,19.0,6.0,8.0,2.0,2.0,4.123105625617661,4.123105625617661,3.5,20.0,13.0,17.11724276862369
429,63,678,0,28.278249999999847,1.4142135623730951,37.21558813185679,4.123105625617661,9.055385138137417,10.04987562112089,11.045361017187261,11.0,25.179356624028344,16.1245154965971,15.5,15.0,19.0,6.0,8.0,2.0,2.0,3.1622776601683795,4.123105625617661,3.5,20.0,13.0,17.11724276862369
430,63,679,0,28.31995833333318,1.4142135623730951,38.2099463490856,4.123105625617661,9.055385138137417,10.04987562112089,11.045361017187261,11.0,25.179356624028344,16.1245154965971,15.5,15.0,19.0,6.0,8.0,2.0,2.0,4.123105625617661,3.0,3.0,20.0,12.0,17.11724276862369
431,63,680,0,28.361666666666512,1.4142135623730951,37.21558813185679,4.123105625617661,9.055385138137417,10.04987562112089,11.045361017187261,11.045361017187261,25.317977802344327,16.278820596099706,15.5,15.0,19.0,6.0,8.0,2.0,2.0,5.0990195135927845,5.0990195135927845,4.0,20.0,12.0,17.11724276862369
432,63,681,0,28.403374999999844,1.0,38.2099463490856,5.0990195135927845,9.0,10.04987562112089,11.045361017187261,11.0,25.079872407968907,16.1245154965971,16.0,15.0,19.0,6.0,8.0,2.0,1.0,6.082762530298219,6.082762530298219,5.5,21.0,13.0,17.11724276862369
433,63,682,0,28.445083333333177,1.0,37.21558813185679,5.0990195135927845,9.055385138137417,10.04987562112089,11.0,10.0,24.186773244895647,15.132745950421556,15.0,14.0,18.0,6.0,8.0,2.0,1.0,5.0990195135927845,5.0990195135927845,4.5,20.0,12.0,17.029386365926403
434,63,683,0,28.48679166666651,1.4142135623730951,38.2099463490856,4.123105625617661,9.055385138137417,10.04987562112089,11.045361017187261,11.0,25.179356624028344,16.1245154965971,15.5,14.0,18.0,5.0,9.0,1.0,1.0,5.0990195135927845,5.0,5.0,20.0,13.0,15.132745950421556
435,63,684,0,28.52849999999984,1.0,37.21558813185679,5.0990195135927845,9.055385138137417,11.045361017187261,11.045361017187261,10.0,24.186773244895647,15.132745950421556,15.0,15.0,19.0,7.0,7.0,3.0,2.0,4.123105625617661,4.0,4.0,20.0,12.0,16.1245154965971
436,63,685,0,28.570208333333174,1.0,37.12142238654117,5.0,9.055385138137417,10.04987562112089,11.045361017187261,10.04987562112089,24.186773244895647,15.132745950421556,15.0,15.0,18.0,6.5,7.5,2.5,1.5,4.123105625617661,4.0,3.5,20.0,12.0,16.1245154965971
437,63,686,0,28.611916666666502,1.0,38.2099463490856,5.0,9.055385138137417,11.045361017187261,11.0,10.04987562112089,24.186773244895647,15.132745950421556,15.0,15.0,19.0,7.0,7.0,3.0,2.0,4.0,4.123105625617661,3.5,20.0,13.0,17.11724276862369
438,63,687,0,28.65362499999984,1.0,38.2099463490856,5.0,9.055385138137417,10.04987562112089,11.045361017187261,10.04987562112089,24.186773244895647,15.132745950421556,15.0,15.0,19.0,7.0,7.0,3.0,2.0,5.0990195135927845,4.123105625617661,4.0,20.0,12.0,17.029386365926403
439,63,688,0,28.69533333333317,1.0,38.2099463490856,5.0990195135927845,9.055385138137417,10.04987562112089,11.045361017187261,10.0,24.186773244895647,15.132745950421556,15.0,15.0,19.0,7.0,7.0,3.0,2.0,5.0990195135927845,4.123105625617661,4.0,20.0,13.0,17.11724276862369
440,63,689,0,28.737041666666503,1.0,38.2099463490856,5.0990195135927845,9.0,10.04987562112089,11.045361017187261,10.0,24.08318915758459,15.132745950421556,15.0,15.0,19.0,7.0,7.0,3.0,2.0,5.0990195135927845,4.123105625617661,4.0,20.0,13.0,17.11724276862369
441,63,690,0,28.778749999999835,1.0,38.118237105091836,5.0,9.055385138137417,10.04987562112089,11.045361017187261,10.04987562112089,24.186773244895647,15.132745950421556,15.0,15.0,18.0,6.5,7.5,2.5,1.5,5.0990195135927845,4.123105625617661,4.0,19.0,12.0,17.11724276862369
442,63,691,0,28.820458333333168,1.0,38.118237105091836,5.0,9.055385138137417,11.045361017187261,11.045361017187261,10.04987562112089,24.186773244895647,15.132745950421556,15.0,15.0,18.0,6.5,7.5,2.5,1.5,4.123105625617661,4.123105625617661,4.0,19.0,12.0,19.1049731745428
443,63,692,0,28.8621666666665,1.0,38.118237105091836,5.0990195135927845,9.055385138137417,10.04987562112089,11.045361017187261,10.0,24.186773244895647,15.132745950421556,15.0,15.0,18.0,6.5,7.5,2.5,1.5,4.123105625617661,4.123105625617661,3.5,20.0,13.0,17.11724276862369
444,63,693,0,28.903874999999832,1.0,37.12142238654117,5.0990195135927845,9.055385138137417,10.04987562112089,11.045361017187261,11.0,25.179356624028344,16.1245154965971,16.0,16.0,19.0,6.5,7.5,2.5,1.5,4.123105625617661,4.123105625617661,4.0,19.0,12.0,18.027756377319946
445,63,694,0,28.945583333333165,1.0,38.118237105091836,6.082762530298219,10.0,10.04987562112089,11.045361017187261,10.0,26.076809620810597,16.1245154965971,16.0,16.0,19.0,7.5,8.5,2.5,1.5,4.123105625617661,4.0,4.0,18.0,12.0,16.1245154965971
446,63,695,0,28.987291666666497,1.0,37.12142238654117,5.0990195135927845,10.04987562112089,11.045361017187261,12.041594578792296,10.0,26.076809620810597,16.0312195418814,15.5,17.0,20.0,8.5,7.5,3.5,3.5,4.123105625617661,3.0,3.0,18.0,12.0,14.035668847618199
447,63,696,0,29.02899999999983,0.0,38.118237105091836,5.0990195135927845,10.04987562112089,10.04987562112089,10.04987562112089,11.045361017187261,26.1725046566048,16.1245154965971,16.0,16.0,19.0,6.5,8.5,2.5,1.5,4.123105625617661,5.0,4.5,18.0,13.0,14.0
448,63,697,0,29.07070833333316,1.0,39.11521443121589,5.0,10.04987562112089,11.045361017187261,11.045361017187261,12.041594578792296,27.16615541441225,17.11724276862369,17.0,17.0,20.0,6.5,8.5,2.5,1.5,5.0990195135927845,5.0,5.0,17.0,13.0,12.0
449,63,698,0,29.11241666666649,2.23606797749979,42.04759208325728,6.0,10.04987562112089,11.045361017187261,12.041594578792296,10.04987562112089,28.160255680657446,18.110770276274835,17.0,18.0,20.0,9.0,9.0,2.0,3.0,5.0990195135927845,5.0,5.0,17.0,13.0,14.035668847618199
450,63,699,0,29.154124999999823,4.0,42.01190307520001,6.082762530298219,9.055385138137417,12.041594578792296,14.0,8.06225774829855,27.16615541441225,18.110770276274835,16.0,18.0,19.0,10.5,8.5,1.5,4.5,5.0,5.0,5.0,17.0,13.0,12.041594578792296
451,63,700,0,29.19583333333316,5.0990195135927845,42.04759208325728,5.0,10.0,12.0,14.0,8.06225774829855,28.071337695236398,18.110770276274835,15.5,18.0,20.0,11.0,9.0,1.0,6.0,4.123105625617661,4.0,4.5,16.0,12.0,12.0
452,63,701,0,29.23754166666649,6.0,41.012193308819754,5.0990195135927845,10.04987562112089,12.041594578792296,13.0,8.0,29.068883707497267,19.026297590440446,16.0,18.0,19.0,10.5,10.5,0.5,5.5,5.0,5.0,5.0,16.0,12.0,12.0
453,63,702,0,29.279249999999823,6.082762530298219,41.048751503547585,5.0,10.0,12.0,13.0,9.055385138137417,30.066592756745816,20.09975124224178,17.0,18.0,20.0,10.0,11.0,0.0,5.0,5.0990195135927845,5.0,5.0,16.0,13.0,13.038404810405298
454,63,703,0,29.32095833333316,8.06225774829855,40.01249804748511,5.0,10.0,12.0,13.0,9.055385138137417,32.0624390837628,22.090722034374522,18.0,18.0,19.0,9.5,13.5,2.5,4.5,5.0,5.0,5.5,16.0,13.0,13.0
455,63,704,0,29.362666666666488,4.123105625617661,38.01315561749642,5.0,11.0,12.0,13.0,10.0,30.01666203960727,19.026297590440446,17.0,18.0,19.0,8.5,11.5,0.5,3.5,6.0,6.0,5.5,16.0,12.0,11.0
456,63,705,0,29.40437499999982,4.123105625617661,37.05401462729781,6.0,11.045361017187261,11.0,13.0,10.0,31.064449134018133,20.024984394500787,18.0,18.0,20.0,9.0,12.0,0.0,3.0,5.0,6.0,5.5,16.0,12.0,12.0
457,63,706,0,29.44608333333316,4.123105625617661,36.05551275463989,6.0,12.0,10.04987562112089,12.0,10.0,32.01562118716424,20.024984394500787,18.0,17.0,19.0,8.0,14.0,2.0,2.0,5.0,6.0,5.5,16.0,13.0,12.041594578792296
458,63,707,0,29.487791666666485,5.0,35.014282800023196,6.082762530298219,11.045361017187261,11.0,12.0,10.04987562112089,32.01562118716424,21.0,18.5,18.0,19.0,8.5,13.5,1.5,2.5,5.0,6.0,6.0,15.0,13.0,12.0
459,63,708,0,29.529499999999818,3.1622776601683795,36.0,6.0,10.0,11.0,11.0,10.04987562112089,29.0,19.0,17.5,18.0,18.0,8.0,11.0,0.0,2.0,6.082762530298219,6.0,6.0,15.0,14.0,13.038404810405298
460,63,709,0,29.57120833333315,0.0,39.01281840626232,5.0,8.0,11.045361017187261,12.041594578792296,10.04987562112089,23.021728866442675,15.033296378372908,15.0,17.0,16.0,6.5,6.5,1.5,2.5,5.0,5.0,5.0,14.0,14.0,13.038404810405298
461,63,710,0,29.61291666666648,1.4142135623730951,39.05124837953327,5.0,8.06225774829855,11.0,11.045361017187261,9.055385138137417,21.02379604162864,13.0,13.5,17.0,15.0,7.0,5.0,3.0,3.0,6.0,5.0990195135927845,5.5,14.0,14.0,12.0
462,63,711,0,29.65462499999981,0.0,38.05259518088089,4.0,7.0,11.0,12.041594578792296,9.055385138137417,20.024984394500787,13.038404810405298,13.0,16.0,14.0,6.0,5.0,2.0,2.0,5.0,5.0990195135927845,5.5,13.0,14.0,12.041594578792296
463,63,712,0,29.696333333333147,0.0,39.11521443121589,4.0,7.0,11.0,12.041594578792296,9.055385138137417,20.024984394500787,13.038404810405298,13.0,17.0,14.0,6.5,4.5,2.5,2.5,6.0,5.0990195135927845,5.5,12.0,14.0,13.0
464,63,713,0,29.73804166666648,2.0,35.12833614050059,4.0,7.0710678118654755,10.04987562112089,11.045361017187261,8.06225774829855,21.095023109728988,14.035668847618199,13.0,14.0,11.0,4.5,8.5,0.5,1.5,4.0,4.123105625617661,4.0,11.0,13.0,13.038404810405298
465,63,714,0,29.77974999999981,1.0,35.12833614050059,4.0,8.06225774829855,10.04987562112089,11.0,8.06225774829855,21.095023109728988,13.038404810405298,12.5,14.0,11.0,4.5,8.5,0.5,1.5,4.0,4.123105625617661,4.0,11.0,13.0,12.165525060596439
466,63,715,0,29.821458333333144,2.0,33.13608305156178,4.0,7.0,10.0,10.04987562112089,8.06225774829855,21.02379604162864,14.035668847618199,13.0,14.0,11.0,4.5,8.5,0.5,0.5,3.1622776601683795,3.1622776601683795,3.0,12.0,14.0,13.038404810405298
467,63,716,0,29.86316666666648,1.0,33.13608305156178,4.123105625617661,7.0,9.055385138137417,10.04987562112089,8.0,20.024984394500787,13.038404810405298,12.5,14.0,11.0,4.5,7.5,0.5,1.5,2.23606797749979,3.0,3.0,12.0,14.0,13.152946437965905
468,63,717,0,29.90487499999981,1.0,31.144823004794873,4.123105625617661,7.0,9.0,10.04987562112089,8.06225774829855,20.09975124224178,13.152946437965905,12.5,15.0,12.0,5.5,6.5,0.5,1.5,5.0,5.0990195135927845,5.0,12.0,14.0,12.041594578792296
469,63,718,0,29.94658333333314,1.0,31.144823004794873,4.123105625617661,7.0,9.0,10.04987562112089,8.06225774829855,20.09975124224178,13.152946437965905,12.5,15.0,12.0,5.5,6.5,0.5,1.5,5.0,5.0990195135927845,5.0,12.0,14.0,12.041594578792296
470,63,719,0,29.98829166666648,0.0,33.13608305156178,5.0990195135927845,8.0,9.0,10.04987562112089,8.06225774829855,21.095023109728988,13.152946437965905,13.0,15.0,12.0,5.5,7.5,0.5,1.5,4.0,4.123105625617661,3.5,13.0,15.0,13.152946437965905
471,63,720,0,30.02999999999981,1.0,32.14031735997639,4.0,7.0,9.0,9.0,9.219544457292887,21.095023109728988,14.142135623730951,13.5,16.0,13.0,5.5,6.5,0.5,1.5,4.0,5.0990195135927845,4.5,16.0,16.0,15.132745950421556
472,63,721,0,30.07170833333313,0.0,33.13608305156178,4.0,8.0,9.055385138137417,10.04987562112089,10.04987562112089,22.02271554554524,14.035668847618199,14.0,16.0,13.0,4.5,7.5,0.5,1.5,4.0,4.123105625617661,3.5,15.0,16.0,14.035668847618199
473,63,722,0,30.11341666666647,1.0,33.13608305156178,4.0,8.0,9.055385138137417,10.04987562112089,10.0,22.02271554554524,14.035668847618199,14.0,16.0,13.0,4.5,7.5,0.5,1.5,4.0,4.123105625617661,4.0,15.0,16.0,15.033296378372908
474,63,723,0,30.155124999999803,0.0,34.058772731852805,4.0,8.06225774829855,9.055385138137417,9.055385138137417,9.055385138137417,21.095023109728988,13.038404810405298,13.0,14.0,12.0,4.0,8.0,0.0,1.0,4.0,4.123105625617661,3.5,15.0,16.0,16.0312195418814
475,63,724,0,30.19683333333313,5.0,35.05709628591621,4.0,8.06225774829855,10.04987562112089,11.0,8.06225774829855,25.079872407968907,17.029386365926403,14.5,15.0,13.0,6.0,11.0,3.0,3.0,4.0,4.123105625617661,4.0,14.0,16.0,16.0312195418814
476,63,725,0,30.238541666666467,4.0,36.05551275463989,3.0,7.0710678118654755,10.0,11.045361017187261,8.06225774829855,22.090722034374522,15.033296378372908,13.0,13.0,11.0,4.0,10.0,3.0,1.0,3.0,2.0,2.0,13.0,16.0,14.035668847618199
477,63,726,0,30.2802499999998,4.0,36.05551275463989,3.0,7.0710678118654755,10.0,11.045361017187261,8.06225774829855,22.090722034374522,15.033296378372908,13.0,13.0,11.0,4.0,10.0,3.0,1.0,3.0,2.0,2.0,13.0,16.0,14.035668847618199
478,63,727,0,30.32195833333313,3.0,35.12833614050059,3.0,7.0710678118654755,10.0,11.045361017187261,8.06225774829855,21.095023109728988,14.035668847618199,12.5,12.0,9.0,2.5,10.5,3.5,0.5,2.0,2.0,2.0,12.0,14.0,13.038404810405298
479,63,728,0,30.363666666666465,5.0,34.058772731852805,3.0,7.0710678118654755,10.0,11.0,8.06225774829855,23.08679276123039,16.0312195418814,13.5,13.0,11.0,4.0,11.0,4.0,1.0,4.0,5.0990195135927845,4.5,12.0,15.0,13.038404810405298
480,63,729,0,30.4053749999998,7.0,34.058772731852805,3.0,6.0,10.04987562112089,10.04987562112089,8.06225774829855,24.020824298928627,18.027756377319946,14.5,13.0,11.0,4.0,12.0,5.0,2.0,4.0,4.123105625617661,4.0,11.0,14.0,14.035668847618199
481,63,730,0,30.44708333333313,6.0,34.058772731852805,4.0,8.0,9.0,10.04987562112089,7.0710678118654755,25.019992006393608,17.029386365926403,14.0,14.0,12.0,6.0,12.0,4.0,2.0,5.0,4.123105625617661,4.5,11.0,14.0,15.033296378372908
482,63,731,0,30.48879166666646,7.0,34.058772731852805,4.0,7.0,9.055385138137417,10.04987562112089,8.06225774829855,26.019223662515376,19.026297590440446,15.5,14.0,12.0,5.0,13.0,6.0,2.0,4.0,4.123105625617661,4.5,12.0,14.0,13.038404810405298
483,63,732,0,30.5304999999998,5.0,34.058772731852805,3.0,7.0,10.0,10.04987562112089,8.06225774829855,23.021728866442675,16.0312195418814,13.5,13.0,11.0,4.0,11.0,4.0,2.0,5.0,4.123105625617661,4.0,11.0,14.0,14.035668847618199
484,63,733,0,30.572208333333126,5.0,35.05709628591621,3.0,7.0,10.04987562112089,11.045361017187261,7.0,22.0,15.0,12.5,13.0,11.0,5.0,10.0,2.0,3.0,5.0,5.0,4.5,11.0,13.0,14.0
485,63,734,0,30.61391666666646,4.123105625617661,34.058772731852805,3.0,7.0710678118654755,11.045361017187261,11.045361017187261,7.0710678118654755,21.02379604162864,14.0,12.0,13.0,11.0,5.0,9.0,2.0,3.0,4.0,5.0,4.5,11.0,13.0,14.035668847618199
486,63,735,0,30.65562499999979,4.0,34.058772731852805,3.0,8.0,10.04987562112089,11.045361017187261,7.0,22.0,14.0,12.0,13.0,11.0,5.0,10.0,2.0,3.0,4.0,4.123105625617661,3.5,12.0,13.0,14.035668847618199
487,63,736,0,30.697333333333123,3.1622776601683795,33.015148038438355,5.0,8.06225774829855,9.055385138137417,11.045361017187261,8.06225774829855,24.020824298928627,16.0,14.5,14.0,13.0,5.5,10.5,2.5,1.5,5.0990195135927845,4.123105625617661,4.5,12.0,14.0,14.035668847618199
488,63,737,0,30.739041666666456,4.0,32.01562118716424,4.0,8.0,9.0,10.0,8.06225774829855,24.020824298928627,16.0312195418814,14.0,13.0,12.0,4.5,11.5,3.5,0.5,5.0,5.0990195135927845,4.5,12.0,13.0,15.033296378372908
489,63,738,0,30.780749999999788,4.0,32.01562118716424,4.0,8.0,9.0,10.0,8.06225774829855,24.020824298928627,16.0312195418814,14.0,13.0,12.0,4.5,11.5,3.5,0.5,5.0,5.0990195135927845,4.5,12.0,13.0,15.033296378372908
490,63,739,0,30.82245833333312,4.0,31.064449134018133,4.0,8.0,8.0,10.0,8.0,24.0,16.0,14.0,14.0,12.0,5.0,11.0,3.0,1.0,5.0,5.0,4.5,11.0,13.0,15.033296378372908
491,63,740,0,30.864166666666453,4.0,32.0624390837628,5.0,7.0,9.055385138137417,10.04987562112089,8.06225774829855,24.020824298928627,17.029386365926403,15.0,16.0,14.0,7.0,9.0,1.0,3.0,4.0,4.0,4.0,11.0,12.0,14.0
492,63,741,0,30.905874999999785,1.0,31.064449134018133,4.0,7.0,9.055385138137417,9.0,10.0,22.0,15.0,14.5,15.0,13.0,4.0,8.0,0.0,1.0,4.0,4.123105625617661,4.5,11.0,13.0,14.0
493,63,742,0,30.94758333333312,1.0,31.064449134018133,4.0,7.0,9.0,9.055385138137417,10.0,22.0,15.0,14.5,15.0,13.0,4.0,8.0,1.0,1.0,4.0,4.123105625617661,4.0,11.0,13.0,14.0
494,63,743,0,30.98929166666645,1.0,32.0624390837628,4.0,8.0,8.0,10.04987562112089,10.0,23.0,15.0,14.5,15.0,13.0,4.0,9.0,1.0,0.0,4.0,4.0,4.0,11.0,13.0,13.038404810405298
495,63,744,0,31.030999999999786,4.123105625617661,31.0,5.0,9.0,9.055385138137417,10.0,9.055385138137417,27.0,18.0,16.0,15.0,15.0,6.0,12.0,3.0,2.0,5.0,4.0,4.0,12.0,12.0,15.0
496,63,745,0,31.072708333333114,4.0,30.01666203960727,4.0,8.0,10.0,10.04987562112089,9.0,25.0,17.0,15.0,15.0,14.0,5.5,10.5,2.5,1.5,4.0,4.0,4.0,12.0,13.0,14.035668847618199
497,63,746,0,31.114416666666447,4.0,30.01666203960727,4.0,8.0,10.0,10.04987562112089,9.0,25.0,17.0,15.0,15.0,14.0,5.5,10.5,2.5,1.5,4.0,4.0,4.0,12.0,13.0,14.035668847618199
498,63,747,0,31.15612499999978,1.4142135623730951,31.016124838541646,4.123105625617661,7.0710678118654755,9.055385138137417,9.055385138137417,9.0,21.02379604162864,14.0,13.5,14.0,13.0,4.5,7.5,0.5,1.5,5.0,4.123105625617661,4.0,12.0,13.0,14.035668847618199
499,63,748,0,31.19783333333311,0.0,33.24154027718932,3.1622776601683795,8.0,9.055385138137417,9.055385138137417,10.04987562112089,21.095023109728988,13.152946437965905,13.0,16.0,12.0,4.0,7.0,0.0,2.0,5.0,5.0,4.5,10.0,14.0,14.142135623730951
500,63,749,0,31.239541666666444,0.0,33.24154027718932,5.0990195135927845,7.0,9.219544457292887,10.04987562112089,9.0,21.02379604162864,14.035668847618199,14.0,17.0,13.0,6.0,6.0,1.0,3.0,5.0990195135927845,4.123105625617661,4.5,10.0,15.0,14.142135623730951
501,63,750,0,31.281249999999776,1.0,32.2490309931942,4.0,7.0710678118654755,8.246211251235321,9.219544457292887,9.055385138137417,21.095023109728988,14.035668847618199,13.5,17.0,13.0,6.0,6.0,1.0,3.0,5.0990195135927845,4.123105625617661,4.5,10.0,15.0,14.035668847618199
502,63,751,0,31.32295833333311,0.0,32.14031735997639,4.123105625617661,8.0,9.055385138137417,9.055385138137417,9.0,21.02379604162864,13.038404810405298,13.0,16.0,13.0,5.5,6.5,1.5,2.5,4.123105625617661,4.123105625617661,4.0,10.0,14.0,14.142135623730951
503,63,752,0,31.36466666666644,0.0,33.24154027718932,4.0,7.0710678118654755,9.055385138137417,9.055385138137417,9.055385138137417,20.09975124224178,13.038404810405298,13.0,16.0,12.0,5.0,6.0,1.0,2.0,4.0,4.0,4.0,10.0,14.0,14.142135623730951
504,63,753,0,31.406374999999773,0.0,32.14031735997639,4.123105625617661,8.0,9.055385138137417,9.055385138137417,8.0,20.024984394500787,12.041594578792296,12.0,15.0,12.0,5.5,6.5,1.5,2.5,4.0,5.0990195135927845,4.5,10.0,13.0,14.142135623730951
505,63,754,0,31.448083333333106,0.0,32.14031735997639,4.123105625617661,8.0,9.055385138137417,9.055385138137417,8.0,20.024984394500787,12.041594578792296,12.0,15.0,12.0,5.5,6.5,1.5,2.5,4.0,5.0990195135927845,4.5,10.0,13.0,14.142135623730951
506,63,755,0,31.48979166666644,0.0,33.13608305156178,4.0,7.0710678118654755,9.055385138137417,9.055385138137417,9.055385138137417,20.09975124224178,13.038404810405298,13.0,15.0,12.0,4.5,6.5,1.5,1.5,4.0,4.123105625617661,4.0,11.0,14.0,15.033296378372908
507,63,756,0,31.53149999999977,3.1622776601683795,33.06055050963308,4.0,8.06225774829855,9.0,10.04987562112089,8.06225774829855,23.021728866442675,15.0,13.5,14.0,12.0,5.0,10.0,2.0,1.0,4.0,4.0,4.0,11.0,14.0,15.033296378372908
508,63,757,0,31.573208333333103,3.1622776601683795,33.06055050963308,4.0,7.0710678118654755,9.055385138137417,10.04987562112089,8.06225774829855,22.02271554554524,15.0,13.5,14.0,12.0,5.0,9.0,2.0,2.0,5.0,4.0,4.5,11.0,13.0,13.152946437965905
509,63,758,0,31.614916666666435,2.23606797749979,33.06055050963308,5.0990195135927845,7.0710678118654755,9.0,10.04987562112089,8.0,22.02271554554524,15.0,14.0,14.0,12.0,5.0,9.0,2.0,1.0,4.0,4.123105625617661,4.0,11.0,13.0,14.035668847618199
510,63,759,0,31.656624999999767,1.0,32.14031735997639,3.0,8.0,9.0,10.04987562112089,9.055385138137417,21.02379604162864,13.038404810405298,12.5,14.0,11.0,3.5,8.5,0.5,0.5,4.123105625617661,4.123105625617661,4.5,11.0,13.0,13.038404810405298
511,63,760,0,31.6983333333331,1.0,33.13608305156178,4.123105625617661,7.0710678118654755,9.055385138137417,9.055385138137417,8.06225774829855,19.1049731745428,12.041594578792296,12.0,13.0,10.0,3.5,7.5,0.5,0.5,4.123105625617661,4.0,4.5,11.0,13.0,13.038404810405298
512,63,761,0,31.740041666666432,1.4142135623730951,33.06055050963308,3.1622776601683795,7.0710678118654755,9.0,9.055385138137417,9.0,20.024984394500787,13.0,12.5,13.0,11.0,3.0,8.0,1.0,0.0,4.0,4.123105625617661,4.0,10.0,13.0,15.033296378372908
513,63,762,0,31.781749999999764,1.4142135623730951,33.06055050963308,3.1622776601683795,7.0710678118654755,9.0,9.055385138137417,9.0,20.024984394500787,13.0,12.5,13.0,11.0,3.0,8.0,1.0,0.0,4.0,4.123105625617661,4.0,10.0,13.0,15.033296378372908
514,63,763,0,31.823458333333097,3.0,33.06055050963308,4.0,7.0,9.055385138137417,10.0,8.0,22.0,15.0,13.5,14.0,12.0,5.0,9.0,1.0,2.0,5.0,4.0,4.0,10.0,13.0,14.035668847618199
515,63,764,0,31.86516666666643,5.0,33.06055050963308,4.0,8.0,10.0,10.04987562112089,8.06225774829855,25.019992006393608,17.029386365926403,14.5,15.0,13.0,6.0,11.0,3.0,2.0,5.0,5.0,4.5,12.0,13.0,14.035668847618199
516,63,765,0,31.90687499999976,5.0,34.058772731852805,4.0,7.0,9.0,10.04987562112089,8.0,24.0,17.0,14.5,14.0,12.0,5.0,11.0,4.0,1.0,4.0,4.123105625617661,4.0,12.0,13.0,13.038404810405298
517,63,766,0,31.948583333333094,5.0,34.058772731852805,4.0,7.0,9.0,10.04987562112089,8.0,24.0,17.0,14.5,14.0,12.0,5.0,11.0,4.0,1.0,4.0,4.123105625617661,4.0,12.0,13.0,13.038404810405298
518,63,767,0,31.990291666666423,6.0,32.0624390837628,4.0,8.0,9.0,10.04987562112089,8.0,26.0,18.0,15.0,15.0,13.0,6.0,12.0,4.0,2.0,5.0,4.123105625617661,4.5,13.0,13.0,14.035668847618199
519,63,768,0,32.03199999999976,5.0,31.016124838541646,4.0,8.0,8.0,10.04987562112089,9.0,26.0,18.0,15.5,15.0,14.0,5.5,11.5,3.5,1.5,5.0,5.0,4.5,13.0,13.0,14.035668847618199
520,63,769,0,32.073708333333094,6.0,31.016124838541646,5.0,8.06225774829855,9.0,10.0,8.0,27.018512172212592,19.0,16.0,15.0,14.0,6.5,12.5,3.5,2.5,4.0,4.123105625617661,4.0,13.0,13.0,14.0
521,63,770,0,32.11541666666643,5.0990195135927845,32.01562118716424,4.0,8.0,9.055385138137417,10.04987562112089,9.0,26.019223662515376,18.027756377319946,15.5,15.0,14.0,5.5,11.5,3.5,2.5,4.0,4.123105625617661,4.0,13.0,13.0,13.0
522,63,771,0,32.15712499999976,5.0,32.01562118716424,5.0,8.0,10.0,11.0,8.0,26.0,18.0,15.5,14.0,13.0,5.5,12.5,3.5,1.5,5.0,5.0990195135927845,5.0,12.0,12.0,14.0
523,63,772,0,32.19883333333309,5.0990195135927845,33.0,3.0,7.0,9.0,10.04987562112089,9.0,24.020824298928627,17.029386365926403,14.5,13.0,13.0,4.0,11.0,3.0,1.0,5.0990195135927845,4.0,4.0,12.0,12.0,13.0
524,63,773,0,32.240541666666424,4.123105625617661,34.0,4.0,8.0,9.0,10.0,9.0,25.019992006393608,17.029386365926403,15.0,13.0,13.0,4.0,12.0,4.0,1.0,4.0,4.123105625617661,4.0,13.0,12.0,14.0
525,63,774,0,32.28224999999976,4.123105625617661,34.0,4.0,8.0,9.0,10.0,9.0,25.019992006393608,17.029386365926403,15.0,13.0,13.0,4.0,12.0,4.0,1.0,4.0,4.123105625617661,4.0,13.0,12.0,14.0
526,63,775,0,32.32395833333309,5.0990195135927845,33.0,4.0,8.0,9.0,10.0,8.0,25.019992006393608,17.029386365926403,14.5,13.0,13.0,5.0,12.0,3.0,1.0,3.0,3.0,3.5,13.0,12.0,14.0
527,63,776,0,32.36566666666642,5.0990195135927845,33.13608305156178,4.123105625617661,9.0,9.055385138137417,11.0,9.055385138137417,27.16615541441225,18.24828759089466,15.5,13.0,16.0,5.5,12.5,3.5,1.5,4.123105625617661,4.0,4.0,15.0,11.0,14.035668847618199
528,63,777,0,32.40737499999975,1.4142135623730951,32.14031735997639,4.123105625617661,7.0,8.0,9.055385138137417,10.04987562112089,22.20360331117452,15.297058540778355,14.5,12.0,15.0,3.5,8.5,0.5,0.5,3.1622776601683795,5.0,4.5,15.0,10.0,13.038404810405298
529,63,778,0,32.449083333333085,1.4142135623730951,32.14031735997639,4.123105625617661,7.0,8.0,9.055385138137417,10.04987562112089,22.20360331117452,15.297058540778355,14.5,12.0,15.0,3.5,8.5,0.5,0.5,3.1622776601683795,5.0,4.5,15.0,10.0,13.038404810405298
530,63,779,0,32.49079166666642,1.0,31.064449134018133,5.0,8.06225774829855,9.055385138137417,9.055385138137417,9.219544457292887,22.360679774997898,14.317821063276353,14.0,13.0,15.0,5.0,8.0,1.0,0.0,3.1622776601683795,3.1622776601683795,2.5,15.0,10.0,15.033296378372908
531,63,780,0,32.53249999999975,1.4142135623730951,31.144823004794873,5.0990195135927845,9.0,8.06225774829855,9.055385138137417,9.0,24.08318915758459,15.132745950421556,14.5,12.0,15.0,4.5,10.5,0.5,0.5,3.1622776601683795,4.0,3.5,16.0,10.0,15.132745950421556
532,63,781,0,32.57420833333308,3.1622776601683795,29.068883707497267,4.123105625617661,9.0,8.0,9.0,8.06225774829855,24.186773244895647,15.297058540778355,13.5,12.0,14.0,5.0,11.0,2.0,1.0,3.1622776601683795,3.1622776601683795,3.5,16.0,10.0,15.033296378372908
533,63,782,0,32.615916666666415,3.1622776601683795,29.068883707497267,4.123105625617661,9.0,8.0,9.0,8.06225774829855,24.186773244895647,15.297058540778355,13.5,12.0,14.0,5.0,11.0,2.0,1.0,3.1622776601683795,3.1622776601683795,3.5,16.0,10.0,15.033296378372908
534,63,783,0,32.65762499999975,5.0990195135927845,31.144823004794873,4.0,8.06225774829855,9.0,9.0,8.06225774829855,25.179356624028344,17.11724276862369,14.5,12.0,15.0,5.5,11.5,2.5,1.5,3.1622776601683795,3.0,3.0,16.0,10.0,15.033296378372908
535,63,784,0,32.69933333333308,8.06225774829855,30.14962686336267,4.0,8.06225774829855,9.055385138137417,9.0,8.246211251235321,28.284271247461902,20.223748416156685,16.0,13.0,16.0,6.5,13.5,4.5,2.5,4.123105625617661,4.0,4.0,16.0,10.0,13.152946437965905
536,63,785,0,32.74104166666641,3.1622776601683795,30.066592756745816,4.0,8.06225774829855,8.06225774829855,8.0,8.06225774829855,23.194827009486403,15.132745950421556,13.5,12.0,14.0,5.0,10.0,2.0,0.0,3.1622776601683795,3.0,3.0,16.0,11.0,15.132745950421556
537,63,786,0,32.782749999999744,3.1622776601683795,30.066592756745816,4.0,8.06225774829855,8.06225774829855,8.0,8.06225774829855,23.194827009486403,15.132745950421556,13.5,12.0,14.0,5.0,10.0,2.0,0.0,3.1622776601683795,3.0,3.0,16.0,11.0,15.132745950421556
