,video_id,frame_seq,gap,time_seconds,m1,m3,m4,m5,m6,m7,m8,m9,m10,m11,m12,m13,m14,m15,m16,m17,e1,e2,e3,b1,b2,b3
0,100,0,0,0.0,0.0,147.7407022776656,10.091702227703601,19.977795652980113,38.15850940769906,39.85212391266745,53.090100045494125,83.01961742230627,63.066319836806954,63.044493804024285,63.044493804024285,68.02169068328936,12.442992198162699,17.42018907742778,4.147664066054233,4.147664066054233,24.94122527316822,23.226918769903705,23.226918769903705,71.33982193613278,58.06729692475923,69.75971469913306
1,100,1,0,0.0333666666666666,4.9364327711297165,141.54933452048883,11.63528362445784,21.454402929780194,39.491462169037845,41.136939759414645,49.36432771129745,87.27238369446478,65.8396688721235,63.350887229498426,67.46458120543986,70.75553638619306,19.745731084519036,18.100253494142407,6.5819103615063455,9.872865542259547,23.095378554702435,23.095378554702435,23.036686265272124,70.755536386193,54.300760482427194,66.1473804825055
2,100,2,0,0.0667333333333332,14.999349000715824,140.03359920203772,15.09165355809087,28.381078818951238,39.99826400190875,43.36349071575009,53.331018669211744,111.71155834573383,83.34638094771637,75.83004217028542,76.66333933699184,79.99652800381756,24.998915001192984,33.33188666825731,1.6665943334128315,13.332754667302936,23.391766167100005,23.391766167100005,23.332320667780095,64.99717900310179,49.997830002385996,65.33815015070351
3,100,3,0,0.1000999999999998,21.81167215919368,138.84894782284334,15.055910004886641,26.81828874346073,40.14909334636445,43.494851125228024,51.886220474379115,115.44076504511511,88.66258113988795,77.788868358581,76.95242891386499,76.95242891386499,25.093183341477697,38.47621445693255,8.36439444715927,11.710152226022899,25.315251239595483,25.148884149952266,25.093183341477697,80.2981866927287,63.56939779841022,75.35386351738012
4,100,4,0,0.1334666666666664,24.46209943167679,133.8851521101297,14.677259659006097,24.516399386241698,32.656877291736954,39.173319495415356,52.21128725648733,115.78727064327023,91.3397308244737,79.09412149575502,70.12468503747351,76.64791155258729,21.200486174119874,42.40097234823986,13.046453030227667,8.154033143892207,24.51639938624165,22.889461796034965,22.83129280289836,81.54033143892266,61.97065189358122,71.92208531883487
5,100,5,0,0.166833333333333,25.01344390149532,134.14256684825278,13.223479193238461,24.849060233150123,34.711632882251024,39.70485879016489,56.41813320806662,119.42383152455456,94.57908034276369,81.8202775081628,74.38207046196624,82.64674495774022,22.31462113858987,40.49690502929275,12.397011743660983,10.744076844506253,24.849060233150123,25.013443901495354,24.79402348732208,82.64674495774025,59.50565636957299,73.19721309062862
6,100,6,0,0.2001999999999996,43.09352895930279,151.16116368331188,13.35286333904706,25.063139250681978,39.78374224298942,44.84042427653488,51.369490929916125,132.75604079153757,107.76882622563063,86.12338073376281,69.56119213111612,81.15472415296881,24.015173473837706,57.13955067913116,28.983830054631767,10.765422591720323,23.422471744444078,23.422471744444064,23.187064043705334,81.15472415296878,59.62387896952808,83.40505066009185
7,100,7,0,0.2335666666666662,46.445118053281426,156.53614202883293,15.011087929979062,24.920655540401274,41.5748379826628,46.681181165088326,51.495454951242706,137.83830702544572,112.9182744777601,89.51565680017,64.65019657790054,79.56947271126222,20.721216851891256,65.47904525197612,35.64049298525288,5.801940718529579,23.266891028226453,23.266891028226446,23.207762874118146,84.54256475571609,61.33480188159794,81.83385444784663
8,100,8,0,0.2669333333333328,31.320864909939555,166.66384379348972,16.54398577519232,28.033573391301083,42.927333998285896,49.49526756636866,56.18785122108987,132.0649218857783,104.03596296174248,88.07106399532444,65.84752448248548,77.37084126692048,15.638787064590304,60.08586609026804,27.162103849025243,0.8230940560310955,5.20570389120892,6.787407465668315,6.584752448248537,70.78608881867191,49.38564336186414,58.201538857390936
9,100,9,0,0.3002999999999994,28.308435516070464,169.20528168596678,14.975763896159187,28.30843551607049,44.774840310003526,48.07401700618648,56.229079680441146,127.61051854939089,99.35174498099782,85.1705177512564,62.84426552519892,76.07463721471447,13.23037168951555,57.88287614163062,24.806946917841742,3.3075929223788876,4.96138938356836,4.677642769637522,3.3075929223788307,74.42084075352508,52.92148675806229,60.10816461173521
10,100,10,0,0.333666666666666,29.7225052936757,169.54763878635634,16.49336150770222,29.586266966233236,44.43247227204505,49.34381303184331,54.257349220627425,130.02430933002273,100.44593777393344,85.33984207705623,62.36373074861797,75.49293722201128,14.770357282567431,60.72257993944385,26.258412946786564,1.641150809174178,4.923452427522477,5.9172533932465425,4.92345242752242,72.2106356036629,52.516825893573014,59.445010587351504
11,100,11,0,0.3670333333333326,39.00157750038609,170.86240944257452,11.480988156066605,19.75263890110973,47.19789407136321,51.98238475978865,56.92069683864425,127.01937686221093,107.35798296184133,87.67747346267299,61.69896280706615,73.06456121889414,10.553769953840288,59.26347743310305,34.90862369347167,0.8118284579877013,11.365598411827989,11.480988156066589,11.365598411827989,79.55918888279592,55.20433514316451,73.51419353178949
12,100,12,0,0.4003999999999992,35.0326269120987,164.47151289072195,12.825033642250022,17.785121694878086,44.654470442891245,49.4157613983285,54.17898059534782,119.68739430716653,102.00662711102959,84.30973112745,60.44848646873771,74.76523326396506,13.521371973270277,51.699363427209846,29.42886841241176,0.7953748219570684,15.907496439141482,14.404850683997589,14.316746795227346,68.40223468830845,50.903988605252806,63.80869413526129
13,100,13,0,0.4337666666666658,35.833231189749995,167.57889225330865,14.688687344043638,19.73362714730252,45.447593200715,48.68985218030218,53.553678806165735,123.66273955256291,104.01659035028248,85.97099045026846,63.261672218122044,76.23842549363428,16.22094159439024,53.529107261487866,30.819789029341564,3.2441883188780594,14.598847434951267,14.688687344043638,14.59884743495121,71.37214301531716,51.907013102048865,65.20737819243554
14,100,14,0,0.4671333333333324,22.87976597254906,155.28083305909055,13.14241398070198,19.62919394082429,42.414348375480834,45.672343173710914,55.519744579130865,111.14712614862991,91.51906389019614,79.87567566793587,71.72509651814653,83.13590732785161,22.006563704431358,33.41737451413644,10.59575289472616,8.965637064768373,18.005217841716576,18.005217841716586,17.931274129536632,70.09498068818866,50.53359072869415,70.26536711815602
15,100,15,0,0.5004999999999991,5.081234559694841,148.25541332810616,12.954657086513103,19.5478996526336,40.202810040218694,41.80840289760126,57.868101067752924,95.14264025405996,75.67457911023607,73.11064913060346,69.09358049705378,80.34137267099283,16.871688260908513,20.085343167748192,2.4102411801297876,4.017068633549627,19.2819294410383,19.5478996526336,18.478515714328353,70.70040795047368,51.4184785094354,69.26153272985252
16,100,16,0,0.5338666666666656,2.283720396278633,145.65768484774975,14.53350760688403,21.23982745656844,38.78964807467822,40.40313823878877,56.611397282958805,94.00776275701115,72.82884242387493,71.86012094514882,69.43786967733485,79.12687474859086,17.76317596396939,19.37801014251204,4.84450253562801,3.229668357085359,20.992844321054747,19.445178489987924,19.37801014251204,67.82303549879214,50.05985953482278,64.77478123097772
17,100,17,0,0.5672333333333321,9.726430411583891,147.42192736228213,17.661701368313437,20.84860890669207,40.00735026830684,41.60513698444287,51.19346842976597,99.3450595091381,78.4984611673646,73.5547042489797,73.5547042489797,83.14879610754224,27.18326026592723,20.78719902688556,3.198030619520864,11.193107168322967,22.44324937006898,20.848608906692082,20.78719902688556,65.55962770017751,51.16848991233368,65.73489510019408
18,100,18,0,0.6005999999999987,14.495343621579506,145.80826219996698,19.27549723271573,24.06444269850055,40.05057499039126,41.6193158448682,48.128885397001156,105.66115867365691,81.63788877262607,74.43454564562967,73.63417418707445,80.03714585551575,28.81337250798566,28.81337250798566,1.600742917110324,9.604457502661887,20.8096579224341,20.871134150673353,20.009286463878937,64.02971668441256,49.62303043041973,60.91242221346109
19,100,19,0,0.6339666666666652,33.799616277122794,152.80609531550922,16.076837984062024,20.961632170750157,41.799778758561274,45.015146355373645,56.29189517041022,127.09856400786447,106.15583720675927,89.22645081154423,77.1688223234977,81.9918737187163,23.311415076889944,47.42667205298301,23.311415076889944,8.842260891234105,20.899889379280637,20.899889379280637,20.899889379280637,61.09198433943564,43.40746255696743,58.43217388959563
20,100,20,0,0.6673333333333318,34.19916528361454,149.7348785478385,16.266884065987767,22.831659793280124,42.29389857156821,47.173963791364486,53.70535855627002,126.97550844154294,104.15887963043647,87.02782975303455,78.08104351674132,82.96110873653765,26.84035870887982,46.360619588065106,20.333605082484723,12.200163049490811,22.773637692382863,19.587922298284127,19.520260879185344,60.187471044154734,45.547275384765726,58.763766894852274
21,100,21,0,0.7006999999999983,34.4005265427013,155.75931548574226,16.46290538358169,21.546108716855958,42.59112810048737,47.533724097999524,55.72017539000266,127.94128632435756,106.52821202888593,89.27755697986754,78.62977495474576,85.18225620097456,26.20992498491529,45.867368723601714,21.295564050243627,11.466842180900471,21.358475750230053,19.657443738686425,20.476503894465054,65.52481246228817,47.50548903515892,60.80935600528726
22,100,22,0,0.7340666666666649,30.81409087935762,160.46653294915208,16.27630279845167,21.116383197514246,45.347474490019295,48.613564861307914,53.44523779180844,121.56358384825936,100.4644949925015,85.0265146687862,77.73852769717593,84.21673833860723,27.532395226083167,40.488816508945774,16.195526603578287,12.956421282862664,22.731504822061595,21.054184584651807,21.054184584651864,68.02121173502897,50.206132471092815,73.16722369306382
23,100,23,0,0.7674333333333314,32.333604069046444,161.59543486437877,16.22716367088512,21.052631578947345,46.853061646954686,51.694443256326515,53.283883435712085,122.80996605630394,101.77502370692856,85.57714612402236,75.88916731752931,82.34781985519135,25.834610150648246,43.59590462921892,19.375957612986213,11.302641940908643,22.66287705511345,20.990620747401692,21.79795231460946,69.43051477986722,56.51320970454307,76.31739082338282
24,100,24,0,0.800799999999998,36.173056399398895,167.61090476156963,16.425338793751052,23.228936888695625,47.66179363810822,52.561084140003345,55.8703015871899,131.44376728284908,108.40723603875699,90.33936336563079,80.48416008938017,85.4117617275055,27.101809009689248,48.45474944156558,22.17420737156391,10.676470215938195,24.692698620164567,21.35294043187639,21.352940431876334,67.3438890543793,52.56108414000337,67.66362444982431
25,100,25,0,0.8341666666666645,41.741100209247726,160.496254698474,17.646648810786928,22.51659263440192,44.91874242745757,49.73146483039943,51.36076577718868,133.2389350035064,110.73910523832599,89.83748485491515,78.60779924805075,83.42052165099261,29.67845481814163,52.13782603187042,26.469973216180335,13.636046808335323,22.459371213728758,19.31761733216576,20.053010012257857,65.77387284020568,52.93994643236067,70.75047508637469
26,100,26,0,0.867533333333331,53.78770523350191,159.86756517043617,17.921008770872902,24.491985113813907,44.01809032855988,50.50466108155092,52.1338436970849,148.29141990206,123.82859662338218,96.93636562426718,83.088313392229,91.23422646989849,35.02742623397887,61.094348082521265,33.39824361844501,17.10641746310597,22.808556617474636,21.179374001940744,21.99396530970762,66.79648723688993,55.39220892815263,68.73528984931264
27,100,27,0,0.9008999999999976,46.03863378275702,158.88086196273971,19.05046915148563,23.865945741777825,46.06599701476148,50.801251070628496,50.82605031597694,139.70344044422814,115.90122705025833,92.87103711349255,80.96449389381405,87.31465027764261,33.33832101509989,55.5638683584998,28.575703727228472,14.287851863614264,22.22554734339994,22.225547343399967,22.225547343399967,74.61433750998549,61.914024742328394,81.21313783853282
28,100,28,0,0.934266666666664,54.31240618625103,159.801010813195,19.16079878511067,25.597580993493704,44.73703450563026,51.095463426961715,49.60163826893555,148.49619058460763,122.95882683158453,95.80399392555324,83.03012806881287,89.41706099718306,36.72486433812878,62.27259605160964,35.12813110603622,17.56406555301811,23.950998481388297,22.411218883638153,22.354265249295793,76.64319514044263,62.27259605160964,80.09173146089022
29,100,29,0,0.9676333333333308,50.07098963070373,164.4158040732376,14.595851785351062,20.953948431241656,46.77120554986929,51.578949984595056,53.21520841901914,138.6184280835991,117.66447965235744,92.68092575356917,77.36842497689253,78.98026716391115,24.983553898788216,60.44408201319726,36.266449207918356,10.476974215620885,24.177632805278904,24.177632805278904,24.177632805278904,69.30921404179955,64.47368748074379,74.16225855717026
30,100,30,0,1.0009999999999972,53.96440549247306,165.00387077963586,14.278521075648086,20.624530442602804,47.59507025216044,52.35457727737639,52.37860967583159,141.19870841474238,120.57417797213958,93.60363816258206,79.32511708693391,77.73861474519526,26.177288638688196,62.666842498677795,38.869307372597575,13.485269904778761,22.26762149461491,22.211032784341512,22.21103278434157,65.04659601128583,60.28708898606979,69.87817956890457
31,100,31,0,1.0343666666666638,46.93611653307905,160.13501408628667,11.322677763676836,19.410304737731735,45.31958623204594,48.552713116523385,50.169369574968584,127.78450619006713,108.3742014523354,84.92008322757624,77.64121895092683,77.64121895092683,27.497931711786578,50.14328723914031,29.115457106597603,17.79277934292071,22.645355527353672,21.027830132542704,21.027830132542647,63.083490397628054,61.465965002817086,72.78864276649392
32,100,32,0,1.0677333333333303,45.184206131624414,153.21436744874097,11.288854302782056,20.965015133738063,41.96103214251937,45.184206131624414,48.48819785885509,125.80042815633534,104.83748026913256,82.24736706312638,79.02198011947434,80.63467359130033,31.447522700607124,45.96176394704122,23.384055341477108,20.158668397825068,22.577708605564112,20.965015133738063,21.77136186965106,62.895045401214276,62.895045401214276,77.40928664764829
33,100,33,0,1.1010999999999969,46.788302719464106,159.63070804493168,12.89945115514604,24.240159041706857,41.923216254224485,46.760510437404264,45.17686328504438,129.0045888540457,104.80804063556121,81.42778541685908,79.00913832526925,79.00913832526925,33.86105928225828,49.985373226190745,24.186470915898724,20.961608127112243,22.574039521505483,22.57403952150554,23.38025521870219,64.49725577572997,62.88482438133673,77.41350126912963
34,100,34,0,1.1344666666666634,14.335349998289416,135.38941665051107,14.423568369389754,23.89224999714901,38.260769285839686,41.4438530984368,54.15576666020445,106.73060268355688,82.84178078590675,75.65879165763852,81.23364999030662,81.23364999030662,27.077883330102168,25.485066663625616,1.5928166664766081,14.33534999828936,20.706616664195792,20.706616664195792,20.706616664195735,55.74858332668097,57.34139999315758,66.8982999920172
35,100,35,0,1.16783333333333,4.855753358056347,134.3522597278244,14.567260074168871,27.56350001066173,37.26261241716356,38.87973275093439,56.67357376204854,103.58940497186774,76.09068631146498,73.6455925971872,79.31063818158623,77.69205372890082,21.850890111253307,25.088059016624243,4.046461131713556,8.902214489769847,6.673594662404625,6.673594662404597,6.474337810741758,56.65045584399016,58.2690402966756,59.887624749361066
36,100,36,0,1.2011999999999965,3.6192648635289477,129.49687197253266,14.567260074168871,25.897351242966977,35.6088579590795,38.84602686445032,56.67357376204854,100.35223606649691,74.45488482352994,72.83630037084453,77.69205372890082,79.31063818158623,21.850890111253307,21.85089011125342,5.6650455843989675,7.283630037084436,5.118413455823065,8.253193708640909,8.092922263427226,59.88762474936104,59.88762474936104,59.909493519397735
37,100,37,0,1.234566666666663,14.69191957475698,140.39894429767176,16.324355083063267,29.429149645432933,37.54601669104545,40.843523368777355,58.76767829902775,119.17897264699789,89.783952956848,82.43799316946951,83.25421092362268,81.62177541531634,23.670314870441757,36.729798936892394,4.081088770765803,7.34595978737849,5.16221433958271,5.162214339582674,4.897306524918918,62.03254931564044,63.66498482394675,65.31782258875226
38,100,38,0,1.2679333333333296,26.167970837492756,140.46431864589704,14.690818557013927,26.117010768024784,40.93820610872571,44.19320235120963,55.714270464476535,122.59747774203767,96.52755405974003,83.24797182307879,84.88028499608032,79.98334547707572,26.933167354525494,39.991672738537886,10.610035624510033,13.874661970513102,8.79027545346992,6.730199626372497,7.345409278506963,60.39558740105713,63.660213747060226,73.45409278506952
39,100,39,0,1.301299999999996,34.278576633032515,145.42252315740313,14.69081855701387,22.91060715185457,40.938206108725595,45.73390800469807,54.088464866737546,125.85759103969353,102.95225767574453,85.69644158258109,81.61565865007725,75.08640595807105,24.484697595023135,47.33708201704485,21.220071249020066,11.4261922110108,10.323654962762687,8.323196721429436,8.977722451508498,66.92484009306332,68.55715326606486,78.36803372172113
40,100,40,0,1.334666666666663,34.324564965924246,148.7955250947193,14.693877551020421,22.91537771039709,44.11185660769401,45.83075542079419,52.473987526492074,124.34987117929543,101.43493594781427,84.0816326530612,83.26530612244898,75.10204081632651,26.93877551020404,44.89795918367349,20.408163265306143,13.877551020408134,13.463202042833231,11.428571428571445,12.244897959183675,68.57142857142856,68.57142857142856,76.73469387755097
41,100,41,0,1.3680333333333292,30.769230769230774,144.35682395508704,14.66459131682177,24.345419236231393,42.136394595166664,45.45965618661765,50.436960331651576,120.11129807798318,95.7658911220892,80.16194331983809,79.35222672064776,71.25506072874492,25.101214574898847,44.53441295546554,18.623481781376483,12.14574898785429,16.2751022204387,14.574898785425091,15.384615384615415,68.0161943319838,69.63562753036436,77.73279352226723
42,100,42,0,1.4013999999999958,31.188294524409937,147.75732715141135,14.752983305628561,21.372818722215236,41.111437660228894,42.74563744443038,51.05322820516626,118.30811103194749,96.93601401785787,81.14140818095728,80.32179799731125,72.12569616085091,25.407915693027007,41.800119365947694,18.851034223858733,13.933373121982584,16.47396080689339,14.752983305628618,15.572593489274652,67.2080350589747,68.84725542626677,78.68257763001918
43,100,43,0,1.4347666666666623,19.901932927557134,150.62852401727434,18.180421269845226,24.846514657568918,38.157056197162,43.2570145767329,48.38398870635409,111.17843308269103,86.34019496181415,76.02721621935285,80.98551292931063,72.72168507938096,28.923397474753756,33.88169418471159,9.090210634922641,12.395741774894475,19.901932927557144,18.255392397271883,18.180421269845226,66.11062279943727,69.41615393940913,79.34996179966168
44,100,44,0,1.4681333333333288,3.6358828902435585,153.15657677159828,14.634146341463406,19.579828583402097,42.401316456602565,43.932540117418824,52.26067863410798,89.7996830665631,70.22056221687541,68.29268292682929,76.42276422764229,66.66666666666669,19.51219512195121,17.886178861788608,1.6260162601626007,8.130081300813004,19.579828583402097,17.886178861788608,17.886178861788608,66.66666666666669,71.54471544715449,73.17073170731703
45,100,45,0,1.5014999999999954,6.758678718008976,157.5016977197918,14.752983305628561,21.309864774796836,42.65124136872282,44.38020754115038,49.42188242068011,92.03021697433003,70.79079010999013,67.2080350589747,77.04335726272711,70.48647579355884,24.588305509380973,18.0314240402127,3.2784407345841373,11.47454257104448,21.372818722215246,19.670644407504767,19.670644407504767,65.56881469168263,68.84725542626677,80.38867710797992
46,100,46,0,1.534866666666662,6.786487980790487,151.65226125692766,9.875790625335526,19.75158125067105,42.921518665310046,42.826734187462904,54.54083639349209,90.76717809347414,71.08206592983869,67.484569273126,75.7143947942389,67.484569273126,17.282633594337142,18.928598698559767,0.8229825521112843,9.052808073224185,21.460759332655023,21.397546354893564,20.57456380278228,69.13053437734857,70.77649948157116,74.08671593389208
47,100,47,0,1.5682333333333285,31.062308043015793,155.31154021507896,11.544215868649957,18.032641649343983,42.47894981161531,44.20093174948196,50.63688399993701,111.20861377627467,93.18692412904738,77.54843657993547,76.73213724751508,68.56914392331134,22.040081975350063,38.3660686237576,20.40748331050935,12.24448998630561,19.65909123188987,17.958585313248193,18.77488464566852,65.30394659362983,71.83434125299283,80.0139920129997
48,100,48,0,1.601599999999995,36.19897557974696,153.24393962672457,14.8998029763927,19.813335822677907,44.54773082324041,47.83017324809985,49.60843666206127,120.39620087844258,100.58544657155292,82.27039904487941,80.62499106398178,72.39795115949386,27.14923168481016,43.603311493786066,22.21300774211744,13.98596783762946,21.453495333214356,19.744895770771052,20.56759976121981,64.17091125500593,74.04335914039146,78.99672089018254
49,100,49,0,1.6349666666666616,41.01603587564149,157.68280238268633,13.216704983693834,19.740153198988445,42.748509218393195,47.65350751138861,52.56093412756214,126.49429323626167,106.75805525686822,86.06485097680746,80.32719424502028,70.49121127624232,22.950626927148676,50.8192453386863,29.507948906333922,13.114643958370664,22.950626927148676,21.31129643235232,21.31129643235232,65.57321979185332,72.13054177103862,80.34392036581485
50,100,50,0,1.668333333333328,39.53509564112521,159.95428111727423,14.812808101094049,21.396278368246954,44.4688928871176,47.758528033382106,51.26025405695175,126.90268666117795,105.5410572001769,85.58511347298781,80.64751077262315,70.77230537189376,24.688013501823434,51.02189457043505,27.9797486353998,11.521072967517625,21.396278368246954,19.75041080145877,20.57334458485286,65.83470267152913,74.06404050547027,82.29337833941145
51,100,51,0,1.7016999999999949,43.751448611783054,154.04772771995252,12.954510102678228,21.113268354900487,43.75144861178293,48.68724745254705,48.60639395509644,126.3998609249628,105.30520783578794,83.39465878599134,79.34637437890439,71.24980556473042,26.718677086773937,51.008383529295656,28.337990849608673,15.383480746930445,21.113268354900544,21.05107891685219,21.05107891685219,63.15323675055657,69.63049180189572,77.74392663788383
52,100,52,0,1.7350666666666612,37.430922195290954,159.74370219949165,16.258953622658453,22.7625350717218,43.92927363612378,47.26296320626505,45.78562911140141,122.11545785649348,99.39262054807426,80.48182043215945,78.04297738876062,66.66170985289972,26.827273477386484,49.589808549108284,26.827273477386484,12.194215216993882,21.199081912582677,21.199081912582677,21.136639709456006,65.03581449063387,73.1652913019631,81.35977793424783
53,100,53,0,1.7684333333333278,40.63832075784762,156.35564205178815,13.105464656311918,17.954596956107192,42.388710148473095,45.630881014434976,48.87423362176849,120.46503454320828,102.5246120504725,82.08940793085208,81.27664151569513,71.5234445338117,27.63405811533636,43.88938641847534,26.008525285022472,16.255328303139038,22.815440507217488,22.815440507217495,22.75745962439464,63.39578038224221,71.5234445338117,78.17782102589408
54,100,54,0,1.8017999999999943,21.224489795918373,157.0405179612871,14.784302266346767,16.40796019774837,42.574383054384654,42.73061984751794,45.74343094243886,98.08155621796298,81.69793308210154,71.0204081632653,78.36734693877548,68.57142857142856,27.755102040816325,24.489795918367292,8.163265306122412,16.326530612244937,21.287191527192327,19.591836734693857,20.408163265306143,62.04081632653063,70.20408163265307,76.75206056191445
55,100,55,0,1.8351666666666608,22.912324209680904,155.39036902597783,11.427048558144293,17.95679059136961,44.196514453916535,45.8246484193618,49.21732145393952,101.42141962469387,83.5098866454477,71.82716236547839,78.3569043987037,68.5622913488657,24.486532624594872,27.751403641207617,11.427048558144293,14.691919574756923,22.912324209680893,19.657126567049488,20.40544385382907,62.03254931564041,73.45959787378467,80.0559421999035
56,100,56,0,1.868533333333328,22.847819119101587,158.60530059123718,9.926989859764415,16.40126716863135,45.812060435141376,47.4400426387926,47.44004263879266,96.5082704035458,80.11710309338888,68.54345735730476,76.70339275698393,66.91147027736895,24.479806199037398,24.479806199037398,8.159935399679114,16.319870799358284,22.906030217570688,21.278508193554604,21.215832039165775,63.6474961174973,73.43941859711225,81.66460738906409
57,100,57,0,1.901899999999994,37.10167100413759,150.18980264880506,14.504342439892355,21.01260980445091,43.63224131655785,48.455128593847455,48.77567318240174,121.25568591799595,100.24319496347191,81.38547702384022,82.19127382605643,72.5217121994616,29.008684879784653,43.51302731967701,22.56231046205471,16.11593604432477,21.012609804450864,22.61979414875368,21.756513659838447,61.24055696843422,72.52171219946158,75.89904407757805
58,100,58,0,1.9352666666666605,46.96031209190928,150.8203138339994,16.264308960069602,21.10082275418623,42.20164550837246,48.65854786745748,47.182874059534825,131.44624094150672,110.34551904547946,86.58221874259124,82.53632067050751,72.82616529750663,30.748825347836146,53.40585455150483,30.748825347836146,17.801951517168334,22.71475421239351,21.100822754186286,21.847849589252007,61.49765069567226,72.82616529750663,79.36563020280852
59,100,59,0,1.968633333333327,54.0434699957155,157.43046254533422,18.08877687043047,23.160305522922524,45.97189383248809,52.5080443822058,49.5652182863268,144.57114626844617,121.46470753443253,94.16665226526186,86.79708817493702,78.60868363013162,33.57245863370207,61.41303408604034,36.84782045162416,18.833330453052383,22.98594691624405,22.927532725455023,22.927532725455023,62.23187454052086,73.69564090324837,81.90042061978987
60,100,60,0,2.0019999999999936,54.27504945885835,158.10506138218673,18.16628834844802,23.084443057352537,49.36835808453096,52.656043133012446,51.22384269614032,146.60897868877686,123.52769506075805,96.21486040433979,90.45841576476386,82.23492342251262,35.36101707168041,60.03149409843422,35.36101707168041,18.914032387177883,23.084443057352544,21.444244422707964,21.381080089853242,62.49854180110961,72.36673261181113,80.60700584439604
61,100,61,0,2.0353666666666603,45.77976553546222,147.02299824280664,15.86486033087834,22.156883757839715,41.074274437403595,45.80697490816792,47.59458099263502,131.26237374968377,109.10714375616213,86.0343869545755,83.66646804756886,75.77340502421333,32.36155839575781,51.304909651811045,27.625720581744417,18.1540449537178,22.156883757839772,20.582590178510245,21.311270163059987,63.14450418684444,74.19479241954224,83.80039400477482
62,100,62,0,2.068733333333327,44.4021628174616,147.69160243648045,19.09545868104996,23.839674052702495,39.771449217849934,46.097189546505405,44.65629491835352,131.85930466940067,108.0202265859035,85.63274257653302,84.04695104733798,76.1179934013627,35.680309406888796,51.53822469883937,27.751351760913508,18.236602585743128,22.25764476513987,23.839674052702502,22.993977173328346,65.01745269699734,76.11799340136275,80.93753200119218
63,100,63,0,2.102099999999994,45.16658931135696,145.30954842977408,14.597866731057406,22.626406297825238,43.64499575994551,46.777662277519596,51.686726260401436,134.04393111131688,111.41921362243204,88.6635585301346,85.43942912903879,77.37910562629929,29.82319696013616,52.392102767806875,28.211132259588283,18.538744056300857,20.956841107122784,21.01875214630834,20.956841107122727,62.87052332136821,74.15497622520354,79.05694150420955
64,100,64,0,2.1354666666666606,49.37628911332237,149.91739086086724,13.15970151462409,21.447689441471677,44.535675011423734,47.8172291192479,52.869622880322524,136.77941420963367,115.33523077302348,90.47294791304063,90.47294791304063,82.24813446640059,33.72173513122425,50.17136202450439,27.141884373912205,23.851958995256155,23.088151574095452,21.384514961264188,21.384514961264188,62.508582194464424,74.02332101976052,82.31390667560511
65,100,65,0,2.1688333333333274,39.05018563845478,151.4066342027102,13.106655201260962,22.817513139372707,44.01362952260531,48.797502130087295,55.48788340473343,130.41970511772755,107.60236647984826,87.78674695899639,82.90970546127437,74.781302965071,23.572367238989727,51.20893572608122,26.823728237471073,13.81828424354569,5.861474397534143,6.7028524118761865,4.8770414977220184,68.27858096810826,74.78130296507095,69.90426146734887
66,100,66,0,2.202199999999994,37.58367861219089,158.56571377455882,13.161883100029696,22.855429478089263,45.74000199959553,50.713666175588656,52.47005405888203,125.96960456109437,103.17283899844655,84.07532986582834,78.36147249630602,70.19881911127413,22.039164139586035,51.42471632570084,25.30422549359878,10.611449400541403,6.731096418358373,4.897592031019144,4.897592031019144,70.1988191112741,75.09641114229322,71.84989887827031
67,100,67,0,2.235566666666661,38.89215261059207,157.26135401487682,11.333710487457665,21.1105007627726,47.06547316204975,50.21825419469641,55.14460995727658,126.45586951640828,105.35362939543953,85.81237940503632,79.33597341220349,71.24046592116224,20.238768727602974,51.00169719355927,26.71517472043581,12.143261236561784,10.240096994658074,9.714608989249427,9.714608989249427,69.62136442295403,76.09777041578695,81.01981308541983
68,100,68,0,2.268933333333328,38.680056581628264,156.08964218356962,9.76953663840014,22.542714822131085,45.08542964426228,46.68759021961437,56.23650717552502,127.13592851795991,104.59411272684235,85.12340227916508,80.30509648977835,70.66848491100495,19.273223157546738,51.39526175345816,27.30373280652475,11.242713508568897,10.157880505091715,9.636611578773397,9.63661157877334,69.0623829812094,73.8806887705961,83.53274220960121
69,100,69,0,2.3022999999999945,40.97007538947121,153.0288835859229,11.022255369573656,23.67154738984474,44.11713051620161,47.2644734775343,45.77209421892493,121.40829447119442,97.73990965759478,77.15578758701571,75.58117967707665,66.13353221744205,25.19372655902555,50.38745311805104,25.193726559025492,14.171471189451893,18.96079007204607,17.39211282579602,18.10799096429963,72.43196385719844,77.15578758701574,83.46907269653944
70,100,70,0,2.335666666666661,34.0993073648537,147.4508112617281,9.299811099505519,23.301136086958138,40.32897750286289,45.0558545588698,46.73097242497511,113.31743396689163,90.01834981437565,72.84852027946005,72.84852027946005,65.0986776965388,22.474543490471717,44.174102722651355,20.924574973887502,13.174732390966199,18.599622199011094,18.599622199011094,19.37460645730323,69.74858324629159,74.39848879604435,83.71265022568458
71,100,71,0,2.369033333333328,25.295652322106434,153.55849136335297,9.485869620789913,25.34500973942427,44.380174909696166,47.45569042650462,50.690019478848725,110.77006660057187,85.43136127111124,72.72500042605594,72.72500042605594,64.82010907539762,18.18125010651397,41.8959241584887,15.019293566250667,11.857337025987363,22.133695781843073,20.613434682430718,20.55271751171142,69.56304388579264,72.72500042605594,80.6918671062156
72,100,72,0,2.4023999999999948,27.08625982657543,151.57389413894632,7.966547007816359,23.952692456148583,44.64110613046313,47.905384912297166,52.79603265703457,111.71360220771786,87.76228194503264,74.08888717269178,73.29223247191021,65.32568546409391,16.72974871641435,42.22269914142646,16.72974871641418,10.35651111016125,22.306331621885704,20.77421296580646,20.713022220322443,71.69892307034695,74.8855418734735,84.46042816608727
73,100,73,0,2.435766666666661,1.599539398970137,160.1537575138267,11.310451557868143,24.046349853601964,46.38664257013272,48.09269970720383,56.18915767699583,89.70264867024393,65.65909530845737,66.38088505725904,68.78019415571413,60.78249716086367,8.797466694335526,24.792860684036555,0.7997696994850685,0.7997696994850685,23.99309098455143,22.39355158558135,22.39355158558135,68.78019415571418,73.57881235262448,87.9892070090596
74,100,74,0,2.4691333333333283,3.1366519895112788,150.76336630979267,10.978281963289533,25.093215916090344,43.94112474975622,45.58948595699693,51.84972076518959,91.01697183593254,65.9443316810541,64.30136578498156,65.86969177973714,58.028061805958885,10.194118965911684,29.01403090297947,2.3524889921335443,2.3524889921334307,23.524889921334704,21.956563926579065,21.956563926579065,70.57466976400408,73.71132175351539,84.68960371680498
75,100,75,0,2.502499999999995,1.5993731685528019,163.41806178349148,12.794985348422529,24.043850862471988,43.30138556866452,45.038757355230715,51.20492550130166,86.42536684490922,62.396054988599516,63.175240157836356,63.97492674211276,54.37868773079583,7.996865842764009,27.189343865398087,1.5993731685529156,1.5993731685529156,27.236343630581874,25.589970696845114,25.58997069684517,71.97179258487688,78.36928525908817,87.96552427040501
76,100,76,0,2.535866666666662,4.75887073498825,152.41599704862406,9.517741469976727,23.847171395148347,44.44444444444452,47.61513818077404,52.4436287676321,90.54369079832604,66.69968514724664,64.24475492234245,63.45160979984445,57.10644881985996,7.931451224980606,30.139514654926074,3.1725804899922423,1.5862902449961211,26.966934164933832,24.004927281158103,24.587498797439707,69.79677077982885,77.7282220048094,88.83225371978222
77,100,77,0,2.5692333333333286,1.6061019297956136,155.99872178802292,9.63661157877334,24.091528946933522,46.687590219614265,49.892671702182845,53.38930198857089,88.56891286700858,64.56449851715078,63.44102622692492,65.85017912161823,57.819669472640385,8.833560613875534,26.500681841626943,0.8030509648978068,2.4091528946933067,27.350930305548705,24.145006324493398,25.69763087672908,72.27458684080057,78.69899455998282,91.60414711752456
78,100,78,0,2.602599999999996,7.964241191736891,140.7112266667292,12.49532961465411,29.717482467381583,42.200651911167455,43.84507715328034,53.12811525291532,103.19290865675804,73.47649594447267,69.50527098151343,70.28622908242932,64.03856427510226,14.057245816485874,35.92407264213057,4.6857486054952915,4.6857486054952915,26.598474472193388,25.03942153758654,25.771617330224103,70.28622908242934,78.09581009158816,89.042923469638
79,100,79,0,2.635966666666662,4.685212856658154,142.25535267909478,14.055638569974576,29.673014758835166,39.07466274061338,42.28244172288042,53.190866628425276,101.56098732456998,71.90780004503733,69.4973240404297,68.71645523098664,62.46950475544236,12.493900951088449,35.91996523437945,4.685212856658268,1.5617376188860135,26.595433314212634,25.182262437346925,25.768670711620018,67.1547176121006,74.96340570653089,87.45730665761937
80,100,80,0,2.669333333333329,3.5058327512175596,142.81266934700932,15.67856069893503,29.83049616477226,39.196401747337745,42.36113830869513,51.83418479054918,100.39177201941335,70.5709416180434,68.98566707531438,67.41781100542084,61.14638672584681,12.54284855914807,36.06068960755067,4.703568209680498,0.0,28.264927262742493,26.699626780379496,27.437481223136388,68.98566707531435,78.3928034946754,90.94916705011622
81,100,81,0,2.702699999999996,7.965698798385149,139.11494883983872,14.059818558127404,29.72292132828096,35.96459230628753,40.64728485758901,53.20668499137188,104.71416066868807,75.00197014948175,71.08019382164412,64.05028454258036,59.36367835653789,8.592111341077953,42.960556705389195,11.716515465106113,2.343303093021177,26.55743505424067,26.603342495686,27.33853608524771,68.7368907286228,76.5479010386936,89.05922000738701
82,100,82,0,2.7360666666666624,9.617015858179,150.49689345659777,12.648221343873502,26.92393101332239,39.651972186512104,42.71701529203572,58.51938505398185,107.6144573928325,80.69438833312157,75.88932806324118,63.241106719367565,53.75494071146244,1.1368683772161603e-13,49.01185770750999,18.972332015810366,7.905138339920995,26.87747035573119,25.345801647243338,26.086956521739125,69.56521739130437,79.0513833992095,85.43403058407145
83,100,83,0,2.769433333333329,4.649451796568769,144.432658835581,13.948355389706535,27.896710779412842,38.776415594754596,43.422549923544324,57.42695162632552,103.88400969067796,76.00427753366088,73.61632011233957,63.54250788644043,54.24360429330278,1.5498172655230746,44.94470070016507,15.498172655229268,9.298903593137538,26.39243701117365,26.39243701117365,27.12180214665142,68.1919596830092,77.49086327614683,83.70448126802059
84,100,84,0,2.802799999999996,28.604452772671493,156.01281897748672,14.280206009324502,27.020349501979084,41.37580149456802,47.706348729421755,44.6815835994489,114.51678369795778,87.49841244673853,72.98771960321426,61.88089270707303,49.187376254340165,11.106826896141342,58.70751359388976,30.14710157524064,0.0,28.56041201864906,27.15975033861858,26.97372246205748,68.22765093343952,77.74778827298923,93.62812939500178
85,100,85,0,2.8361666666666627,22.442532104189304,155.23134536981073,4.796892620047402,20.84794260407423,44.79954162028342,48.07540563493409,51.26669247387286,99.34188453120478,78.4959524277933,67.15649668066266,62.359604060615254,55.9637472338855,7.994821033412222,39.97410516706111,17.58860627350691,6.395856826729755,27.229379260882332,25.633346236936458,27.182391513601488,67.1564966806626,76.75028192075723,89.59908324056696
86,100,86,0,2.869533333333329,24.145006324493448,159.29584192087648,4.818305789386727,19.273223157546795,43.394484539995666,44.99952528617424,51.4955452863842,99.69482340856469,80.44951580284774,68.25933201631159,62.63797526202717,53.001363683253714,6.424407719182341,41.7586501746847,20.87932508734241,3.2122038595911135,27.350930305548705,25.74777264319213,27.303732806524636,67.45628105141384,77.09289263018727,89.9990505723486
87,100,87,0,2.9028999999999963,16.19053435015265,160.47231092813868,6.642398948756901,22.61172050001791,42.164386072772906,45.36668950893094,50.045398543628366,95.39079128798893,72.78166689185343,64.44073523109688,66.05175361187418,48.33055142332256,7.249582713498398,37.8589319482694,15.304674617385558,4.02754595194358,30.651715136340663,27.434654448867818,28.192821663604832,69.27379037342905,80.550919038871,91.8845572774793
88,100,88,0,2.936266666666663,20.86671319324671,157.59745920285548,11.23592248867135,24.130421836660208,43.3682726466005,46.6593891670915,48.3941243570152,104.53093396664696,80.40092128319236,69.82323260817196,67.41553493202804,57.78474422745256,14.446186056863098,41.733426386493534,16.051317840959086,4.815395352287737,30.497503897822185,27.475430424003715,28.089806221678373,67.41553493202804,78.65145742069942,96.32128221518849
89,100,89,0,2.96963333333333,20.93441173794031,161.32353712484112,11.272375551198706,25.815703888543094,43.508973719973156,46.72759779254566,46.949056842621076,104.87006701742811,79.05437883896286,68.43942298942034,66.02391394273491,56.36187775599319,14.493054280112574,43.47916284033761,16.10339364456945,4.831018093370858,29.030805747238123,27.423091217597786,28.98610856022509,69.24459267164883,78.90662885839052,93.45519558509122
90,100,90,0,3.002999999999997,27.21568375604261,161.801365917111,9.721227637358606,24.025612623558555,41.67491351458937,44.862488460022064,48.18392703319975,109.0971007099128,85.07856846516027,71.11811906312403,67.12271911575749,55.93559926313128,13.584359821046178,47.14571937892492,21.57515971577925,7.191719905259674,28.766879621038925,27.356092342727596,27.967799631565583,65.52455913681095,78.30983896838381,91.10913666859385
91,100,91,0,3.036366666666664,28.223331222587117,155.18686933943073,6.262194946919465,23.53535815404739,42.26981589170646,45.50875416641977,48.7587383108319,106.56086622445106,83.03313934102549,68.88414441611422,67.31859567938426,59.490851995735,14.872712998933764,43.05259026007138,18.003810472393525,8.6105180520143,26.66033431246087,28.223331222587056,28.962651629502545,64.18749820592458,75.14633936303366,86.16209075802814
92,100,92,0,3.06973333333333,26.15556398666216,147.64698237468116,6.33270927661769,23.089754199349166,39.96312343643104,44.56779377306836,47.71212359483169,103.00891569241377,79.92624687286225,66.81198071213686,66.044026910848,58.364488897958665,14.591122224489595,40.70155146831337,16.12702982706753,9.983399416756015,27.688968077347212,26.155563986662152,26.878383045112628,59.900396500536544,72.18765732115943,84.53075087632571
93,100,93,0,3.103099999999997,26.46564227727651,138.63028566062803,6.407784532821445,23.363486836752543,40.43689249792407,45.096151919604736,49.75598999384082,105.86256910910609,82.49999714100771,69.15816319108666,68.38110517770366,59.05640901710774,13.987044240893908,41.961132722681896,17.095276294425958,9.32469616059592,28.017225112625766,26.46564227727651,27.197030468404876,62.1646410706397,73.04345325800168,87.04437242883618
94,100,94,0,3.136466666666664,33.89171947022826,145.3095484297742,11.284452903835302,24.234646424449643,40.430377003131895,46.777662277519596,48.46929284889917,117.85725535720171,93.62474307357277,76.57307327602535,74.15497622520348,66.09465272246399,21.762873457396665,47.55590866616319,21.762873457396722,12.09048525410924,29.01716460986222,27.452472632501685,28.211132259588283,66.09465272246402,75.76704092575145,88.67821245280795
95,100,95,0,3.1698333333333304,34.17120274687928,144.985245935035,9.886668957041417,24.43449401250531,44.004908051652194,47.163407661104685,53.735242301209155,122.17247006252637,97.73797605002106,80.45523903586599,78.01720148932458,68.26505130315905,19.504300372331045,48.76075093082795,21.129658736692136,11.3775085505265,29.256450558496738,29.301564618538066,29.256450558496795,65.01433457443719,76.39184312496369,89.39471003985113
96,100,96,0,3.203199999999997,43.70714795849369,144.39873315483908,11.446526188064722,24.3356484856827,43.7371151529355,50.20838360804632,52.028207640201224,131.3710185881117,107.03573131213246,84.98612103040443,82.55794614382148,72.84524659748956,25.900532123551784,53.419847504825725,27.51931538127394,16.187832577219808,13.05104786238506,9.712699546331976,11.331482804053962,66.37011356660159,77.70159637065552,87.42928336603325
97,100,97,0,3.236566666666664,49.59642918564333,142.6142742095124,9.73171938990389,25.64810466994902,40.12490696344509,46.50686555821249,51.29620933989821,136.14070317905313,110.49634310860696,85.59383746554579,76.79447099712513,68.79504693492459,21.59844496794136,63.19545009138426,34.397523467462406,13.599020905740815,4.525157599975076,5.059280001222035,3.999712031100273,67.19516212248453,76.79447099712516,84.80898696921814
98,100,98,0,3.2699333333333307,46.414212642445115,140.9864913320948,11.196775792790675,25.64256727077871,40.020462976143556,46.41421264244517,51.58359565222184,134.70363187597516,109.06231575067098,85.57535784490011,76.77789115056459,68.78019415571413,21.59378188609628,61.582266860348795,34.39009707785715,11.996545492275686,4.524180623147233,4.798618196910297,3.9988484974252287,67.18065475674405,76.77789115056464,86.50831980167304
99,100,99,0,3.303299999999997,49.7765523194666,138.35349267249063,14.443744123653858,24.126342913807733,41.84964063602473,46.651502025704445,53.178789428544476,141.4554997661399,117.33055675032968,92.27947634556614,88.26732520010665,78.63816245100412,30.492348705491395,57.774976494615316,30.492348705491395,19.258325498205068,9.761985061397445,9.629162749102534,10.43159297819443,65.79927878553406,77.03330199282036,85.11814351153427
100,100,100,0,3.336666666666664,19.409150141071887,138.95538087047458,16.198813500412353,25.83979596696124,42.031701849674846,43.78755535605327,56.62133415102882,117.84098750279408,92.00216735712652,82.20395153794834,87.0394780990041,77.36842497689258,25.789474992297528,35.460528114409044,9.67105312211163,12.894737496148764,14.595851785351119,12.894737496148764,13.700658589658076,67.69737185478095,77.36842497689253,85.48843850752078
101,100,101,0,3.370033333333331,6.474337810741758,150.8413031986776,13.049445044938686,19.490337770774374,40.593891554872926,42.114310891092316,61.69758594207865,100.67803471615737,81.18778310974572,77.69205372890082,79.31063818158623,69.59913146547365,12.94867562148346,25.89735124296692,4.85575335805629,3.237168905370879,17.877849616717107,16.266572431768633,17.80442897953975,66.36196256010277,76.07346927621538,80.99394013572505
102,100,102,0,3.4033999999999978,8.056594945107644,150.4017608114095,12.640226104066642,20.601048104984198,39.62690723723377,44.49399986897976,58.482393566867934,99.654575824488,79.06458902068903,75.05134249289591,74.26132836139169,64.78115878334171,11.060197841058311,30.020536997158388,9.480169578050038,0.0,17.451982582286313,17.45198258228637,18.170325024595854,64.78115878334171,74.26132836139172,77.48584899923245
103,100,103,0,3.4367666666666645,8.057968022162356,150.3021651906021,16.196315276340343,24.227564296923784,45.23958829750736,46.98562390743071,58.10683375991133,106.56034352068326,82.33335046420993,78.16228981497522,80.57968022162402,69.2985249905966,16.921732846541033,31.426075286433388,7.252171219946149,2.4173904066487353,19.40615681035049,17.727529648757297,18.533326450973505,66.07533778173166,77.35649301275902,80.64411820091144
104,100,104,0,3.470133333333332,14.499165426996797,150.24851806729106,17.79427962101105,24.218916789233326,42.01021961115928,45.366689508930826,58.353567610232176,114.79000563289512,90.57591780127723,82.96744661003709,80.55091903887092,69.27379037342905,16.91569299816291,39.46995032904675,15.304674617385501,2.416527571166114,19.399230200304107,17.721202188551672,19.33222056932908,69.27379037342908,82.16193741964844,83.83489514774199
105,100,105,0,3.503499999999998,17.663536210969998,151.01049146143404,6.593593944681878,17.879391913627096,42.06789535017343,45.03335790939444,52.869818394601964,94.83833521702822,77.02677768498387,67.96521071589137,75.16152714463283,60.76889428714992,15.192223571787451,26.38649357205196,8.795497857350654,11.993860714569053,22.44558095921982,20.85077483148918,20.789358571919763,63.9672571443684,76.76070857324208,86.41500578890853
106,100,106,0,3.536866666666665,6.529770821429319,154.27891801460999,11.198464571799663,19.266566947614745,42.87710606497817,46.036450646665884,52.35806153422345,89.19490916025228,69.97024343404036,66.51548599581349,72.85029418589102,58.59697575821667,13.46146740391464,22.963679689030812,2.3755530712790573,5.542957166317819,22.228317492276766,20.64894839462521,21.37997764151146,60.180677805736025,74.43399623341037,85.57854609612006
107,100,107,0,3.570233333333332,5.13767175965321,158.1284896609217,14.712052987312479,22.803392749013906,45.60678549802779,48.848425443799044,50.60019859312789,93.11808610369215,70.33170526869351,67.42399021794142,71.48567637564872,58.488280670985375,14.622070167746301,27.61946587240982,3.249348926165908,4.874023389248691,22.80339274901384,19.563671206961683,20.30843078853661,64.98697852331705,77.98437422798045,81.2986841586533
108,100,108,0,3.6035999999999984,18.080788258548782,159.01228361004058,12.93755892252642,24.31176971187531,45.54062089273947,48.75782175461759,47.34267189513138,102.51025644197013,78.22945100040587,68.73078177592174,74.39096380452702,61.4534048820006,21.023533249105412,33.96109217163189,8.085974326579048,11.320364057210611,24.311769711875368,22.870589115297435,23.449325547079184,64.68779461263222,77.62535353515867,89.07793526521115
109,100,109,0,3.636966666666665,24.208708935641983,158.477357794574,6.441357457827792,20.996256515920575,45.204380103603405,48.417417871283966,47.14198010789006,98.70473954060962,77.71451724901831,65.21874426050636,75.68595012947662,61.19289584936405,21.73958142016886,29.791278242453586,8.856866504513164,16.908563326798003,25.815703888543094,24.208708935641976,24.96026014908273,62.80323521382104,77.29628949393359,88.62720349504266
110,100,110,0,3.670333333333332,24.010094861143962,153.9965785129743,11.2933986438739,22.41675624487293,43.38782074774839,46.56387548089945,41.64799634845087,99.34340038312132,76.92785955638348,64.68367398618244,73.46787662628134,59.093726851574104,24.755480167551298,32.741118931277526,10.381330392844063,16.76984140382507,23.956916291178686,24.010094861143962,23.956916291178686,63.88511010980983,76.66213213177178,91.09230423910827
111,100,111,0,3.703699999999999,15.96552711613223,143.15999471658827,12.621857433039423,21.973523633547437,39.26376256564193,42.52994029084038,50.195311004063186,100.63446648201618,78.66785041469053,70.44969315284408,78.2774368364934,64.18749820592461,21.13490794585323,28.962651629502545,8.6105180520143,10.176066788744151,25.048779787677915,25.097655502031564,25.04877978767786,61.05640073246485,76.71188809976354,89.29119263141133
112,100,112,0,3.7370666666666654,1.6051317840958745,148.09896083785603,19.261581409150835,25.732220024493305,40.25650034310071,41.85671595018098,51.4644400489865,96.52168734664096,70.78976936106297,70.62579850021984,77.04632563660346,65.81040314793216,20.064147301198773,24.879542653486624,0.8025658920479373,4.012829460239743,25.682108545534504,24.130421836660265,24.879542653486624,62.60013957974036,80.25658920479532,88.41347955177096
113,100,113,0,3.770433333333332,2.221536668535558,154.4567203784937,15.7086364297611,23.61525871487049,42.52951945033158,45.66325255800809,51.933616812358004,89.75942897239804,66.1443656927276,66.76170482648479,72.25972757690118,59.69281843309227,14.137772786784979,23.562954644641763,5.684341886080802e-14,1.5708636429760645,25.182859930909682,25.329415154209272,25.133818287617828,59.69281843309224,75.40145486285337,80.36007798953966
114,100,114,0,3.803799999999999,1.5280872254026008,148.8611094090223,15.35708655352072,21.447726266027757,39.99387002255005,43.031326969685956,53.570300994220425,90.48031439460567,69.03505059159254,68.76392514312079,77.93244849553685,64.1796634669127,17.573003092130875,19.101090317533533,0.7640436127013572,5.348305288909387,24.497101789574867,24.49710178957483,24.44939560644292,56.5392273398993,74.8762740447315,76.64846528269311
115,100,115,0,3.8371666666666657,2.251155552678044,151.89879565248242,15.918073568044179,24.088416332533303,44.825702161963854,45.02311105356145,54.33172204403981,92.8175212338739,68.74322863449504,69.24362002099201,79.59036784022072,65.264101628981,18.3057846032508,19.897591960055195,3.979518392011073,5.571325748815468,25.51861320531353,25.667122392390034,26.264821387272832,58.89687220176333,76.40675312661187,79.84465081344194
116,100,116,0,3.870533333333333,32.1217883870426,142.42916213713045,12.181750442255975,19.853824195683355,40.056477771915,42.88015088648621,49.31822700987367,113.33775179601547,93.49543064260963,76.89729966674071,80.70409667994568,65.47690862712574,24.36350088451195,39.590688937331834,19.795344468665917,15.227188052819997,24.411039468026985,24.411039468026985,24.363500884511893,57.86331460071577,74.61322145881772,74.86141581229889
117,100,117,0,3.9038999999999993,30.47060665025129,149.18112464090626,12.85853072480043,17.616295390207377,41.742644030818425,46.69012961534396,51.26073504227892,112.2001391450356,94.5846917369285,78.94777006006109,86.1248400655212,70.17579560894319,27.11337557618259,33.49299335881386,15.949044456578008,17.543948902235798,23.97667122675821,23.976671226758246,24.721018907695907,59.01146448933861,78.1503178372322,76.82077090609873
118,100,118,0,3.937266666666666,34.89492817268095,151.35886972883324,12.774623749496023,19.27623876785409,41.470256844693374,46.19563085401211,49.34888067984035,116.19885225301772,96.97846951627119,79.22485331228705,87.14733864351575,71.30236798105835,30.10544425866908,36.44343252365206,17.429467728703173,20.598461861194664,25.549247498992102,23.97779156268512,23.7674559936861,61.79538558358391,79.22485331228708,77.7857351741866
119,100,119,0,3.970633333333333,25.38171333483507,144.94468456710547,15.911644238894937,22.222222222222197,43.01129850644338,46.34947124823445,47.73493271668501,111.23512537752613,89.01570198340808,75.99685332043691,87.07972776300068,71.24704998790963,31.665355550182028,31.665355550182028,11.082874442563707,18.999213330109228,23.801733745622144,23.959189048533847,24.54065055139114,60.16417554534593,79.16338887545515,72.98503831272238
120,100,120,0,4.004,30.028372381226653,146.23376355475366,13.01463414042095,22.319913412295918,41.51743886819185,44.63982682459163,50.60274368573757,115.74118022101653,93.45089466590835,78.12368254018827,88.38234792425345,71.02152958198934,29.197739939262306,35.510764790994756,14.993434022864449,19.728202661663715,25.301371842868758,25.301371842868793,25.252099406929574,58.39547987852461,78.91281064665489,75.90411552860633
121,100,121,0,4.037366666666666,35.34257760809156,142.06876816468701,15.428402929758576,20.192185954221564,37.35262595538944,40.38437190844312,46.28520878927577,117.16779323000793,97.02068035902593,79.06194870837095,87.50545779373095,72.15362309307642,33.77403634144002,36.84440328157092,18.42220164078543,21.492568580916384,24.754089653190128,24.754089653190157,24.56293552104728,56.801788392421884,76.75917350327279,78.42969736298467
122,100,122,0,4.070733333333333,51.180894028974244,145.0019448149581,15.579564222159732,26.53557049597876,42.31289646201641,48.28147018767589,39.52312694055217,132.50566708600493,105.97233639487104,79.83656591281641,88.36280110738903,72.86055529907514,41.85606368244743,51.15741116743578,24.803593293302185,29.454267035796306,24.996620276821442,24.996620276821428,24.803593293302185,60.45875865242408,82.1619027840635,74.66870363379918
123,100,123,0,4.1041,48.86929417447047,145.64801295338438,11.141240075107076,23.686601306614236,39.51607974701611,45.80120297490883,43.57919945674681,126.84388675019406,103.18737240898363,77.99265943856165,83.50729192411649,69.32680838983259,33.87559955412274,49.6316923699938,24.42194386460011,24.42194386460011,25.405936277533506,25.40593627753348,25.997553146187187,63.02437126348411,83.50729192411649,83.64096308611965
124,100,124,0,4.137466666666667,46.56335024246407,145.2719016269703,10.968994709593408,24.868431051976575,40.60010068541099,45.22632379449495,42.59587047686026,124.7189651726046,99.87207940886404,76.01125531113814,83.76750585309105,66.70375466079474,33.35187733039737,48.864378414303076,22.49312657166331,24.044376680053915,25.013156411841766,25.013156411841752,25.595626788444463,60.49875422723241,80.6650056363099,79.25051233790495
125,100,125,0,4.170833333333333,32.850630908307664,150.66127334357884,12.841571246315914,28.203345723601686,44.04622599499806,48.67556386218328,45.588375860970494,119.37258617134816,91.17675172194099,73.9702895810035,80.97800122551962,62.29077017347663,26.473577323727568,46.71807763010747,18.68723105204299,17.129961797706073,24.916308069390652,23.565760002282957,24.137673442222194,59.1762316648028,79.4207319711827,78.00349103746679
126,100,126,0,4.2042,31.555480533752945,144.1016887170602,11.101179313166607,28.43289212968996,42.64933819453498,47.3332208006295,44.40471725266623,115.47361130527159,87.04344017877732,70.6474725435711,84.77696705228527,65.93764104066634,31.3988766860316,39.24859585753944,10.989606840111037,23.5491575145237,25.168114276111684,25.31458368498292,25.119101348825268,51.808146531952104,73.7873602121742,66.4032423687225
127,100,127,0,4.237566666666667,33.39820084317722,146.70183061853038,14.385298019301324,30.349977231679112,41.577389989870056,47.763501014349856,43.93823981990305,121.77351185483944,91.43714457323397,73.86945421905045,84.19529190558444,71.48656859908112,34.94898909288412,42.89194115944866,11.120132893190373,23.828856199693746,25.467041677947446,25.86037833900482,26.211741819663104,61.955026119203666,84.19529190558447,82.85073954681138
128,100,128,0,4.270933333333334,6.4016028607700495,145.06792171917962,18.63140101285478,34.29842507382822,37.55278929438647,42.03550359628422,46.990709704659714,106.13586358474102,71.84103840277272,68.31513704713421,77.6308375535616,63.65728679392049,24.065559641604068,34.933876899102756,0.7763083755356774,8.539392130891713,24.841868017139745,26.576517854718084,26.394484768210987,57.44681978963561,77.63083755356163,70.48606455698953
129,100,129,0,4.3043000000000005,9.51790531895659,149.05271999916081,18.77680794845685,31.333773845532207,42.36356554719212,45.48507055430861,45.48507055430849,105.02384543664388,73.69216046963676,68.84829581100837,75.1072317938274,64.15409382389419,24.253376933423453,35.20651490335655,3.91183498926182,7.0413029806713325,25.084594209787966,25.08459420978791,25.818110929128125,64.15409382389424,82.93090177235109,78.37739932902282
130,100,130,0,4.337666666666667,2.2128680382318704,152.29452366252895,18.84189239993017,33.00809979996999,39.24332896468617,43.92417639664434,45.619443285916994,99.18488278890136,66.18288405558455,64.9364608217466,73.54249779812267,61.02462583248473,21.906275939866305,31.29467991409473,1.564733995704728,6.258935982818969,26.646459772755748,26.78393167279652,26.60047792698049,64.15409382389424,82.93090177235109,81.74144035059712
131,100,131,0,4.371033333333334,10.834417347525289,149.23783369709875,17.09572157347053,27.902890918770712,43.44808401335854,45.12497597292679,43.4480840133586,99.25081320374085,71.34885171741062,65.78039103854655,74.29314752588783,60.36318236478388,23.990495555234645,31.729365089181215,3.8694347669733133,10.060530394130637,24.812703300935244,26.493621713454093,27.08604336881325,66.55427799194118,82.03201705983449,85.35239871463348
132,100,132,0,4.404400000000001,12.338213363158939,139.800514061005,15.37999820370003,29.117218341394672,39.90708942540763,44.48606092848437,44.486060928484434,101.29365086841193,72.1872679497839,65.8057818515909,71.92724993080867,59.684313772373116,21.425138277262135,35.19844145550206,6.121468079217777,9.182202118826638,24.676426726317768,23.158655321604307,23.72068880696878,65.8057818515909,81.10945204963531,82.86622995692882
133,100,133,0,4.437766666666668,9.382416521182117,140.9051989563791,15.501528884904118,31.003057769808304,40.370035632281486,43.43606162872196,44.9700437259489,100.83959805213425,69.8378365935998,64.78331053149469,72.49560940429166,60.155931207816536,21.594436843831545,33.934115040306835,3.0849195491188084,9.254758647356368,24.679356392950353,24.87141653776067,26.221816167509758,67.86823008061353,84.83528760076692,83.42126711271801
134,100,134,0,4.471133333333334,20.33762558189602,151.81670299784082,12.575708594258574,28.12013928199053,43.925061742723315,48.580463507349144,45.66318476326866,106.6285927294251,78.5507636645628,67.8523734825639,74.8715845324844,62.39298711040357,23.397370166401345,37.435792266242174,9.358948066560515,12.478597422080725,22.059252142125604,20.33762558189607,21.057633149761273,70.19211049920406,85.79035727680497,90.5907713539488
135,100,135,0,4.504500000000001,21.48703050284979,153.85435283674835,9.335750287864958,27.668782226958513,41.55280558049749,44.61457077905627,46.45111054694077,104.77105642950916,77.12213715031118,65.99587940161013,72.13503097385302,61.391515722428096,20.71963655631947,37.60230337998712,8.441333411833853,13.045697091015995,5.533756445391726,4.853425467322769,5.371757625712462,56.78715204324595,72.13503097385296,63.22506519360537
136,100,136,0,4.537866666666668,27.74633429987648,154.6387831177233,13.958541292049718,30.8677728533128,44.808609170691895,49.42306407152833,45.12565517078475,117.51570551553739,86.66532247963072,72.44876178301098,75.53168781633059,63.19998368305215,24.663408266556928,47.78535351645405,15.414630166598045,13.873167149938297,6.893632180106428,6.355614835671664,6.165852066639275,55.492668599753074,69.36583574969134,63.27513232277737
137,100,137,0,4.571233333333335,10.9418752206059,158.20755938561365,18.568978001730102,32.53253385082177,46.65397983217914,51.27526643732913,46.83327110985786,108.71621683838897,76.2170532742996,70.40737492322643,74.27591200692012,63.44400817257764,22.437515085423797,39.45907825367635,5.415951917171242,6.963366750648788,7.890298431524715,6.380154805075294,6.963366750648788,71.18108233996512,82.01298617430763,83.61769302754843
138,100,138,0,4.604600000000001,4.4890642121303586,151.49437077237303,16.52777828410512,29.927094747535875,43.42007893888398,47.97678261484335,47.976782614843295,98.86138420943449,68.97854512563082,66.58778581326726,73.32138213146288,62.846898969825304,20.2007889545867,30.675272116224278,0.7481773686884026,6.733596318195566,12.063997575619332,12.063997575619332,12.71901526770273,61.35054423244853,76.31409160621646,73.45867392737658
139,100,139,0,4.637966666666668,7.717818303026673,151.97063682139125,16.718133593083767,28.7581852484783,45.63413444784643,48.64722108332018,47.01879909673821,100.08015115502128,71.39583605956132,67.3546970293308,72.65225746983998,59.02995919424495,18.919858716104102,34.055745688987486,3.7839717432208317,5.29756044050913,13.706128594677509,12.108709578306616,12.865503926950794,68.11149137797494,80.22020095628162,83.37112545115355
140,100,140,0,4.671333333333335,6.311112119422515,155.21019149434315,13.860802045976252,24.538499162202278,47.549405524510746,49.19620422827411,52.401683632334695,97.02561432183367,72.52531230863423,68.88012851513298,75.00280660536708,61.22678090234041,16.07202998686438,28.317386167332472,2.2960042838377603,5.357343328954812,19.95748886606764,18.431701824763163,19.133369031981374,68.88012851513301,81.1254846956011,85.73115886611569
141,100,141,0,4.704700000000002,9.168742151197776,145.33837926277363,13.649471107546304,25.801366484920372,40.94841332263892,43.94589970722867,52.95006251987658,101.54093150165993,75.74249180589729,70.84460045248062,76.87392815056404,63.30794082987626,17.334317131989906,30.900304452677688,5.275661735823007,6.782993660343891,19.653203815550278,18.150679930750997,18.84164905651079,61.8006089053554,75.36659622604316,73.99756326351734
142,100,142,0,4.738066666666668,6.794658610078611,141.9579649981311,13.758135087024506,25.87328915308177,39.76472001337895,44.47777505832605,56.297344727162375,102.2025978056597,76.3454807796366,72.92792897299233,79.0052563874084,65.33126970497233,15.952984462842096,29.626971145278105,3.798329634009974,5.317661487614032,18.48346974038199,16.781568827968545,18.231982243248126,65.33126970497233,80.5245882410124,85.20458549823978
143,100,143,0,4.771433333333335,55.28996608864069,172.90146413627016,17.144690673127233,26.24873978768872,50.97483003964399,56.92450413563579,54.454301387315056,152.9244901189317,126.67594607734227,98.14193612369678,84.3407263563019,64.40564558117603,20.701814651092263,77.44012147260457,49.83770193781481,8.434072635630116,21.68650892245097,21.686508922450912,21.4685485270586,59.805242325377776,79.74032310050367,84.5634820466145
144,100,144,0,4.804800000000002,46.297064132948634,174.82184331955307,15.474973833035987,24.828810304459548,49.49022145963966,54.091224913260014,56.19806326226235,142.67220922911935,117.84382987644712,93.92886433652313,80.07050730326557,63.132515373728666,16.1680832054671,70.06169389035739,43.88479727198211,3.8495436203493227,21.77630718737929,20.253136419627143,20.787535549886286,63.13251537372864,80.0705073032656,95.51834040013247
145,100,145,0,4.838166666666669,39.95399382113011,171.13709065037438,15.432154074906524,26.28449721186872,49.35328040012377,54.09433104987149,56.042561385348115,137.5245149739359,111.24046022274572,90.59784665453736,79.84894959382945,64.49338236424688,16.891123952540852,64.49338236424688,36.85336135099823,6.142226891833047,23.23718978098914,21.716051434007543,21.49779412141561,64.49338236424686,82.92006303974597,87.64787753401603
146,100,146,0,4.871533333333336,39.017605524378766,167.5890494458496,11.027027284780768,23.598868930226132,50.12144783497311,53.11319678904437,56.48594053921045,130.03479031631113,106.45508360291076,86.549872040313,74.8539433862166,59.259371847421505,10.916200077156589,62.37828615518055,35.86751453922881,4.6783714616385055,23.391857308192698,22.054054569561536,22.612128731252938,63.93774330906004,79.53231484785519,87.38527776707018
147,100,147,0,4.904900000000002,34.1988685827868,153.64553449294425,12.481262169049025,24.818091933866846,43.45751973559695,48.09118560623951,52.726728032482576,124.19663953834798,99.38094786266977,82.04983214524515,74.3092819428636,63.472511659529346,16.25515542500142,54.957906436909525,28.64003574881201,6.966495182143433,23.27319706481545,21.728759867798477,22.447595586906687,65.02062170000565,80.5017221047689,86.70798357601139
148,100,148,0,4.938266666666669,43.75086404237797,145.52470159216466,7.962298960321013,23.630316971065113,43.97323327176028,46.87207733038685,51.625216622286345,126.83089235232961,103.25043324457268,81.199835543473,79.63830024456001,70.26908845108244,23.42302948369405,51.530664864127175,24.984564782607094,18.738423586955264,23.475022953849425,21.91719234940855,22.642261834237672,65.58448255434357,79.63830024456004,90.58250784788731
149,100,149,0,4.971633333333336,39.222624571207895,142.79402303266872,12.541210904043453,25.131363165469683,40.789071438885365,47.133935116041805,51.94582576044202,128.7861612975182,103.65483413627238,83.86934792079063,78.38256815027154,72.1119626982499,23.514770445081524,53.300146342184576,26.65007317109223,12.54121090404351,25.131363165469683,22.00303539966153,22.730944763578748,67.40900860923355,76.81491678726613,94.07214463460458
150,100,150,0,5.005000000000003,40.95484676471405,143.5470664879839,11.01815838441064,23.610339395165624,41.045488366030455,47.456194858772925,53.609278905457124,129.1562057656043,105.56518096721896,84.9972218225962,80.27515394356305,70.83101818549687,22.03631676882128,53.51676929570863,26.758384647854314,14.166203637099443,25.23350228681539,23.662748648099903,24.397350708337797,72.40504081184119,81.84917656990743,83.42319919625186
151,100,151,0,5.038366666666669,51.18012531046435,131.84915418498926,12.40161037615269,26.353422049324536,35.654629831439024,41.85543501951531,49.6306574892138,139.55256139752646,113.2071579839563,87.58637328157846,77.5100648509544,72.85946095989715,25.578321400814957,64.33335382629218,33.3293278859104,14.726912321681368,23.304635544226052,23.304635544226052,24.028120103795857,74.40966225691625,82.1606687420117,91.47501287988871
152,100,152,0,5.071733333333336,36.09475734269473,141.5332080218092,15.678560698935144,29.83049616477227,36.09475734269473,40.88468424744527,48.8305997938266,130.36796287012336,100.53857946613672,82.31244366940928,72.12137921510134,61.14638672584681,18.030344803775392,63.49817083068706,32.141049432816885,5.487496244627323,25.134644866534185,25.08569711829614,25.08569711829614,75.25709135488842,79.96065956456894,87.81393751315517
153,100,153,0,5.105100000000003,27.138248949514857,148.51411600455427,11.155289953765077,25.54755747173607,41.46456918960362,46.24224058639816,52.6133641764656,116.4319330556624,90.89183152132212,77.2902232510869,70.1189654236664,60.55728832043917,12.74890280430293,50.99561121721206,22.31057990753027,4.780838551613556,25.497805608605972,25.547557471736077,25.497805608605972,76.49341682581792,79.68064252689368,78.15204803039829
154,100,154,0,5.13846666666667,23.674299010153312,152.88454616232428,12.696370498271516,26.77144606498905,40.97483781964223,44.122258765330706,50.49163874370313,113.55979000663152,86.84226038452967,74.80256988746953,62.99163779997434,56.692474019976885,9.448745669996242,53.5428921299781,23.621864174990378,0.0,25.19665511998977,25.24581937185157,25.196655119989714,75.58996535996923,78.73954724996793,78.80251371124997
155,100,155,0,5.171833333333336,11.192749446777043,150.31114031628354,14.390677860141977,27.182391513601488,43.17203358042593,46.39752215194106,57.65147434825144,110.3748673190999,83.20761464405378,77.54976402409841,62.3596040606152,63.958568267297665,5.5963747233885215,47.169444097131986,15.190159963483211,5.5963747233885215,25.633346236936458,23.98446310023661,24.783945203577844,83.14613874748693,78.34924612743961,81.68813778264695
156,100,156,0,5.205200000000003,14.443744123653914,141.22772032017065,12.938798663929912,30.492348705491395,38.516650996410135,43.331232370961516,57.79726192514308,115.54995298923063,85.05760428373924,77.83573222191228,65.79927878553406,65.79927878553406,8.02430229091874,49.750674203696576,16.048604581837594,3.209720916367587,27.32978880580886,25.677767330940128,25.677767330940128,80.24302290918789,75.42844153463662,81.91079489346835
157,100,157,0,5.23856666666667,2.226004145658291,141.8018804685912,15.740226263443788,31.51977852913721,37.80932094995637,40.95484676471417,55.18066276796537,104.07610908312692,72.55885790183429,71.61802949866905,56.66481454839737,62.960905053774866,4.722067879033148,44.072633537642446,9.444135758066182,9.444135758066182,26.942927418443322,26.804639452728566,26.75838464785437,78.70113131721865,73.97906343818553,80.41391835818563
158,100,158,0,5.271933333333337,3.5196215906288075,138.73739372003485,15.740226263443788,31.51977852913721,36.236722133346085,40.95484676471405,56.66481454839737,105.56518096721891,74.04601283056402,73.19205212501328,56.66481454839737,64.53492768011932,3.9350565658609185,44.859644850814675,10.231147071238524,10.231147071238524,25.380352230484316,26.804639452728566,26.75838464785437,78.70113131721868,72.40504081184119,77.19132777668037
159,100,159,0,5.305300000000004,3.1836147136087902,135.34107443657322,15.918073568044179,28.696715228095698,38.23652483554082,41.38699127691484,54.144854002771005,101.92540267678271,73.24043862314709,71.63133105619858,65.264101628981,68.44771634258979,12.734458854435275,35.01976184969726,3.183614713608904,1.591807356804452,25.51861320531354,25.468917708870606,25.468917708870606,70.03952369939427,70.03952369939427,84.50083528105404
160,100,160,0,5.33866666666667,3.182304666982077,140.2472391853708,14.320371001419858,30.27373780872521,38.220790635619664,41.400548446237835,55.78118056075725,103.53499977599877,73.2621552136787,71.60185500709895,60.46378867266128,68.41955034011676,8.751337834200967,38.983232170531664,7.160185500709986,5.56903316721889,25.656560458823634,23.920264612511165,25.45843733585741,73.19300734059001,73.19300734059001,82.80109689247567
161,100,161,0,5.372033333333337,19.402850002906703,137.0000222087307,9.66791393412916,24.169784835322844,41.89429371455958,45.116931692602634,58.007483604774734,111.19268585398929,87.02614374853324,77.34331147303305,67.6753975389039,70.89803551694695,11.27923292315063,41.894293714559694,14.501870901193797,3.2226379780429397,27.439773622801383,24.22343592206076,25.781103824344427,72.50935450596847,70.89803551694695,87.07088343639059
162,100,162,0,5.405400000000004,22.459371213728787,136.3982097026985,11.34369549029546,25.717936478564084,40.1060200245156,43.31450162647684,52.93994643236067,112.34268216974284,86.64385606116471,75.39931764608946,65.77387284020574,68.98235444216698,14.43816720882569,44.91874242745757,16.042408009806195,4.8127224029418585,27.4601792497167,25.717936478564077,25.667852815690026,70.58659524314757,70.58659524314757,88.29156081116301
163,100,163,0,5.438766666666671,27.186084286356504,150.33156033280275,8.154257310253607,24.04096837907212,41.60945926792385,46.37626142966701,52.772987144103865,111.98838157973596,87.9695153852037,74.36193643032817,60.768894287149976,59.16971285854078,7.196316428741511,51.97339642979932,26.386493572051904,0.7995907143045997,25.786025727479494,25.636828569333723,25.586902857747305,68.76480143019603,68.76480143019603,86.41500578890853
164,100,164,0,5.472133333333337,27.13501888491971,163.02829485532067,12.747385396910545,27.135018884919816,46.31903295968034,51.38635334339504,47.829244918461185,114.82601433371896,87.69619812271021,74.09417761954268,62.14350380993898,49.39611841302843,7.9671158730690195,58.956657460711426,31.86846349227642,3.1868463492277215,14.340808571524349,12.846588335848711,13.544096984217447,70.11061968300808,68.51719650839425,87.69619812271027
165,100,165,0,5.505500000000004,36.79882245652175,140.83185239468548,6.399795209829904,23.999232036862054,38.398771258979195,43.228236194114075,52.79831048109645,119.99616018431016,95.9969281474481,77.59751691918723,60.7980544933838,57.59815688846891,6.399795209829904,60.7980544933838,35.1988736540643,1.5999488024574475,5.059482355424391,5.059482355424391,4.799846407372456,71.9976961105861,70.39774730812863,80.14130615199056
166,100,166,0,5.538866666666671,37.393431031830346,138.34604665902518,5.141235286478489,21.135417539730156,40.677536761218505,44.0169014113811,55.30114954814888,118.68349849233113,97.54808095260097,78.85136543668574,69.90945801603067,63.40625261919064,11.38060944447011,52.02564317472047,27.6386229365703,8.129006746050095,5.141235286478453,6.5032053968400305,5.690304722235055,74.78686206366072,73.16106071445071,79.7305977348654
167,100,167,0,5.572233333333338,39.21244652435858,140.4748458814281,6.529742033225261,26.11896813290116,39.21244652435847,44.10597865152654,55.5987499768118,127.3404335481164,101.22416546139836,81.62177541531628,70.1947268571721,65.29742033225307,12.243266312297465,59.583896053180865,31.832492411973362,7.345959787378433,5.16221433958271,6.529742033225318,5.713524279072203,75.09203338209099,75.09203338209099,81.63809813829025
168,100,168,0,5.605600000000004,43.02754696452257,138.97363988117593,7.9680642526893735,27.138248949514743,38.27989428328512,43.29233436811637,49.40199836667409,127.49898773431048,100.39760958388604,78.88383610162475,70.1189654236664,60.55728832043917,15.936128505378633,62.150901170977136,35.05948271183331,9.561677103227112,5.039446316213153,4.780838551613613,5.5776449768825955,71.71257827420433,73.30619112474221,75.05222883293989
169,100,169,0,5.638966666666671,42.35294117647061,136.7947468588107,6.467616667635509,26.71276292694334,37.77755161974052,42.61357712064668,50.1960784313726,125.52940563916898,98.83597805191135,77.6470588235295,69.01960784313724,59.60784313725492,14.117647058823422,61.17647058823536,34.50980392156873,9.41176470588232,6.467616667635592,4.70588235294116,5.490196078431325,70.58823529411768,72.15686274509807,76.92674406424615
170,100,170,0,5.672333333333338,36.231953608403856,131.3923880086211,7.86907747428495,28.37236232413303,33.38566826249514,40.12457959535227,50.460363432934145,122.79795621163505,94.44204390989665,76.33005150056391,77.11695924799238,62.952619794279485,19.672693685712318,52.72281907770912,25.967955665140266,14.95124720114137,4.9768415806131205,4.976841580613066,4.721446484570947,72.39551276342141,73.96932825827838,80.51108476114649
171,100,171,0,5.705700000000005,36.24766880860117,129.8841662976653,7.872490597662534,28.384668515480413,34.95953166029002,40.14198317805694,47.339793756245975,119.70328407448928,91.33446318397208,73.21416255826153,75.57590973756027,61.40542666176776,21.25572461368887,51.171188884806384,24.404720852753826,16.53223025509135,4.979000229374787,6.297992478130027,5.510743418363745,72.42691349849525,75.57590973756027,77.29486937353258
172,100,172,0,5.739066666666671,30.988902875593453,123.38293069937208,6.197780575118713,21.912463364863513,35.93911207065837,39.836111100582826,49.606448773541246,108.56072155635333,86.78276128061395,71.27447661386498,80.57114747654305,65.07669603874626,23.24167715669512,35.637238306932545,15.494451437796727,20.14278686913576,7.900651023374169,6.1977805751186565,6.972503147008524,68.17558632630562,71.27447661386498,77.61158197226929
173,100,173,0,5.772433333333338,30.51613713208558,130.9016103904396,9.623355354459932,25.71235373614783,34.02369914453251,39.02439024390252,48.14350089364485,113.88766615236224,88.21409074921615,72.9771114379879,81.79852051290953,65.75959492214292,25.662280945226485,40.09731397691644,17.642818149843265,19.246710708919863,14.523864842631939,17.642818149843208,17.642818149843208,67.36348748121961,73.77905771752623,67.53511447907653
174,100,174,0,5.805800000000005,25.508112382772513,123.54762521775814,9.678601794156137,25.508112382772513,35.32931522048583,39.00757894016048,49.32572233822373,109.80104049487704,84.33107367502765,71.60185500709895,82.73992134153656,66.82839800662566,25.458437335857354,35.00535133680398,12.729218667928762,19.09382800189303,9.678601794156155,9.546914000946572,9.546914000946572,66.82839800662566,71.60185500709892,73.26215521367881
175,100,175,0,5.839166666666672,26.54994075979549,120.48263495095334,9.483429488596054,24.993732598366215,36.162270900597385,38.22097780933739,47.41714744298013,107.98151506576583,82.99739859288648,69.37844608275924,82.63050881766833,60.803581960171016,24.945059265711166,35.85852269445991,12.47252963285564,18.708794449283346,7.795331020534718,7.9497089977244055,7.795331020534832,68.59891298070579,71.7170453889197,79.64982227938654
176,100,176,0,5.8725333333333385,24.85460321161611,123.69886883098039,10.873888905082026,26.590142318190406,34.49135938546053,37.796162280262116,45.71363934605039,107.73563848753446,81.15001780802062,68.35015883194427,80.77746043775232,65.24333343049227,27.961428613068108,34.17507941597211,9.320476204355998,20.19436510943808,9.449040570065524,9.320476204356055,9.320476204356055,69.90357153267024,73.01039693412227,79.36099519920111
177,100,177,0,5.905900000000005,26.414191432032453,122.1864761785026,9.322655799540883,24.908923639305584,34.49942519660439,37.80500092020977,45.72432948955971,106.0672619392319,81.16899475556981,67.58925454667133,80.79635026268755,65.25859059678612,27.96796739862259,32.62929529839306,9.322655799540883,20.199087565671846,9.451250230052445,9.322655799540883,9.322655799540883,69.91991849655653,73.02747042973681,79.37955378346295
178,100,178,0,5.939266666666672,12.33454369305042,120.6170803662171,15.418179616313012,32.41486635865608,30.874880620827817,34.23391439810509,45.3724307792354,105.25095838485025,72.87434849308147,66.29817235014593,81.71635196645894,72.46544419667117,32.37817719425732,27.752723309363432,3.083635923262591,16.959997577944307,9.751312992226076,10.792725731419068,11.563634712234716,66.29817235014596,70.92362623503988,78.69315626429781
179,100,179,0,5.972633333333339,9.418690557972068,125.7659016716647,15.484231894731352,31.00715020528278,32.664022965576194,34.20578627023073,46.68438138919312,102.48877290304382,71.49625056409951,66.58219714734503,78.96958266313015,69.67904352629131,27.871617410516535,27.87161741051648,1.5484231894731693,13.935808705258296,9.793088121115183,9.290539136838845,9.290539136838788,68.13062033681814,72.77588990523756,77.56039236368464
180,100,180,0,6.006000000000006,9.340426897557988,124.72086258056004,16.891123952540852,30.7494994141099,30.749499414109962,35.451079836051434,44.7687869168795,101.63715276865601,70.90215967210275,66.02893908720512,78.31339287087121,69.10005253312164,29.175577736206947,27.6400210132486,3.0711134459165805,13.820010506624385,11.179021684359615,10.858025717003756,10.748897060707804,66.02893908720512,70.6356092560799,82.97691602074119
181,100,181,0,6.039366666666672,12.677226752361664,135.5565260845973,14.15174810000758,28.34714078445968,36.19974530495216,41.00360455617393,44.13983332147025,99.2617078040298,70.91580781982977,64.46907467781222,75.47598986670698,66.04149113336865,26.731079744458782,28.303496200015104,5.684341886080802e-14,14.15174810000758,4.972417429887154,6.289665822225572,5.5034575944473545,55.03457594447383,61.32424176669943,58.20065384766067
182,100,182,0,6.072733333333339,12.73462174495407,142.37739944732172,14.215818854064082,28.47547988946438,36.46640709055211,39.614547003858426,44.33967240741572,99.71110616972989,71.23687269813563,64.76095255740302,75.81770055500846,67.92002341386177,27.64186999401352,27.64186999401352,0.7897677141147028,15.005586568178785,5.69509597789284,6.318141712917395,5.528373998802749,63.181417129173724,69.49955884209109,63.20115823796015
183,100,183,0,6.106100000000006,12.5866275922412,143.38884254093992,14.247095054756471,28.3635819806222,37.792646238659174,41.027386436364495,44.1654341982479,99.31927908509292,70.95693862438814,64.50646641023627,75.51976555344731,67.65312330829653,27.533247858027664,27.533247858027664,0.7866642245150501,14.946620265786407,5.672716396124463,6.293313796120572,5.5066495716055215,62.933137961206086,67.65312330829656,61.37997707541969
184,100,184,0,6.139466666666673,34.03296904595027,146.13049753537018,9.712699546331976,27.56688553844078,42.21270282897193,45.4414114829089,42.36761235076265,113.60352870727218,86.03951034399182,68.79828845318457,80.9391628860995,69.60768008204553,33.18505678330081,38.04140655646677,10.52209117519294,25.09114049469082,9.846674144745394,9.846674144745414,8.903307917470954,51.80106424710365,61.5137637934356,63.31905424345789
185,100,185,0,6.172833333333339,33.46188666689022,142.03828162452433,11.153962222296741,27.13501888491976,41.45963396931231,44.72952002600017,41.916419337418304,113.41323069318712,86.28059118989736,69.31390809570115,79.67115873069099,71.70404285762191,34.258598254197125,37.44544460342479,10.357250634989839,24.698059206514188,10.077693016551729,9.692414781449797,9.560539047682937,60.550080635325145,68.51719650839425,66.99960766217075
186,100,186,0,6.206200000000006,34.916236578792336,143.05941060348542,11.109711638706642,27.027367415652204,41.295153136222666,46.05330390979088,43.11545042662992,116.03221996725294,89.00513669267977,71.41957482025703,80.94218479629131,73.00667648292944,34.12268574745616,38.88399073547333,10.316160807370466,23.012974108749518,10.03771226456989,11.5542745097148,10.316160807370522,65.07116816956758,69.8324731575847,69.9045769177914
187,100,187,0,6.239566666666673,11.24416385378845,151.30033591009837,16.063091219697867,25.70094595151653,41.794916315670456,43.63724325101914,46.831556092284984,99.70768435271582,74.04719181077759,68.26813768371579,75.4965287325798,65.85867400076108,24.094636829546744,28.913564195456104,3.2126182439395734,9.637854731818663,19.342523214975945,19.342523214975945,18.472554902652462,67.4649831227309,69.07129224470066,83.54351819470865
188,100,188,0,6.27293333333334,6.42523648787909,151.12970279399798,17.669400341667654,25.70094595151653,41.794916315670456,45.09124580575244,46.69361306483166,96.43207609061052,70.75057774271012,67.46498312273093,75.4965287325798,69.07129224470066,25.70094595151653,24.094636829546744,1.6063091219697867,11.24416385378845,19.275709463637384,19.275709463637384,18.47255490265252,65.85867400076111,65.85867400076111,81.93751183573566
189,100,189,0,6.306300000000007,7.998976196566048,147.3983652311429,15.997952393132152,24.050195977305552,41.625430145917825,43.31281270092633,46.504261767403506,94.50985863376886,70.46367097302469,66.39150243149834,75.19037624772102,67.19140005115491,24.796826209354833,23.197030970041567,2.3996928589698427,10.39866905553589,17.67031597179195,17.597747632445305,16.797850012788672,65.59160481184176,65.59160481184176,78.4062894681644
190,100,190,0,6.339666666666673,8.252045287824886,144.07033439916654,16.183592288334808,22.657029203668742,38.840621492003606,42.201645508372565,55.02421378033836,101.96947472844745,79.31611436340222,75.25370414075684,82.53632067050751,79.29960221284057,25.89374766133568,21.038669974835273,1.6183592288334694,9.710155373000873,19.487625716459764,19.487625716459753,20.229490360418538,66.3527283821727,66.3527283821727,80.93414341592674
191,100,191,0,6.37303333333334,22.896594292664076,138.93954944876282,16.790835814620323,27.47591315119689,41.21386972679534,44.37189578607985,50.37250744386097,117.53585070234226,90.05993755114537,78.61164040481333,83.95417907310161,80.90129983407974,32.05523200972971,35.108111248751584,7.632198097554692,15.264396195109384,18.31727543413126,18.38076704715669,18.31727543413126,59.5311451609266,59.5311451609266,74.8111156490431
192,100,192,0,6.406400000000007,23.12387280562019,141.58751367820136,15.381771385074558,26.19421279087854,38.45442846268634,43.178689890135274,53.8581693242305,118.44962740718955,92.2906283104474,80.75429977164146,84.59974261791012,79.98521120238775,28.456277062387983,36.147162754925205,9.998151400298468,13.074505677313425,18.458125662089486,19.996302800596965,19.227214231343225,64.60343981731319,63.06526267880571,73.89656556943287
193,100,193,0,6.4397666666666735,34.01090189067994,154.46643408086493,15.44355500589461,23.216753953931942,46.33066501768394,49.4435006851857,54.074500241410945,126.64656750007605,103.47181853949417,86.48390803301004,78.76213053006273,75.67341952888381,23.16533250884197,49.41937601886292,24.70968800943143,7.721777502947361,20.07662150766302,20.135932187861542,20.076621507662992,61.77422002357861,60.229864522989146,77.35664215639245
194,100,194,0,6.47313333333334,45.975661690615254,159.44859112268495,13.792698507184582,19.922786732599945,45.9756616906152,50.57322785967676,56.70331608509218,136.39446301549197,116.47167628289202,93.48384543758436,79.69114693039978,75.09358076133827,20.689047760776816,59.002099169622966,37.546790380669165,8.42887130994609,18.39026467624612,18.39026467624612,19.156525704423046,61.30088225415369,59.768360197799836,79.8236588597733
195,100,195,0,6.506500000000007,45.79318858532815,157.2529176205986,13.737956575598446,19.8437150536422,42.740309346306276,47.31962820483909,56.47826592190472,135.85312613647352,116.00941108283132,93.11281679016724,77.84842059505786,74.79554135603598,19.8437150536422,59.5311451609266,38.16099048777346,7.632198097554692,18.31727543413126,18.31727543413126,18.31727543413126,62.584024399948476,58.00470554141566,77.98299013472837
196,100,196,0,6.539866666666674,38.16483896820551,160.16424348327348,13.812846762852022,21.35523246443654,47.28658617125211,51.86270741363137,53.38808116109112,126.64277169916075,105.29499302378392,86.18361673147575,70.1671923831484,70.1671923831484,16.77911122205728,56.438828656010685,33.55822244411445,4.5761212423792585,19.88844040654514,19.82985871697673,19.82985871697673,61.01494989838989,56.43882865601066,73.47172899217355
197,100,197,0,6.573233333333341,43.07182612097114,163.0576274579622,12.306236034563199,21.53591306048554,44.636619806310186,49.224944138252795,52.32412001417632,129.22463446413752,107.69055245263273,86.14365224194233,69.22257769441791,69.22257769441791,16.92107454752437,59.99290066849551,35.38042859936917,4.614838512961171,19.99763355616517,20.056710888878946,19.99763355616517,64.60773918145676,58.454621164175165,77.1597073922985
198,100,198,0,6.606600000000007,43.072540235099694,162.96368908023985,12.2985990723854,21.522548376674536,47.65707140549341,50.73172117358979,53.80637094168617,130.68165791876027,109.1608924621426,87.62751839074605,69.17961978216795,67.64229489811976,14.604586398457684,62.26165780395115,39.201784543228484,3.843312210120473,20.044264163329508,21.577382983703203,20.753885934650327,61.49299536192703,55.34369582573433,81.7099383948874
199,100,199,0,6.639966666666674,54.70622192768748,168.540063447345,17.165381761703884,25.01654577655292,45.254188280855715,51.49614528511165,51.51978363626941,148.3778302813004,123.36750743931341,95.97008894043535,73.34299480000749,71.7825055489435,21.066604889363873,75.68372867660344,49.15541140851565,5.461712378723973,21.902510368201938,20.286360263831853,20.286360263831853,67.1010377957515,56.177613038303576,79.96650999796164
200,100,200,0,6.673333333333341,52.65850277893507,167.2030513939454,14.018732652730627,23.27319706481545,46.46909588510065,52.63574137619514,55.81790130998015,145.72806409154884,122.45736348533516,95.98282250953207,69.66495182143456,71.21306186191089,14.707045384525088,75.08333696310171,48.7654662750042,2.3221650607144397,20.184885398783223,20.125430526192247,19.35137550595408,68.11684178095831,55.73196145714772,79.1960805416379
201,100,201,0,6.706700000000008,48.05772385602438,170.23689149290078,14.008978446747816,26.345020440585454,46.436762781650785,52.621863098617716,55.77906332651969,144.17317156807297,117.82866947816215,93.59548855175183,71.16351195670387,75.80461056257587,17.790877989175954,70.38999552239187,40.99637101853597,3.8675821715600023,18.628742604036205,18.564394423487954,18.564394423487954,69.6164790880799,55.69318327046392,82.35680004816166
202,100,202,0,6.740066666666674,57.05641824673762,168.01659362226206,13.858357033257562,26.357429079170362,47.8335807934101,52.37643271596515,52.71485815834048,149.86941258732705,123.53136893461844,94.69877306059294,66.21215027000812,73.91123751070671,17.707900653606828,79.30059857919582,50.04406706454108,3.849543620349266,18.541857435849092,20.01762682581642,19.247718101746557,75.45105495884647,60.052880477449236,80.43980410308191
203,100,203,0,6.773433333333341,55.69784042479221,165.03935196787586,12.430533807627844,24.71722223652748,46.357212757404334,52.42181069546427,57.23447579687147,150.0641212407574,125.35273975149822,97.13453158277201,70.92362623503988,75.54908011993382,16.18908859712866,76.31998910074947,47.02544782975474,3.8545449040782387,20.279449066430256,20.043633501206955,19.272724520391307,74.0072621583025,60.13090050362078,77.47539372402365
204,100,204,0,6.806800000000008,52.524516516991774,163.23525519459469,12.406685664683732,24.669801919894237,46.2682758337421,50.78237879717585,55.93073281641484,145.46907619003028,120.82745868568675,93.87045777659785,66.17097843268374,72.32641828688685,13.849739671957082,75.4041382139884,49.2435188336251,1.5388599635508058,14.1875878475046,13.849739671957082,13.849739671957025,78.48185814108999,60.01553857848057,86.66938006063452
205,100,205,0,6.840166666666675,41.68312237304177,160.61248558854177,10.79859141561878,22.958120264034466,47.440118334975416,52.01290393956318,53.798231293006396,129.18654185896582,106.26604064428695,84.75690511144018,59.558906294525514,68.72181495522176,10.69006010414563,64.14036062487367,38.178786086234254,1.5271514434493838,13.82894448469654,13.74436299104434,13.74436299104434,64.14036062487367,48.86884619037994,65.82713623593555
206,100,206,0,6.8735333333333415,43.19586036810905,161.24515496597098,9.330531792422713,23.21257265819035,46.12004795671202,50.642925294190356,54.23261445466405,129.95021671212945,106.73772143188451,84.36614877321074,61.357199107789654,69.02684899626331,11.504474832710514,63.65809407433176,37.58128445352122,2.300894966542103,13.805369799252674,12.366938848016833,12.27143982155792,65.95898904087389,52.153619241621215,70.7106781186548
207,100,207,0,6.906900000000008,22.172322215472136,150.91030445323398,7.011503921604219,22.172322215472118,42.447114300549735,45.57477549042765,47.26918615947856,98.22363766616645,76.05138841007668,64.28061751217518,53.30587793692581,64.2806175121753,11.7586495449101,38.411588513372976,13.326469484231438,5.487369787624743,9.536676381158326,9.915763938564954,9.40691963592809,81.52663684471011,58.009337754889884,81.19430527593855
208,100,208,0,6.940266666666675,12.991295285667723,150.19519862055597,8.03312771771899,19.165884010517207,41.08208285851759,42.56566550560268,47.49850487712968,87.56024175263057,68.39961781593533,61.441612481748905,50.41363075425551,63.017038442819455,9.452555766422904,29.933093260339206,6.301703844281974,1.5754259610705503,11.139943803302733,9.96386864388495,10.240268746958122,83.49757593673567,58.29076055960792,92.46824413341699
209,100,209,0,6.973633333333342,13.316520944225468,148.46659005866397,7.947234361289385,20.49993093875222,40.64281709431766,45.30620658122812,46.86121683714512,88.16664919310239,67.66826223948179,60.78465463096467,52.991750191097424,63.901816406911564,11.689356659800865,28.833746427508913,5.45503310790707,3.8964522199336216,9.480477425803821,9.480477425803821,9.351485327840692,81.04620617461956,54.55033107907087,83.78731390126526
210,100,210,0,7.0070000000000086,3.517443606762615,148.275998492825,9.568481096704348,19.136962193408824,39.45185823843816,42.50143281003921,49.16877893061814,79.91644259919923,60.7815883692516,58.98932258807463,51.910603877505764,62.92194409394631,8.651767312917627,21.23615613170682,0.7865243011742677,0.7865243011742677,12.682323282735657,12.682323282735643,12.58438881878925,86.51767312917619,56.62974968455168,84.56507971062642
211,100,211,0,7.040366666666675,4.444684518764754,148.1237379220157,8.012768967833663,19.11731096990174,42.54494183433787,44.028184254531226,49.3440059489858,80.12768967833682,61.02343040872861,58.14303142388849,51.85729829698164,62.85733126906871,8.642883049496959,21.214349303310655,0.7857166408633702,2.3571499225901107,12.669300151535461,12.669300151535461,11.785749612950383,81.71453064978928,53.42873157870838,86.30016290655479
212,100,212,0,7.073733333333342,7.762849842985543,149.33754012427235,6.401409971687766,18.88782886129749,40.486071494094595,41.948130594752534,46.989293810067856,79.16584566094771,60.29091182876186,55.89251886949569,48.129669026510214,57.44508883809283,6.210279874388448,24.841119497553677,3.105139937194167,0.0,10.97832753061595,12.517219259097635,12.420559748776839,80.73363836704937,51.23480896370441,82.21294128493692
213,100,213,0,7.107100000000009,7.021380842489442,149.55706014740977,9.550110445972173,22.479386926395694,42.41983375895843,45.557887507820595,49.07437915540406,87.76726053111884,65.30261666198065,61.23111095291296,48.67088306513591,59.661082466940854,5.495099700902529,32.18558396242861,7.065128186874517,2.3550427289580966,14.474947425636262,14.217212618324378,14.130256373749148,84.78153824249492,53.38096852305236,84.40272211929984
214,100,214,0,7.140466666666676,14.39796071563059,143.97960715630668,9.499317060558965,18.99863412111793,40.633651898903466,43.7548651578639,50.36260560464863,93.20484294427057,74.20847215878894,66.37131945605677,53.09705556484539,62.467124193935774,7.808390524241986,34.356918306664625,12.493424838787064,0.0,14.397960715630646,14.141596701198726,14.055102943635518,84.33061766181325,54.65873366969379,82.6952426858323
215,100,215,0,7.173833333333342,14.42525169731536,146.04873301678637,6.4511686775482735,17.49318718357402,42.360972719369535,45.37450859529554,52.010984656144416,90.28925166621897,72.80192905810355,64.93248643809528,50.06842327756743,62.585529096959306,4.693914682271952,32.857402775903665,12.517105819391873,1.564638227423984,14.42525169731536,14.168401751176816,14.081744046815857,81.36118782604714,50.06842327756749,81.31604150545671
216,100,216,0,7.207200000000009,17.49318718357402,141.1300211867806,7.97812085334812,20.57960280010158,40.80077318197778,42.27419699276405,53.76985750760496,99.806259988406,79.22695182123955,69.62640112036723,56.32697618726337,65.71480555180727,7.82319113711992,37.55131745817562,14.081744046815857,0.0,15.95624170669624,15.64638227423984,14.864063160527849,79.79654959862316,51.633061504991474,82.57080840021698
217,100,217,0,7.240566666666676,20.57960280010158,138.12308661374968,7.97812085334812,20.57960280010158,39.14723594304594,42.24523214044757,50.28796918295772,99.36376700133455,78.79316783179206,68.06176289294325,51.63306150499142,62.585529096959306,7.040872023407928,41.46291302673558,17.993339615375817,0.782319113711992,15.7244195776621,14.168401751176816,14.081744046815857,82.92582605347113,53.19769973241546,85.92699129303227
218,100,218,0,7.273933333333343,20.775146316030117,137.34848977708396,7.940004781564023,20.481282201549913,37.50145230014923,42.072228840511954,51.7624982692921,100.86763302763896,80.38642163297214,69.29375575788652,54.50070677586575,63.84368508029979,7.785815253695091,40.48623931921463,17.128793558129246,1.1368683772161603e-13,15.880009563127869,15.571630507390182,15.571630507390182,79.41531558769,49.82921762364862,82.76435141779253
219,100,219,0,7.3073000000000095,24.14286561133827,145.62039505737363,6.5073677240157135,22.32008715341446,39.58277256251479,41.06532105639037,52.46407585397365,105.35459436181448,83.03552409070763,70.23294817370078,53.66112894170402,64.7090084297019,7.102208242284405,44.98065220113415,21.306624726852988,0.7891342491427622,17.432545345616354,17.360953481139518,17.360953481139518,85.2264989074122,59.97420293484561,83.03552409070768
220,100,220,0,7.340666666666676,25.45932053652188,133.0890043498738,8.050944057570986,22.329301242664652,34.87948355874873,39.50456659900381,52.48573386426824,108.30286584856735,85.9750592517242,72.63032150808874,55.26220114745877,66.31464137695059,8.684060180314987,46.578140967143895,22.89434047537577,0.7894600163922405,16.10188811514189,15.867949945180719,14.999740311453081,85.26168177036507,56.84112118024342,77.10886784786219
221,100,221,0,7.374033333333343,24.152832172712824,132.96719230220546,8.05094405757085,22.161198717034242,39.59911296462234,42.660070124739285,52.485733864268305,106.73779699606156,84.63070290446653,71.84086149169644,58.4200412130279,67.89356140973513,11.052440229491822,42.630840885182465,15.789200327845265,3.1578400655691894,19.208391227518103,17.368120360629916,17.368120360629916,85.26168177036507,55.26220114745888,80.50944057570929
222,100,222,0,7.40740000000001,27.044002721497986,136.61942341712904,7.988210726739797,22.155310288054984,37.72913389522721,40.762158491112594,50.52188065177277,107.6757197372513,85.52064564772608,71.28107415508975,56.39821251831279,65.79791460469824,10.966319100783153,45.431893417529636,20.36602118716837,1.5666170143975933,18.86456694761366,17.232787158373355,17.232787158373355,84.59731877746913,56.39821251831279,80.87446963051397
223,100,223,0,7.440766666666676,23.902894718627003,132.91685436577265,9.608013828850233,22.170009056471738,38.04054708963694,41.06824133044995,50.93888413467915,106.58143975195328,84.44304192347282,71.86942232828738,56.86371876523839,64.76145748263258,10.267060332612573,45.0171106891471,19.744346793485533,0.7897738717394986,17.659880640625452,17.446675070607302,16.58525130652788,82.13648266089993,56.863718765238445,80.24662199626259
224,100,224,0,7.474133333333343,25.479178054973783,139.13411559479957,9.993755853278108,25.331756308099354,38.05508852698287,44.27245122621999,50.78657209458617,111.33061962648448,86.04211725993142,72.68697101479648,56.885455576797256,61.62591020819701,8.69083349089965,51.35492517349746,22.912197385098807,0.7900757718998648,19.027544263491432,17.453344263135953,18.171742753699164,85.32818336519588,60.04575866439711,78.45257479449063
225,100,225,0,7.50750000000001,31.340652070674054,131.2093073151656,9.86159905202372,25.142243000748607,39.10593447858928,43.65916012605328,50.284486001497314,116.4337079169297,91.29305747672419,74.84427450180578,57.692461595141936,65.48874018908009,11.694417890907062,53.794322298172915,27.28697507878337,2.338883578181367,15.901350673558445,14.033301469088599,14.812929328482426,79.5220416581686,53.01469443877909,82.56697053899707
226,100,226,0,7.540866666666677,33.034396646377125,128.56309584997496,9.52548803034588,22.146309828204313,39.18082173833706,43.84745640178846,53.61053971543254,118.29115090683909,96.15171805682188,79.08201958179694,61.07324284534815,67.3371651884608,10.961864100447087,53.24333991645733,28.18765054400683,3.131961171556327,15.737910112160513,15.737910112160513,15.659805857781635,76.73304870312973,50.11137874490106,80.17147688663587
227,100,227,0,7.574233333333344,20.98302998484309,129.05133671198453,9.946910167245024,25.359744521368313,40.921593263684876,44.036848533412694,52.28045265014017,108.33687608543333,82.99860630193557,71.55987886679566,62.90978361916109,67.62801739059807,13.368329019071666,41.67773164769426,13.36832901907178,5.5046060666765015,16.03891071350005,15.805887518104878,15.727445904790272,80.20997411443034,53.47331607628689,79.90099771905194
228,100,228,0,7.60760000000001,36.580668398573955,139.57861760002658,8.079318072184858,22.239301629160177,41.22706010447506,47.534539046069426,53.14523029306462,119.88801720909365,97.69989306049746,78.43198942601458,61.79490075989014,68.13283929936614,12.675877078951771,53.87247758554531,28.520723427641656,6.337938539475886,15.923873504010427,15.923873504010416,15.052604031255271,80.808716378318,55.45696222041431,85.17986618334588
229,100,229,0,7.640966666666677,28.349168322255096,141.0961246310867,9.521475685748717,22.136981316499494,43.94065328053007,46.95962881168987,52.80493735326344,112.71397890833077,90.58597736713422,75.13540609870387,56.35155457402794,64.17815937597624,8.609265282143156,50.872931212664184,25.827795846429467,0.7826604801948633,15.963204244125395,15.653209603896642,15.653209603896642,76.7007270590936,51.655591692858934,76.74863008888612
230,100,230,0,7.674333333333344,28.595457998369096,142.32192845154825,8.050944057570874,20.767450621046454,44.32239743406849,48.97198084691955,54.512771495811556,111.8807182114511,91.11339969983185,75.7881615736577,58.420041213027844,66.31464137695059,8.684060180314873,48.15706099992849,22.894340475375884,2.3683800491767215,17.652862621712174,15.86794994518074,14.999740311453081,75.78816157365779,50.52544104910521,77.41540080441162
231,100,231,0,7.707700000000011,23.712128111279164,146.13777581600212,6.46066544243145,20.60989803170208,42.42333230384849,45.549241147793815,52.29924109580766,103.04949015851045,82.43959212680836,69.72889813976758,50.14212899938343,61.11071971799856,3.917353828076898,46.22477517130653,21.153710671614817,2.350412296846116,15.979730888808962,15.747567494437554,16.4528860779227,81.48095962399805,54.842953593075606,79.6061817479347
232,100,232,0,7.741066666666677,25.569835736947883,145.19813384639266,4.9671239908189815,20.65989227476591,41.110266001348364,44.00883068320851,50.65492431124182,101.74726425106063,81.0874434006598,67.5419284952493,47.12227569435993,61.25895840266787,3.926856307863318,46.336904432787264,22.775766585607357,0.7853712615726636,16.399033388216825,15.785766990416196,15.707425231453328,80.10786868041191,51.834503263795966,84.71822769224673
233,100,233,0,7.774433333333344,27.004046301896345,148.9719206791041,6.504583520067836,19.192249970620786,42.71171609624829,45.85887413015949,49.53743223697759,102.19102930727843,82.99999700144527,68.62530548936894,47.32779688922,61.52613595598592,5.5215763037424495,46.53900027439954,24.452695059430198,0.7887966148203986,16.470556863830595,14.285714285714272,14.987135681586267,82.03484794131458,55.215763037423244,83.53799325202527
234,100,234,0,7.807800000000011,10.151989981107528,144.60796149235185,9.76387131384225,24.290638233700403,41.765291717613934,43.339605016738005,49.86373909373679,93.77548715784181,69.48738656770311,64.20682224701932,48.155116685264375,54.57579890996635,1.6051705561754943,41.73443446056251,16.05170556175483,6.420682224701977,16.369591977166692,16.131764440249036,16.05170556175483,83.46886892112502,54.57579890996635,86.57510868850548
235,100,235,0,7.841166666666678,12.820014846937852,141.16577013189007,8.171188233635705,24.09088534614484,41.69585420740567,46.47255382014987,48.73819121801303,93.61957931956202,69.57516074964703,62.49757237882238,46.47255382014987,52.88256124361885,1.6025018558672173,43.267550108415435,16.0250185586724,4.807505567601652,19.49527648720516,17.700211528766214,18.428771342473226,81.7275946492291,52.88256124361885,81.71188233635698
236,100,236,0,7.874533333333344,12.845772977116264,140.3571123969025,11.266488203777435,28.724021600361866,39.86490474969312,44.641460283014034,46.45292089394953,99.24746596361207,70.55736621931428,63.73288167239389,44.613017170675676,50.986305337915155,1.59332204180987,50.98630533791504,19.119864501718098,7.966610209049236,17.813881977677934,17.5988171684317,17.52654245990834,82.85274617411199,55.766271463344594,85.65495387057558
237,100,237,0,7.907900000000011,0.0,129.6193242500436,6.573451817218207,22.54675372310757,35.21915519172962,36.70345588829118,51.63649642062968,80.72871388938994,58.18635277262281,57.394664824868755,41.451702373516355,52.61177608946298,3.9857406128381854,32.683073025272506,7.1743331031086655,8.768629348243962,19.395450924207566,19.131554941622937,19.131554941622994,79.71481225676212,52.61177608946298,84.42246484423161
238,100,238,0,7.941266666666678,1.5765880729729815,124.79966858223311,7.882940364865249,23.85810677676597,36.29578315005326,37.83811375135349,53.18502500887789,83.20143878489691,59.368537725890015,59.12205273648988,44.14446604324576,52.02740640811112,3.941470182432681,33.89664356892081,7.094646328378758,10.247822474324948,19.501317458870812,17.41398444137906,18.130762839190254,74.099639429734,47.29764218919195,76.99498318163732
239,100,239,0,7.974633333333345,5.002188936594469,133.10899012781314,8.065787302502354,19.04776798688298,37.99688530499929,37.99688530499929,52.796202601446645,75.41536011963504,56.46051111751643,57.73683269038918,41.127606847948414,49.03676201101541,7.118239646760344,29.263874103347916,7.118239646760344,13.44556377721392,20.805738845876345,19.047767986882914,18.981972391360785,75.92788956544314,49.036762011015355,78.80630767815236
240,100,240,0,8.008000000000012,2.258607713734303,134.1924740066551,9.714639102097099,22.416041516003762,36.73276709970082,38.329843930122706,52.92087049258116,86.77287476799,64.38022525348046,63.084534801660425,47.91230491265344,51.10645857349698,3.19415366084354,36.732767099700936,11.179537812952503,9.582460982530733,19.42927820419414,19.23135170312169,18.366383549850468,76.65968786024547,49.50938174307521,79.56584836746447
241,100,241,0,8.041366666666677,20.784768633782544,140.4273157515309,5.041046851830099,19.393294453566046,38.29205203442781,39.852974608510635,48.24679520953544,93.334271158091,73.95062814862872,62.96769988144683,44.635331561531984,51.011807498893745,0.0,44.635331561531984,23.911784765106404,4.782356953021349,19.39329445356601,17.5353088277447,17.535308827744757,76.51771124834045,49.41768851455322,82.55628099533735
242,100,242,0,8.074733333333343,19.054175682233222,137.70196651911087,6.524250458098575,19.25027871138179,33.267280397411305,36.394352743215904,47.70765891919817,92.44305901107225,73.2174328685532,63.294526509940624,45.888531719706975,49.053258045204075,0.0,44.306168556958596,23.735447441227848,4.747089488245592,19.25027871138171,17.405994790233706,18.19717637160801,75.95343181192885,50.63562120795257,80.38965527070901
243,100,243,0,8.10810000000001,14.453919485851806,139.60878966230032,6.46398930233475,19.07247375870936,37.658591702529,42.32918751308773,50.558343704677554,90.46868653697165,71.39709545552316,63.49378126963154,45.46468288442759,50.16792594143726,2.3516215285047792,41.54531367025265,19.59684607087388,5.4871168998446365,19.391967907004087,17.316339172084064,17.2452245423691,76.81963659782588,51.735673627107246,79.64713724979843
244,100,244,0,8.141466666666675,4.9194128883483055,133.93095941817822,11.000141627735152,25.0841823131074,38.922474358582534,42.031482142810454,45.77962391915897,86.69898243563223,61.64006681590566,58.337060542379845,45.11399348610712,51.336613277294305,3.1113098955935357,37.335718747123224,10.889584634577659,6.222619791187299,20.75502571320089,17.112204425764787,17.8900318996632,76.22709244204304,52.89226822509107,79.03278331905439
245,100,245,0,8.174833333333341,5.016132429550371,138.23063085968948,6.540236519907987,22.432826193231737,41.27274250747447,42.85785426508722,51.64424423286132,85.55410537095204,63.15149365850146,59.48401320904998,46.00097021499869,53.93217197620538,0.7931201761206239,34.10416757318865,10.31056228956868,5.551841232844595,19.620709559723934,19.034884226895997,19.034884226895997,76.13953690758399,53.932171976205325,82.14826216373109
246,100,246,0,8.208200000000007,8.025164391557691,141.78761021324289,6.489208437255827,22.257801313683903,37.80551600278137,40.92046983234286,47.867211657379485,84.60892650403838,62.361577086035375,57.446044187712005,40.92046983234275,47.21592672962629,3.1477284486418284,39.346605608021946,15.738642243208801,7.869321121604457,19.14688466295179,18.886370691850516,18.886370691850516,70.82389009443943,47.21592672962629,79.6941189905197
247,100,247,0,8.241566666666673,25.33860030307081,147.71472848231144,4.714299845180221,22.05611715844221,40.88747402796791,44.028184254531226,47.79327742475422,99.7952930759659,77.78197907838346,64.42876455079545,44.000131888348164,44.000131888348164,3.1428665634533672,55.00016486043512,29.857232352807614,6.285733126906848,19.117310969901666,18.8571993807206,18.8571993807206,70.71449767770224,48.714431733528215,79.57102588924438
248,100,248,0,8.274933333333339,31.434653787272634,145.58019021084928,3.1278649579711555,23.511060472353705,39.223227027636746,43.79010941159618,44.482814684439816,102.4226532665729,78.95923221642552,62.55729915942311,42.226176932610656,48.48190684855297,1.5639324789856346,56.3015692434808,29.71471710072592,1.563932478985521,19.02605976617976,17.203257268841355,18.767189747826933,70.376961554351,48.48190684855291,80.99298136537062
249,100,249,0,8.308300000000004,31.84089134145533,144.73024149730531,7.9502911748085126,25.490572649047373,42.93157234396563,46.111688813889145,37.79525277957224,102.55567460052664,77.13011768051453,60.422212928544354,39.751455874042335,42.93157234396574,4.7701747048851075,60.422212928544354,31.801164699233937,1.5900582349617025,19.34389330523422,19.14683662207876,18.285669702059465,69.96256233831451,47.70174704885085,80.51411819439002
250,100,250,0,8.34166666666667,29.959887225237804,141.79781515189063,3.5210394516019883,22.10136017302205,39.39789837327733,42.515731252298565,46.097386104886155,101.37903580899808,79.29768587651654,63.77359687844785,44.090387965346736,48.81435810449102,0.7873283565240854,54.32565660015928,29.13114919138968,0.7873283565239717,19.156525704423004,17.392651873753678,18.10855220005311,72.43420880021245,48.814358104490964,76.900662396462
251,100,251,0,8.375033333333336,15.949672122130796,141.39018507035624,6.543581764863675,22.444300288768712,42.87977549383105,44.43744741289174,50.437291838824606,95.24954878789828,72.8316679797605,63.48206773270249,44.43744741289174,50.78565418616199,1.5870516933175622,46.02449910620919,20.63167201312831,4.761155079952687,19.30731714751682,17.52955890563078,18.25109447315191,71.41732619929024,49.19860249284443,80.1264663762304
252,100,252,0,8.408400000000002,3.19415366084354,137.4321499824913,6.584916464055732,21.00626600785401,41.52399759096636,43.15063978270964,49.919829236665755,80.63261171130723,59.628954684486125,57.49476589518417,44.7181512518099,49.50938174307521,2.395615245632598,32.740075023646455,8.783922567319792,5.589768906476252,19.429278204194084,17.567845134639583,17.567845134639583,71.86845736898016,51.10645857349704,77.47057382349449
253,100,253,0,8.441766666666668,3.5450741296044694,133.3249547030216,9.512432086885838,23.83386847354997,42.80594439098638,44.4196515266543,48.50407683275724,84.97831820994767,61.25904508314816,58.659997869129484,44.39134973880073,50.73297113005799,0.0,36.46432299972912,9.512432086885838,6.341621391257149,19.287288490038605,17.439458825957445,17.439458825957445,71.34324065164407,50.73297113005799,80.04334630637692
254,100,254,0,8.475133333333334,6.382561136549157,129.24686301511883,6.382561136549043,25.72892648856598,39.891007103431775,41.48664738756895,51.457852977132056,89.8672767513249,64.14394556651833,60.63433079721631,51.060489092392686,51.060489092392686,0.0,38.295366819294486,9.573841704823622,4.786920852411868,20.987371191518164,17.552043125509954,18.3498632675786,70.20817250203987,51.06048909239263,80.35439151591652
255,100,255,0,8.5085,5.00387167983294,125.09679199582544,9.62513935569094,26.946673669653816,36.394352743215904,39.559079068713004,52.43331717856684,93.84093973273191,66.92853738813679,64.08570809131493,50.63562120795257,55.38271069619816,0.7911815813743033,40.35026065008719,10.285360557865374,5.538271069619782,20.812737925041592,18.9883579529822,19.779539534356445,71.20634232368332,53.80034753344961,78.11490854371434
256,100,256,0,8.541866666666666,14.279385385816143,129.31494905625215,8.04061490634337,23.862741128663195,33.11478071089721,37.87830138828634,43.300036421361455,89.43924390935017,65.58818912342745,57.556642664178526,36.26856935003036,37.845463669596825,5.519130118482849,51.24906538591233,24.441861953281318,10.249813077182466,20.740806523591356,18.98832208982074,19.711178994581644,72.53713870006061,55.19130118482872,76.49156600911014
257,100,257,0,8.575233333333331,12.801569371654065,125.47949351103341,11.114874815369149,23.870458186851053,34.968532340459824,38.240233234486944,45.46879678490636,92.96659875603673,69.17587157829178,61.92573111419961,47.635177780153526,44.459499261476594,1.587839259338466,46.04733852081506,20.64191037139983,4.763517778015398,19.640486948264833,20.64191037139983,19.847990741730598,74.62844518890716,57.16221333618421,76.80941622992427
258,100,258,0,8.608599999999997,8.072228062168437,125.10451130469295,9.4985650170388,25.378930186830683,34.864032576852324,36.71959540142927,51.541811944254704,94.25727263753976,68.96914679622465,64.11531386501213,50.65901342420716,47.49282508519423,1.5830941695064666,44.32663674618118,18.9971300340776,7.915470847532333,20.822352817774803,19.062978169246815,19.78867711883089,72.8223317972978,56.99139010223308,75.00926709870258
259,100,259,0,8.641966666666663,11.332945501389952,134.638063594615,6.6081860045509675,22.495254515689787,35.25985150534211,38.59862152143187,48.74484171831239,89.07724001057365,66.6623853407355,60.10201961137864,44.8761746431627,46.478895166132816,2.404080784455232,42.472093858707694,18.431286014156285,5.609521830395465,21.08049719365441,20.83536679861129,21.63672706009629,72.12242353365451,56.095218303953516,74.57388153256333
260,100,260,0,8.67533333333333,12.720465879693506,133.65004628272104,7.9502911748085126,23.903816705051668,38.1945094870794,39.87845765407952,47.08827998695049,91.31420786765983,67.46045762537551,60.42221292854424,44.52163057892733,39.751455874042335,3.9751455874041994,48.49677616633164,24.64590264190622,8.745320292289307,20.91395079769777,19.14683662207878,19.080698819540316,73.14267880823792,58.83215469358265,78.49478332614123
261,100,261,0,8.708699999999995,16.092164525569768,153.85147885643198,3.202460434783916,19.214762608703722,40.15864954797518,41.908205320987804,44.28783952681831,82.42837044420007,63.44590600086016,54.44182739132725,33.62583456523157,27.220913695663626,12.809841739135777,51.23936695654322,32.0246043478395,11.20861152174382,21.36307564977173,20.815992826095737,20.815992826095737,68.85289934785504,54.44182739132725,79.25685214710745
262,100,262,0,8.74206666666666,8.626967772102383,152.2225536195591,6.4079507915323575,22.484968825445154,40.049692447077064,44.96993765089031,44.308790402008015,81.38665118887431,59.07838720267738,53.66658787908318,33.641741655544706,36.845717051310885,8.009938489415276,44.85565554072616,20.82584007247999,11.213913885181455,21.37318170001922,19.29048637812084,19.22385237459696,70.48745870685565,56.0695694259079,80.49888555145397
263,100,263,0,8.775433333333327,2.254424687690634,143.47956453389494,8.128443808140604,23.96486315398044,41.47773839821547,43.15913392851996,42.20653919359436,76.00120038039621,52.218043392870186,50.214748006723426,35.0706176554894,36.66473663982981,5.579416445191441,39.05591511634043,13.550011366893614,10.36177339821279,22.544246876906563,22.317665780765992,22.317665780765992,70.1412353109788,55.79416445191498,80.10348758944428
264,100,264,0,8.808799999999993,3.5487554700642177,139.66956606002344,6.348206773270249,22.218723706445758,39.70802068053873,41.38524486502704,45.140392770833,75.41418492868499,53.53800745194312,51.57918003282077,38.089240639621494,39.676292332939056,5.554680926611468,35.70866309964504,11.902887699881717,8.728784313246592,22.44430028876877,20.631672013128252,20.631672013128252,69.83027450597268,53.95975757279706,79.92188113362181
265,100,265,0,8.842166666666659,2.2466238252067923,147.81692146467336,9.53161764947447,22.297104818356143,41.30367648105607,44.50924123376,44.31034800205359,77.58174685320611,55.48751529229162,53.21819854289902,34.949264714739684,39.71507353947686,5.560110295526783,38.92077206868737,15.091727945001253,11.914522061843059,22.466238252069232,20.71284823530863,20.65183824052798,68.30992648790027,54.012500013688566,76.66552369650451
266,100,266,0,8.875533333333324,3.5787109433886366,145.64957853645717,8.002240941239165,22.406274635469913,43.24172885517019,44.926721556034586,45.82986156075509,77.88117016926157,55.90125197152839,53.61501430630301,38.41075651794836,40.01120470619617,5.6015686588675635,37.610532423824566,15.204257788354653,10.402913223611108,22.633755336955595,20.805826447222046,20.805826447222103,67.21882390640974,56.01568658867478,79.0076935542282
267,100,267,0,8.90889999999999,4.464017430682891,146.85531831467395,6.313073993141643,20.578103580155645,39.45671245713527,41.06532105639037,45.194731896512785,75.52637305363866,55.12654870631486,52.082860443418554,34.721906962279036,39.45671245713527,7.102208242284405,37.08930970970721,14.993550733711459,10.258745238855226,22.32008715341446,20.51749047771034,21.306624726853045,66.28727692798725,53.661128941703964,74.59719073321267
268,100,268,0,8.942266666666656,2.223286085840889,147.852703758545,6.28840267126327,20.49768490969134,39.30251669539575,40.90483889588994,45.01811211048872,73.40211925583908,53.033645736381935,51.09327170401457,34.58621469194827,39.302516695395866,7.074453005171222,35.37226502585611,13.362855676434492,10.2186543408028,22.232860858409452,20.437308681605828,21.223359015513722,67.60032871608075,53.45142270573825,76.04808474122109
269,100,269,0,8.975633333333322,2.265552729101037,144.18779246646008,6.4079507915323575,19.290486378120963,43.25366784284313,43.372171264483484,47.791887176697465,75.08863423593968,55.955024731348836,53.666587879083295,36.845717051310885,38.44770474919403,8.810932338356906,36.04472320236937,13.616895432006118,10.412920036239939,24.242472847765345,22.427827770363194,22.427827770363194,67.28348331108947,54.46758172802481,77.49382637962101
270,100,270,0,9.008999999999988,3.2182542155862848,141.63975183514248,6.436508431172456,24.190484721928094,40.260347374255346,40.26034737425523,46.07838799489887,79.64772827981324,55.55568142367924,53.101194557173244,38.619050587035076,35.40079637144879,8.045635538965712,41.83730480262136,16.09127107793131,11.263889754551883,22.756493794232384,20.91865240131068,21.72321595520725,65.97421141951833,51.49206744938016,74.64684980307366
271,100,271,0,9.042366666666654,3.1772058831581944,142.98309004163698,5.023603593033209,23.88193884831325,39.74683289964181,41.33421524787581,46.74921345852294,78.6318338822423,54.847077340041416,52.423897072109526,38.12647059789788,36.53786765631878,8.737316178684864,40.50937501026635,16.680330886580236,10.325919120263961,20.894809401784666,20.712848235308613,20.65183824052798,65.13272060474208,50.83529413053043,78.6318338822423
272,100,272,0,9.07573333333332,3.569579379970237,140.48913970627098,4.789093286816865,20.814045649437915,39.90911072347467,43.13139175457504,47.27503278702128,76.1082541740931,55.41477388682486,52.68002615498642,39.909110723474555,41.50547515241351,5.587275501286399,34.32183522218804,11.972733217042332,7.183639930225354,22.576002258954905,20.814045649437965,22.349102005145767,70.24003487331521,57.46911944180334,77.22180891792905
273,100,273,0,9.109099999999986,5.0767308256680845,136.49704501918362,4.816209743009608,20.931897427058658,36.959158289161465,38.563109341206655,49.115894922322454,79.70629073984789,58.876946637549366,55.38641204460953,41.74048443941581,44.95129093475555,4.816209743009495,35.318871448736445,12.843225981358728,6.421612990679364,24.294159494969378,20.931897427058708,21.672943843542782,67.42693640213321,56.18911366844435,77.65904863601887
274,100,274,0,9.142466666666651,2.2979209988198304,139.77707749205976,4.874626562689059,21.185784807965153,40.621888022409394,40.65437254421209,49.71163192925929,77.46754870242134,56.404482555750675,54.43332995002868,42.24676354330586,38.99701250151304,8.124377604481992,35.74726145972045,12.999004167171051,9.749253125378345,24.588828458783798,22.748257292549283,23.560695052997517,68.24477187764785,55.245767710476855,72.1561829920424
275,100,275,0,9.175833333333316,6.648332986733293,143.51778454309635,4.837372789161009,22.63192085371483,43.56620519515958,45.26384170742955,49.040983244988986,83.00633515212898,60.44027959651974,56.43601587354624,41.92389750606287,40.31143990967587,7.2560591837417405,41.11766870786937,16.93080476206387,7.2560591837417405,24.400911161952358,22.63192085371483,23.380635147611997,66.11076145186843,54.82355827715918,76.40054828224949
