,video_id,frame_seq,time_seconds,m1,m3,m4,m5,m6,m7,m8,m9,m10,m11,m12,m13,m14,m15,m16,m17,e1,e2,e3,b1,b2,b3
0,166,0,0.0,13.503499336687613,151.009941598726,17.60640907087738,27.342502204028225,44.58200296376982,48.349316617575326,38.6209523920353,97.01867241732593,69.69689612248897,62.06470367967938,63.019545274751295,38.19366380287954,12.412940735935877,44.87755496838349,20.05167349651174,0.9548415950720255,10.283958708339734,8.540362857301153,6.683891165503894,53.47112932403144,76.3873276057592,61.851333786489036
1,166,1,0.0333666666666666,13.76318752696394,153.32215614510758,16.050496877892247,24.075745316838375,45.439367368350105,47.35816632729899,39.69910267383585,93.52893552837897,69.47342967921273,61.31187235566722,62.285076678773066,40.87458157044489,12.651656200375783,39.90137724733893,16.544473492799057,2.9196129693175408,12.310169158947383,10.48173134188137,8.758838907952395,52.55303344771477,75.9099372022547,58.909015117649886
2,166,2,0.0667333333333332,23.490998164829254,155.6780172054299,17.802462355555008,25.76206160318376,48.88770251424745,50.53774956649078,39.80751599390224,106.8147741333303,81.05383449598551,67.58318540907419,65.65223725452915,46.34275570907948,17.37853339090475,48.27370386362429,23.171377854539628,5.792844463634992,9.845942319760832,9.654740772724926,6.758318540907396,54.066548327259284,79.16887433634395,60.63300194352149
3,166,3,0.1000999999999998,29.05781069920397,162.67342931543837,19.582215185922703,27.49299667388993,48.61543362172669,52.41110128413901,38.25959798890421,114.134507126107,86.6431106405373,70.0870875646599,63.36640793517199,42.24427195678129,16.32165052875655,58.56592248553761,29.763009787732244,4.80048544963438,8.587369432304639,8.587369432304587,6.720679629487904,55.68563121575721,78.72796137400155,62.19176655372366
4,166,4,0.1334666666666664,19.724085747880228,154.01360582433716,15.949044456578001,25.804188954242843,48.96764601558743,52.790812788757,43.63541426522525,105.10223120826936,79.29833505317238,67.69370065514715,65.75959492214292,46.41853759210085,13.538740131029385,46.41853759210085,21.275163063046307,5.8023171990125775,12.232358703765534,12.232358703765499,9.670528665020981,56.089066257121885,79.29833505317231,64.55394794196454
5,166,5,0.166833333333333,23.214153986631914,158.92467389221008,10.417670423017563,23.5343643404096,48.51733500363922,50.44592283479865,38.88322670253308,95.49912215029914,71.9940327996662,59.96989779879914,52.231846469921834,42.55928230882512,8.705307744986953,47.395564389373476,22.246897570522265,2.9017692483289466,9.864118680781978,8.651404392376193,7.7380513288773045,56.10087213436043,75.44600045655369,60.250059759975386
6,166,6,0.2001999999999996,15.802843400064269,151.24567806277616,10.555469545567771,21.914600837330514,43.30005710586986,47.408530200192594,41.20877388109587,88.55234378121428,66.75865107307376,58.803044606453795,52.92274014580846,43.12223271139942,6.860355204086204,40.18208048107681,16.66086263849536,0.9800507434408701,10.555469545567867,10.55546954556791,7.840405947527188,60.76314609333559,78.40405947527171,59.323435676051446
7,166,7,0.2335666666666662,9.9463483461076,144.4658865961506,15.726557587574364,27.378528608660925,42.95837655833785,46.97761756117637,37.266913340982846,89.92003317520891,62.54225682071524,57.54386219311209,46.81534551304037,40.96342732391031,6.827237887318461,45.84002581485197,18.531074265578468,4.87659849094166,10.504514628777827,8.723524579774857,7.802557585506747,56.568542494923804,76.07493645869062,59.03706085250388
8,166,8,0.2669333333333328,24.90976878342201,155.31343640351272,9.77041516198104,23.0733335954941,44.112764850593734,46.02716763642453,34.54363408022312,92.15399356258655,69.08726816044634,56.52601377776534,40.23885726552783,34.49044908473809,2.874204090394869,54.60987771750206,27.78397287381688,2.874204090394869,8.56922096977447,10.318708477410933,8.62261227118455,59.400217868160155,76.6454424105292,57.99280041281024
9,166,9,0.3002999999999994,19.601014868817856,170.54009393773927,15.802843400064269,27.72002106375905,49.00253717204487,51.000318988406306,37.44768632625814,100.44444397222252,72.76175521502641,62.72324758021739,45.08233419828127,43.12223271139942,6.860355204086318,55.86289237613107,24.50126858602232,4.900253717204464,11.922831879986433,12.396770287258242,9.800507434408928,56.842943119572,70.56365352774458,53.248421620651264
10,166,10,0.333666666666666,6.142661426992374,155.84695919737052,21.45539397823424,31.321550481627646,49.17966806483013,49.17966806483034,44.29536148567139,99.88201699565758,68.84167015315992,65.07308336526239,77.69920401822378,50.50448261184545,21.36728110501167,33.022161707745,1.9424801004555547,5.827440301366892,33.079244138781796,32.036202519355285,31.0796816072895,54.38944281275661,73.81424381731256,69.95625730443105
11,166,11,0.3670333333333326,27.582960603570328,167.45803255434615,17.795684283174456,28.13744742804606,51.24626551442769,55.16592120714065,44.3370360744595,117.60070534362579,89.49775513377085,74.67777377161053,62.88654633398778,51.09531889636514,13.75643201055982,58.95613718811353,29.478068594056822,0.0,6.21452251865983,6.21452251865983,5.895613718811319,60.921341761050655,76.6429783445476,63.16229865147586
12,166,12,0.4003999999999992,34.34931833527274,174.24887611624774,20.167171874932343,30.69673898495207,56.75829046142502,60.50151562479746,43.82717745191569,128.69559065870158,98.00054804442941,79.26498984581292,80.2683441476587,56.18784090336112,26.087211847989124,58.19454950705256,28.093920451680447,12.040251622148844,5.675829046142491,6.3457697879212,5.016771509228647,64.21467531812698,80.26834414765875,62.498584284169866
13,166,13,0.4337666666666658,29.933514937292937,161.8961474844301,19.66574823655278,29.611985581520447,53.410657520046385,59.223971163040666,42.73748659619579,121.65348011218398,92.11591409616176,75.33738084440495,76.31578838783878,54.79082243229459,24.4601885858458,53.812414888860644,24.460188585845685,10.762482977772152,5.534708869809073,7.055397132302883,4.89203771716916,60.66126769289747,76.31578838783878,60.944659533605694
14,166,14,0.4671333333333324,19.774543493622268,176.3259744730304,15.63314928247758,21.679277436521442,57.06223036418618,58.974010540707866,45.63989946299138,102.67833114170661,81.00046505773,69.80592679364054,71.74498031568612,46.537284529093654,14.542901415341817,41.68965072397975,20.360061981478452,6.786687327159484,7.994922485119854,8.67171097460847,6.786687327159541,58.17160566136715,79.5011944038684,68.55589472610417
15,166,15,0.5004999999999991,9.837427203884364,174.0418537576814,15.862374739568137,26.249529801904824,55.961041433949795,55.961041433949795,43.68526624752135,94.54171882230504,68.29753836267581,62.95953410486038,76.73193219029872,45.252165137868474,17.707368966992135,31.479767052430134,7.869941763107477,9.837427203884545,11.967746718064943,10.595233354221172,9.837427203884431,55.089592341752905,78.69941763107556,69.56111485295709
16,166,16,0.5338666666666656,9.78407543433832,171.54249563598628,13.836772174522682,23.805682978241652,51.80942794722986,53.732303731381414,47.32904278825897,93.64132047767015,69.84486818701686,64.57489786663291,80.22941856157411,46.963562084823934,16.632928238375143,28.373818759581013,6.848852804036824,10.762482977772152,13.836772174522682,12.37598526856412,11.740890521205984,54.79082243229453,80.22941856157411,73.34794492206987
17,166,17,0.5672333333333321,16.11703643834597,163.67511355044246,12.361202672188584,20.405346807772517,51.7475437541606,53.66812274367468,47.55449617274158,96.24686733792855,75.89818705120867,66.4522436072292,80.13358787930576,46.90746607569122,16.613060901807216,30.294405173883888,10.7496276423459,12.70410539549971,15.757503409241405,14.228812819113767,14.65858314865352,52.770899335152535,80.13358787930571,71.33174425911223
18,166,18,0.6005999999999987,10.64115845956836,169.35023807454644,12.49740681303686,20.630186801449998,52.317733397106515,52.72661710653961,49.55816692654953,92.62003481699266,72.11772594711371,66.19645287796186,82.99256778729546,49.400337968628264,16.796114909333596,24.700168984314132,4.940033796862849,12.844087871843385,17.89356345040327,16.294624910869125,15.808108149961072,51.37635148737343,79.04054074980525,76.01875788823425
19,166,19,0.6339666666666652,9.807221362012388,166.58425072668263,11.930999725437857,22.36390557094775,52.337861125797204,51.9319921363709,47.441007849098206,90.41811334958595,68.0878306208775,62.76621671687951,82.38065944090431,47.074662537659606,17.652998451622352,23.537331268829803,3.922888544805005,13.730109906817347,15.813669283032697,14.279529844789955,14.710832043018627,50.997551082464554,80.41921516850181,75.45826779045447
20,166,20,0.6673333333333318,9.759814081216565,164.30147702633423,9.953096489832106,20.379090095576235,49.76548244916042,52.0848643199681,49.14916786703274,88.07657685269572,67.75869979106562,62.46281011978567,83.93440109846188,46.8471075898392,16.59168393806806,20.49560957055462,4.879907040608259,12.687758305581383,17.996207963337724,16.09629773729855,16.59168393806806,50.75103322232576,81.9824382822186,77.02218711284767
21,166,21,0.7006999999999983,3.855746324142274,164.15248470705262,14.035128472472978,21.981136021017388,49.56546527665908,51.44207217319759,46.907178533656705,83.70167227260025,61.72205685377167,59.764068024206836,80.97067280698991,44.341082727637286,16.386921877605005,18.31479503967637,0.9639365810356821,12.531175553462617,17.774112325737107,17.7741123257371,17.35085845864063,48.19682905177967,79.04279964491866,76.07163731974296
22,166,22,0.7340666666666649,5.653024052983483,160.44588455688492,13.324305473584186,23.308015274608145,50.28049857422085,50.2804985742211,43.99039177197602,81.81166962312115,58.50568864045034,56.53024052983483,77.25799539077423,41.45550972187891,16.016901483453125,19.78558418544219,0.9421706754972092,10.363877430469643,17.372768858209096,15.538676849738746,16.016901483453182,47.10853377486234,79.1423367417687,76.51910936056899
23,166,23,0.7674333333333314,4.314013266538806,167.6259247800108,13.642107778445363,23.863942260122958,53.361397104764876,51.94759876319047,45.0396207861706,85.17308811366006,61.313648673864954,58.84320421088057,77.17141535853182,42.44427844719246,15.434283071706318,23.151424607559534,3.858570767926608,9.646426919816463,17.78713236825498,15.909294840081916,16.398925763688,48.232134599082315,79.10070074249501,74.54634896835756
24,166,24,0.800799999999998,5.7062044123856595,162.39028561309834,11.569828796627423,21.686913471981395,52.22900393899001,52.60860526239065,46.27931518650936,80.74273642616454,59.05607610029685,57.062044123856936,77.98479363593776,39.94343088669984,13.314476962233243,19.020681374619016,0.0,9.510340687309395,17.22395954369719,16.25127729032357,16.16757916842613,49.453771574009295,79.88686177339963,73.17402227109507
