,video_id,frame_seq,time_seconds,m1,m3,m4,m5,m6,m7,m8,m9,m10,m11,m12,m13,m14,m15,m16,m17,e1,e2,e3,b1,b2,b3
0,50,205,6.840166666666675,5.0990195135927845,32.2490309931942,3.0,5.0990195135927845,8.06225774829855,9.055385138137417,8.06225774829855,21.213203435596427,16.1245154965971,13.5,14.0,10.0,4.0,9.0,4.0,2.0,3.0,3.0,3.0,8.0,13.0,10.198039027185569
1,50,206,6.8735333333333415,3.1622776601683795,30.14962686336267,4.0,6.0,8.06225774829855,9.055385138137417,6.324555320336759,19.235384061671343,13.341664064126334,11.5,14.0,11.0,6.5,6.5,0.5,3.5,4.0,4.0,4.0,9.0,12.0,11.045361017187261
2,50,207,6.906900000000008,3.0,29.068883707497267,3.1622776601683795,5.0990195135927845,8.0,9.0,6.082762530298219,17.26267650163207,12.165525060596439,10.5,12.0,10.0,5.0,6.0,0.0,2.0,3.0,4.0,4.0,8.0,10.0,11.0
3,50,208,6.940266666666675,2.0,28.071337695236398,3.0,6.082762530298219,8.06225774829855,8.06225774829855,6.324555320336759,17.26267650163207,11.180339887498949,10.0,11.0,9.0,4.0,7.0,1.0,2.0,4.0,4.0,4.0,9.0,10.0,10.0
4,50,209,6.973633333333342,2.0,27.073972741361768,3.0,5.0990195135927845,8.06225774829855,8.06225774829855,6.324555320336759,16.278820596099706,11.180339887498949,10.0,11.0,9.0,4.0,6.0,0.0,2.0,3.1622776601683795,3.0,3.0,9.0,9.0,9.055385138137417
5,50,210,7.0070000000000086,2.0,27.073972741361768,3.0,5.0,8.0,8.06225774829855,5.385164807134504,15.132745950421556,10.198039027185569,9.0,11.0,9.0,5.0,5.0,1.0,2.0,3.0,2.0,2.5,7.0,8.0,7.0710678118654755
6,50,211,7.040366666666675,2.0,25.019992006393608,3.0,4.0,7.0,7.0,5.0990195135927845,14.035668847618199,10.04987562112089,9.0,10.0,9.0,4.5,4.5,0.5,1.5,3.0,3.0,3.0,7.0,8.0,8.06225774829855
7,50,212,7.073733333333342,2.0,24.020824298928627,2.0,4.0,7.0,7.0,6.324555320336759,14.142135623730951,10.198039027185569,9.0,10.0,9.0,3.5,4.5,0.5,1.5,3.1622776601683795,3.0,3.0,7.0,8.0,8.0
8,50,213,7.107100000000009,2.0,24.020824298928627,3.0,4.123105625617661,7.0710678118654755,7.0,5.385164807134504,14.317821063276353,10.198039027185569,9.0,10.0,9.0,4.5,4.5,0.5,2.5,2.0,3.0,3.0,7.0,8.0,7.0710678118654755
9,50,214,7.140466666666676,2.0,24.020824298928627,3.0,4.123105625617661,6.082762530298219,7.0,5.385164807134504,14.317821063276353,10.198039027185569,9.0,10.0,9.0,4.5,4.5,0.5,2.5,3.0,3.0,3.0,7.0,8.0,7.0
10,50,215,7.173833333333342,2.0,23.08679276123039,2.0,4.123105625617661,6.0,7.0,5.385164807134504,13.341664064126334,9.219544457292887,8.0,10.0,8.0,4.0,4.0,0.0,2.0,3.1622776601683795,2.0,2.0,7.0,8.0,7.0
11,50,216,7.207200000000009,2.0,23.021728866442675,2.23606797749979,4.0,6.0,6.0,4.123105625617661,12.165525060596439,8.246211251235321,7.0,9.0,8.0,4.5,3.5,0.5,2.5,2.23606797749979,3.0,3.0,7.0,7.0,8.0
12,50,217,7.240566666666676,1.4142135623730951,22.02271554554524,3.1622776601683795,4.123105625617661,6.082762530298219,6.0,3.1622776601683795,11.180339887498949,7.0710678118654755,6.5,8.0,7.0,4.5,3.5,0.5,2.5,2.0,2.0,2.0,7.0,7.0,6.0
13,50,218,7.273933333333343,2.23606797749979,20.09975124224178,2.0,4.0,6.0,6.082762530298219,4.123105625617661,12.165525060596439,8.246211251235321,7.0,9.0,7.0,4.0,4.0,0.0,2.0,2.0,2.0,2.5,6.0,6.0,6.0
14,50,219,7.3073000000000095,2.0,20.024984394500787,2.0,4.123105625617661,6.0,6.0,4.123105625617661,12.165525060596439,8.06225774829855,7.0,9.0,8.0,4.5,3.5,0.5,2.5,3.1622776601683795,2.0,2.0,6.0,6.0,6.0
15,50,220,7.340666666666676,0.0,16.0312195418814,2.0,4.123105625617661,4.123105625617661,5.0990195135927845,6.324555320336759,12.36931687685298,8.246211251235321,8.0,11.0,10.0,4.5,1.5,2.5,3.5,2.0,2.23606797749979,2.0,6.0,6.0,6.0
16,50,354,11.811799999999922,4.123105625617661,40.311288741492746,5.0,9.055385138137417,11.180339887498949,12.041594578792296,10.198039027185569,28.284271247461902,19.235384061671343,17.0,14.0,9.0,1.5,16.5,7.5,1.5,1.0,2.8284271247461903,2.0,12.0,20.0,18.24828759089466
17,50,355,11.845166666666588,5.0990195135927845,37.33630940518894,4.123105625617661,9.055385138137417,10.04987562112089,10.04987562112089,10.198039027185569,28.442925306655784,19.4164878389476,16.5,14.0,9.0,1.5,16.5,7.5,1.5,2.23606797749979,2.23606797749979,1.0,11.0,19.0,18.24828759089466
18,50,356,11.878533333333252,6.0,38.2099463490856,3.1622776601683795,7.0710678118654755,9.055385138137417,11.045361017187261,10.198039027185569,26.30589287593181,19.235384061671343,16.0,12.0,8.0,0.0,16.0,8.0,2.0,1.0,2.23606797749979,1.5,11.0,19.0,18.110770276274835
19,50,357,11.91189999999992,4.123105625617661,35.22782990761707,4.0,8.06225774829855,9.055385138137417,11.045361017187261,10.198039027185569,26.30589287593181,18.24828759089466,16.0,13.0,9.0,1.0,15.0,7.0,2.0,2.23606797749979,2.23606797749979,2.0,10.0,18.0,18.110770276274835
20,50,357,11.91189999999992,5.0,29.614185789921695,3.1622776601683795,5.0990195135927845,7.280109889280518,8.246211251235321,7.0,20.09975124224178,15.033296378372908,12.5,6.0,12.0,2.0,11.0,5.0,1.0,2.8284271247461903,2.0,2.0,16.0,8.0,16.1245154965971
21,50,358,11.945266666666583,4.0,32.38826948140329,4.123105625617661,7.0710678118654755,8.06225774829855,9.055385138137417,10.198039027185569,25.317977802344327,18.24828759089466,16.0,14.0,9.0,1.5,13.5,5.5,1.5,2.0,2.8284271247461903,2.0,10.0,17.0,17.11724276862369
22,50,358,11.945266666666583,5.0990195135927845,28.442925306655784,2.0,5.0,8.246211251235321,8.246211251235321,7.0710678118654755,19.1049731745428,14.142135623730951,11.5,5.0,10.0,0.5,11.5,5.5,1.5,2.23606797749979,2.0,2.0,16.0,8.0,14.142135623730951
23,50,359,11.978633333333253,4.123105625617661,34.23448553724738,3.0,7.0710678118654755,8.06225774829855,9.0,10.198039027185569,24.331050121192877,17.26267650163207,15.0,12.0,8.0,0.0,14.0,6.0,2.0,1.0,2.8284271247461903,2.0,10.0,17.0,16.1245154965971
24,50,359,11.978633333333253,5.0990195135927845,26.68332812825267,3.0,4.123105625617661,7.280109889280518,7.280109889280518,6.0,18.110770276274835,14.035668847618199,11.5,5.0,11.0,2.0,10.0,5.0,1.0,2.8284271247461903,2.0,2.0,16.0,8.0,14.142135623730951
25,50,360,12.011999999999915,3.0,30.265491900843113,4.123105625617661,7.0710678118654755,8.06225774829855,8.0,9.219544457292887,23.345235059857504,16.278820596099706,14.5,13.0,9.0,2.0,12.0,5.0,1.0,2.0,1.4142135623730951,1.5,9.0,16.0,16.1245154965971
26,50,360,12.011999999999915,5.0,26.476404589747453,2.23606797749979,4.0,7.0710678118654755,7.280109889280518,6.0,17.029386365926403,13.038404810405298,10.5,5.0,10.0,1.5,9.5,4.5,0.5,2.23606797749979,2.23606797749979,2.0,15.0,8.0,13.038404810405298
27,50,361,12.045366666666585,4.0,25.495097567963924,3.1622776601683795,5.0990195135927845,7.280109889280518,8.246211251235321,2.0,14.142135623730951,9.055385138137417,7.0,0.0,5.0,0.5,11.5,5.5,2.5,2.23606797749979,1.4142135623730951,1.5,15.0,8.0,14.142135623730951
28,50,361,12.045366666666585,4.0,32.2490309931942,4.123105625617661,7.0710678118654755,9.055385138137417,9.0,8.06225774829855,23.194827009486403,16.1245154965971,14.0,11.0,7.0,1.0,14.0,6.0,2.0,2.23606797749979,1.4142135623730951,1.0,9.0,15.0,16.0312195418814
29,50,362,12.078733333333249,3.0,29.427877939124322,3.0,7.0710678118654755,8.06225774829855,9.055385138137417,9.219544457292887,22.20360331117452,15.132745950421556,13.5,12.0,7.0,0.5,12.5,5.5,1.5,1.4142135623730951,2.8284271247461903,2.0,9.0,16.0,15.297058540778355
30,50,362,12.078733333333249,5.0,24.331050121192877,2.0,4.123105625617661,6.082762530298219,6.082762530298219,6.082762530298219,17.11724276862369,13.038404810405298,10.5,5.0,9.0,1.0,10.0,5.0,1.0,2.23606797749979,2.23606797749979,1.5,15.0,8.0,12.36931687685298
31,50,363,12.112099999999916,3.0,29.274562336608895,3.1622776601683795,7.0710678118654755,7.0710678118654755,8.06225774829855,9.219544457292887,22.360679774997898,15.297058540778355,13.5,12.0,8.0,1.0,12.0,5.0,1.0,1.4142135623730951,2.23606797749979,1.0,9.0,15.0,14.317821063276353
32,50,363,12.112099999999916,5.0990195135927845,24.331050121192877,2.0,4.0,6.082762530298219,6.324555320336759,6.082762530298219,17.11724276862369,13.152946437965905,10.5,6.0,10.0,2.0,9.0,4.0,0.0,2.23606797749979,2.0,1.5,13.0,7.0,12.36931687685298
33,50,364,12.14546666666658,4.0,30.14962686336267,3.0,6.082762530298219,8.06225774829855,8.0,8.246211251235321,21.213203435596427,15.132745950421556,13.0,10.0,7.0,0.5,12.5,5.5,1.5,1.0,1.4142135623730951,1.0,8.0,14.0,14.035668847618199
34,50,365,12.178833333333246,2.23606797749979,27.459060435491963,3.0,7.0,7.0710678118654755,7.0710678118654755,8.246211251235321,20.223748416156685,13.341664064126334,12.0,11.0,6.0,0.5,11.5,4.5,1.5,2.0,2.23606797749979,1.5,8.0,14.0,14.142135623730951
35,50,366,12.212199999999912,4.0,28.160255680657446,3.1622776601683795,6.082762530298219,7.0710678118654755,8.0,7.0710678118654755,20.223748416156685,14.142135623730951,12.0,9.0,6.0,0.5,12.5,6.5,1.5,1.0,1.4142135623730951,1.0,8.0,14.0,13.152946437965905
36,50,367,12.245566666666578,3.1622776601683795,27.294688127912362,3.0,6.082762530298219,7.0710678118654755,7.0710678118654755,7.280109889280518,19.4164878389476,13.341664064126334,11.5,10.0,6.0,1.0,11.0,5.0,1.0,1.0,2.23606797749979,2.0,8.0,13.0,14.142135623730951
37,50,368,12.278933333333244,4.123105625617661,29.274562336608895,3.0,5.0,8.0,8.06225774829855,7.0710678118654755,19.1049731745428,14.142135623730951,12.0,9.0,5.0,0.0,12.0,6.0,2.0,0.0,1.4142135623730951,1.0,8.0,14.0,13.152946437965905
38,50,369,12.31229999999991,3.0,25.179356624028344,2.0,6.082762530298219,6.0,8.06225774829855,8.246211251235321,19.235384061671343,13.152946437965905,11.5,9.0,6.0,0.5,11.5,5.5,2.5,2.23606797749979,2.23606797749979,1.0,7.0,13.0,12.041594578792296
39,50,370,12.345666666666576,3.0,24.186773244895647,2.23606797749979,6.082762530298219,6.0,7.0710678118654755,7.0710678118654755,18.24828759089466,12.165525060596439,10.5,9.0,6.0,0.5,10.5,4.5,1.5,1.4142135623730951,1.4142135623730951,1.0,7.0,12.0,12.165525060596439
40,50,371,12.379033333333242,3.0,24.186773244895647,3.0,5.0990195135927845,6.082762530298219,7.0,7.0710678118654755,18.110770276274835,13.038404810405298,11.5,9.0,6.0,0.5,10.5,5.5,1.5,1.0,1.4142135623730951,1.0,7.0,12.0,12.041594578792296
41,50,372,12.412399999999908,3.0,23.194827009486403,2.0,5.0990195135927845,6.0,7.0710678118654755,7.0710678118654755,17.11724276862369,12.041594578792296,10.5,9.0,6.0,0.5,9.5,4.5,1.5,1.0,1.4142135623730951,1.0,7.0,12.0,11.045361017187261
42,50,386,12.87953333333323,1.0,48.16637831516918,4.123105625617661,8.0,13.038404810405298,14.035668847618199,16.1245154965971,28.284271247461902,20.396078054371138,20.0,15.0,19.0,1.0,11.0,2.0,2.0,3.0,4.0,4.0,11.0,7.0,14.0
43,50,387,12.912899999999896,1.0,46.17358552246078,4.123105625617661,7.0,13.038404810405298,13.038404810405298,14.142135623730951,25.317977802344327,18.439088914585774,18.0,13.0,17.0,1.0,10.0,2.0,2.0,4.0,4.0,4.0,12.0,9.0,16.0312195418814
44,50,388,12.946266666666562,1.0,42.190046219457976,3.1622776601683795,7.0710678118654755,12.041594578792296,12.0,13.152946437965905,24.331050121192877,17.26267650163207,16.5,12.0,16.0,1.0,10.0,2.0,2.0,3.1622776601683795,3.0,2.5,10.0,6.0,12.0
45,50,389,12.979633333333227,1.0,41.10960958218893,3.0,7.0,11.045361017187261,11.045361017187261,13.152946437965905,23.194827009486403,16.278820596099706,16.0,12.0,15.0,0.5,9.5,1.5,2.5,3.0,2.23606797749979,2.5,11.0,11.0,9.055385138137417
46,50,390,13.012999999999892,1.4142135623730951,40.11234224026316,3.0,6.0,11.045361017187261,12.041594578792296,12.041594578792296,22.090722034374522,16.1245154965971,15.5,11.0,14.0,0.5,9.5,1.5,2.5,2.0,2.0,2.5,9.0,7.0,10.04987562112089
47,50,390,13.012999999999892,1.4142135623730951,22.0,2.0,2.0,6.0,6.0,6.0,11.045361017187261,9.055385138137417,8.5,8.0,8.0,2.0,3.0,0.0,0.0,3.0,3.0,3.0,8.0,8.0,9.0
48,50,391,13.04636666666656,0.0,21.0,3.0,3.0,6.0,7.0,5.0,11.0,8.0,8.0,8.0,8.0,3.0,3.0,0.0,1.0,3.0,3.0,3.0,7.0,7.0,9.0
49,50,391,13.04636666666656,1.0,38.05259518088089,3.1622776601683795,6.0,11.045361017187261,11.045361017187261,12.165525060596439,22.20360331117452,16.278820596099706,15.5,12.0,14.0,1.0,9.0,2.0,2.0,3.0,2.0,2.5,9.0,6.0,9.055385138137417
50,50,392,13.079733333333223,1.0,35.12833614050059,3.1622776601683795,5.0990195135927845,10.04987562112089,10.04987562112089,10.04987562112089,19.235384061671343,14.142135623730951,13.5,10.0,13.0,1.5,7.5,1.5,1.5,2.23606797749979,2.0,2.0,9.0,5.0,12.041594578792296
51,50,392,13.079733333333223,1.0,20.0,2.0,3.0,5.0,5.0990195135927845,6.0,11.045361017187261,8.06225774829855,8.0,8.0,8.0,2.0,3.0,0.0,1.0,2.0,3.0,3.0,8.0,8.0,8.06225774829855
52,50,392,13.079733333333223,2.0,22.02271554554524,2.23606797749979,4.123105625617661,6.0,6.0,8.06225774829855,16.278820596099706,12.165525060596439,11.0,12.0,11.0,3.5,4.5,0.5,1.5,3.0,3.0,3.0,6.0,8.0,8.06225774829855
53,50,393,13.113099999999893,1.0,20.0,2.0,2.0,5.0,6.0,5.0,10.0,8.0,7.5,8.0,8.0,3.0,2.0,0.0,1.0,3.0,2.0,2.0,7.0,7.0,9.0
54,50,393,13.113099999999893,1.4142135623730951,33.13608305156178,3.0,4.0,9.055385138137417,10.0,10.198039027185569,18.24828759089466,14.317821063276353,13.5,10.0,13.0,1.5,6.5,1.5,1.5,2.0,2.23606797749979,2.0,9.0,4.0,10.04987562112089
55,50,394,13.146466666666557,1.4142135623730951,32.14031735997639,3.0,4.0,10.04987562112089,10.0,10.04987562112089,18.110770276274835,14.142135623730951,13.5,10.0,13.0,1.5,6.5,1.5,1.5,2.0,2.0,2.0,8.0,6.0,6.0
56,50,394,13.146466666666557,1.0,17.0,2.0,3.0,6.0,5.0990195135927845,5.0990195135927845,11.045361017187261,8.06225774829855,7.5,9.0,9.0,4.0,2.0,1.0,2.0,2.0,2.23606797749979,2.0,7.0,7.0,7.0
57,50,395,13.179833333333224,0.0,31.144823004794873,3.1622776601683795,5.0,9.055385138137417,9.055385138137417,9.055385138137417,17.11724276862369,12.165525060596439,12.0,9.0,12.0,1.5,6.5,0.5,1.5,2.0,2.0,2.0,8.0,4.0,10.198039027185569
58,50,395,13.179833333333224,1.0,18.027756377319946,1.0,2.0,5.0,5.0,5.0,9.0,7.0,6.5,8.0,7.0,2.5,1.5,0.5,1.5,2.0,2.0,2.0,6.0,6.0,8.06225774829855
59,50,396,13.213199999999889,1.4142135623730951,31.144823004794873,2.0,4.0,9.0,9.055385138137417,10.198039027185569,17.26267650163207,13.341664064126334,12.5,9.0,12.0,0.5,6.5,1.5,1.5,2.0,2.0,2.0,7.0,4.0,8.06225774829855
60,50,396,13.213199999999889,1.0,15.0,2.0,3.0,5.0,5.0990195135927845,4.0,9.055385138137417,6.082762530298219,6.0,7.0,7.0,3.0,2.0,1.0,1.0,1.0,2.23606797749979,1.5,6.0,6.0,7.0710678118654755
61,50,397,13.246566666666554,1.0,29.154759474226502,2.23606797749979,4.123105625617661,9.055385138137417,9.055385138137417,10.04987562112089,17.26267650163207,13.152946437965905,12.5,9.0,12.0,0.5,6.5,1.5,1.5,1.0,2.0,2.0,7.0,3.0,10.198039027185569
62,50,398,13.27993333333322,0.0,28.071337695236398,3.1622776601683795,4.0,9.0,9.0,8.06225774829855,15.132745950421556,11.180339887498949,11.0,8.0,10.0,1.0,6.0,1.0,1.0,1.0,2.0,2.0,8.0,6.0,5.0
63,50,399,13.313299999999886,0.0,27.16615541441225,2.23606797749979,5.0,8.0,9.0,9.055385138137417,16.1245154965971,11.180339887498949,11.0,8.0,11.0,0.5,6.5,1.5,1.5,1.0,2.0,2.0,7.0,3.0,9.055385138137417
64,50,400,13.346666666666552,1.4142135623730951,26.1725046566048,2.0,4.0,8.0,8.0,8.06225774829855,15.132745950421556,11.180339887498949,10.5,7.0,10.0,0.5,6.5,1.5,1.5,1.0,1.0,1.0,7.0,4.0,7.0
65,50,401,13.380033333333218,0.0,25.179356624028344,2.23606797749979,4.123105625617661,8.06225774829855,8.06225774829855,9.055385138137417,15.297058540778355,11.180339887498949,11.0,8.0,11.0,0.5,5.5,0.5,1.5,2.0,1.0,1.0,7.0,4.0,7.0710678118654755
66,50,402,13.413399999999884,0.0,23.08679276123039,2.0,4.123105625617661,6.0,7.0,7.0710678118654755,13.152946437965905,9.055385138137417,9.0,7.0,9.0,1.0,5.0,1.0,1.0,1.0,1.4142135623730951,1.0,6.0,4.0,8.0
67,50,403,13.44676666666655,0.0,20.024984394500787,2.0,4.123105625617661,6.082762530298219,6.0,7.615773105863909,13.601470508735444,9.486832980505138,9.0,8.0,9.0,1.5,4.5,0.5,0.5,1.0,2.0,2.0,8.0,4.0,4.123105625617661
68,50,461,15.38203333333317,11.40175425099138,97.52948272189288,9.486832980505138,16.15549442140351,25.0,27.892651361962706,23.08679276123039,60.08327554319921,43.965895873961216,36.5,20.0,46.0,11.0,24.0,4.0,1.0,9.486832980505138,10.44030650891055,9.5,50.0,20.0,29.410882339705484
69,50,462,15.415399999999837,5.0,94.92101980067429,10.198039027185569,15.811388300841896,23.08679276123039,25.0,25.0,55.02726596879042,39.21734310225516,35.5,22.0,49.0,11.5,16.5,2.5,0.5,8.246211251235321,9.486832980505138,9.0,46.0,23.0,31.78049716414141
70,50,463,15.448766666666502,4.242640687119285,90.80198235721508,9.219544457292887,13.92838827718412,23.08679276123039,24.351591323771842,25.0,51.86520991955976,37.94733192202055,34.5,24.0,50.0,13.0,12.0,6.0,1.0,6.082762530298219,7.615773105863909,6.5,45.0,24.0,30.805843601498726
71,50,464,15.482133333333168,5.0,84.75848040166836,9.219544457292887,13.92838827718412,21.540659228538015,22.47220505424423,22.80350850198276,50.59644256269407,36.68787265568828,33.0,25.0,53.0,17.0,9.0,9.0,4.0,5.0990195135927845,8.94427190999916,7.0,47.0,26.0,30.59411708155671
72,50,465,15.515499999999834,4.242640687119285,78.54934754662193,9.219544457292887,13.92838827718412,19.697715603592208,20.615528128088304,23.53720459187964,50.28916384272063,36.40054944640259,33.5,29.0,58.0,20.5,4.5,12.5,7.5,4.47213595499958,8.602325267042627,6.5,46.0,23.0,32.7566787083184
73,50,466,15.5488666666665,3.605551275463989,76.89603370785778,10.198039027185569,14.866068747318506,19.313207915827967,19.697715603592208,23.53720459187964,51.24451190127583,36.40054944640259,34.0,31.0,58.0,21.5,4.5,13.5,8.5,5.385164807134504,8.06225774829855,6.5,47.0,24.0,32.984845004941285
74,50,467,15.582233333333166,5.0,78.77182237323191,9.219544457292887,14.866068747318506,17.08800749063506,19.697715603592208,22.80350850198276,51.54609587543949,36.68787265568828,33.0,27.0,54.0,18.5,8.5,9.5,6.5,4.47213595499958,8.602325267042627,6.5,46.0,24.0,34.36568055487916
75,50,468,15.615599999999832,5.385164807134504,82.21921916437786,10.44030650891055,17.08800749063506,19.924858845171276,21.18962010041709,21.840329667841555,54.70831746635972,37.64306044943742,33.5,28.0,54.0,20.0,11.0,8.0,7.0,4.47213595499958,7.810249675906654,5.5,45.0,23.0,34.713109915419565
76,50,469,15.648966666666498,6.324555320336759,83.5224520712844,9.486832980505138,16.76305461424021,19.924858845171276,21.18962010041709,21.587033144922902,54.120236510939236,37.36308338453881,33.0,28.0,52.0,19.0,12.0,7.0,7.0,5.385164807134504,8.602325267042627,6.5,44.0,23.0,33.734255586866
77,50,470,15.682333333333164,6.324555320336759,85.44003745317531,8.54400374531753,14.866068747318506,20.615528128088304,22.135943621178654,22.561028345356956,52.20153254455275,37.36308338453881,33.0,28.0,52.0,18.0,10.0,7.0,7.0,6.324555320336759,8.602325267042627,6.5,46.0,22.0,33.734255586866
78,50,471,15.71569999999983,5.0,84.48076704197234,9.219544457292887,15.811388300841896,20.8806130178211,23.08679276123039,22.360679774997898,51.92301994298868,36.138621999185304,33.0,28.0,52.0,18.0,10.0,8.0,6.0,5.385164807134504,8.602325267042627,6.5,46.0,21.0,34.713109915419565
79,50,472,15.749066666666495,3.605551275463989,85.44003745317531,9.219544457292887,12.649110640673518,20.248456731316587,21.18962010041709,24.331050121192877,49.47726750741192,36.87817782917155,34.5,28.0,52.0,16.0,8.0,8.0,4.0,6.708203932499369,8.06225774829855,6.5,47.0,20.0,36.40054944640259
80,50,473,15.78243333333316,3.605551275463989,86.02325267042627,8.246211251235321,13.601470508735444,20.8806130178211,22.135943621178654,23.345235059857504,48.507731342539614,34.92849839314596,32.5,25.0,51.0,15.0,9.0,8.0,4.0,6.324555320336759,8.602325267042627,6.5,46.0,19.0,35.17101079013795
81,50,474,15.815799999999829,2.8284271247461903,86.68333173107735,8.54400374531753,12.649110640673518,20.248456731316587,21.540659228538015,24.186773244895647,47.53945729601885,34.92849839314596,33.0,26.0,51.0,14.5,7.5,7.5,3.5,6.324555320336759,8.06225774829855,6.5,47.0,20.0,36.87817782917155
82,50,475,15.849166666666491,2.8284271247461903,86.68333173107735,8.246211251235321,11.704699910719626,20.248456731316587,22.47220505424423,23.345235059857504,45.60701700396552,33.95585369269929,32.0,25.0,50.0,14.5,6.5,7.5,3.5,6.324555320336759,9.433981132056603,6.5,46.0,19.0,35.17101079013795
83,50,476,15.88253333333316,4.242640687119285,87.36131867136622,7.280109889280518,14.560219778561036,21.18962010041709,23.08679276123039,25.179356624028344,50.44799302251776,35.90264614203248,33.5,26.0,50.0,13.0,11.0,6.0,3.0,6.324555320336759,8.602325267042627,6.5,47.0,20.0,34.92849839314596
84,50,477,15.915899999999825,2.23606797749979,87.64131445842195,7.615773105863909,12.649110640673518,20.8806130178211,21.18962010041709,26.30589287593181,47.80167361086848,35.17101079013795,33.5,26.0,51.0,12.5,7.5,7.5,3.5,6.324555320336759,8.06225774829855,6.0,47.0,19.0,39.05124837953327
85,50,478,15.94926666666649,3.605551275463989,88.60022573334675,7.280109889280518,11.180339887498949,18.973665961010276,20.615528128088304,25.179356624028344,45.880278987817846,34.92849839314596,33.0,26.0,51.0,13.5,5.5,7.5,3.5,6.708203932499369,8.06225774829855,6.0,46.0,19.0,41.0
86,50,479,15.982633333333157,3.605551275463989,87.64131445842195,7.280109889280518,11.704699910719626,20.8806130178211,22.135943621178654,25.317977802344327,46.84015371452148,35.17101079013795,33.0,25.0,50.0,12.5,7.5,6.5,3.5,6.324555320336759,7.211102550927978,5.5,47.0,18.0,41.773197148410844
87,50,480,16.015999999999824,3.605551275463989,87.36131867136622,7.280109889280518,12.649110640673518,20.615528128088304,21.18962010041709,25.317977802344327,47.80167361086848,35.17101079013795,33.0,26.0,50.0,13.0,8.0,7.0,4.0,6.324555320336759,7.211102550927978,5.5,45.0,18.0,39.81205847478876
88,50,481,16.04936666666649,2.23606797749979,89.98888820293314,7.280109889280518,11.704699910719626,21.840329667841555,22.80350850198276,25.317977802344327,45.60701700396552,33.95585369269929,32.5,26.0,49.0,12.5,6.5,7.5,3.5,6.324555320336759,7.211102550927978,5.5,46.0,18.0,33.95585369269929
89,50,482,16.082733333333156,3.605551275463989,88.05679985100527,7.280109889280518,11.704699910719626,19.924858845171276,22.135943621178654,25.179356624028344,46.57252408878007,34.92849839314596,33.0,26.0,49.0,12.5,7.5,7.5,2.5,7.280109889280518,8.602325267042627,6.0,46.0,18.0,35.90264614203248
90,50,483,16.116099999999822,4.242640687119285,89.98888820293314,6.324555320336759,10.770329614269007,22.135943621178654,23.08679276123039,25.079872407968907,45.35416188179427,34.713109915419565,32.5,25.0,48.0,11.5,7.5,5.5,2.5,6.324555320336759,7.211102550927978,5.5,47.0,19.0,35.17101079013795
91,50,484,16.149466666666488,2.8284271247461903,90.95603333479313,6.324555320336759,10.770329614269007,21.18962010041709,21.840329667841555,26.1725046566048,45.35416188179427,34.713109915419565,33.0,25.0,48.0,10.5,7.5,5.5,1.5,5.385164807134504,7.810249675906654,5.5,45.0,17.0,38.07886552931954
92,50,485,16.182833333333154,4.242640687119285,90.95603333479313,6.324555320336759,9.848857801796104,21.840329667841555,22.135943621178654,26.076809620810597,45.35416188179427,35.6931365951495,33.5,24.0,47.0,9.5,8.5,4.5,1.5,6.324555320336759,7.211102550927978,5.5,45.0,17.0,39.05124837953327
93,50,486,16.21619999999982,2.8284271247461903,89.98888820293314,7.615773105863909,10.770329614269007,21.18962010041709,23.08679276123039,25.079872407968907,45.35416188179427,34.713109915419565,33.0,25.0,48.0,11.5,7.5,6.5,1.5,6.324555320336759,8.602325267042627,6.0,46.0,18.0,40.024992192379
94,50,487,16.249566666666485,3.605551275463989,89.73850901368932,7.280109889280518,10.44030650891055,20.8806130178211,21.18962010041709,26.076809620810597,46.09772228646444,35.6931365951495,34.0,26.0,48.0,11.0,8.0,5.0,2.0,5.385164807134504,7.810249675906654,5.5,45.0,17.0,38.8329756778952
95,50,488,16.28293333333315,4.242640687119285,88.76936408468859,8.246211251235321,11.40175425099138,20.615528128088304,23.08679276123039,25.179356624028344,48.27007354458868,36.87817782917155,34.5,26.0,48.0,12.0,10.0,4.0,3.0,6.324555320336759,8.06225774829855,6.0,47.0,19.0,37.107950630558946
96,50,489,16.316299999999817,4.47213595499958,88.76936408468859,7.280109889280518,11.704699910719626,20.8806130178211,22.135943621178654,25.179356624028344,48.27007354458868,36.6742416417845,34.0,26.0,48.0,12.0,10.0,4.0,2.0,7.280109889280518,8.06225774829855,6.5,47.0,19.0,38.3275357934736
97,50,490,16.349666666666483,5.385164807134504,89.73850901368932,7.280109889280518,11.704699910719626,22.80350850198276,23.08679276123039,25.179356624028344,49.24428900898052,37.656340767525464,34.5,26.0,48.0,12.0,11.0,4.0,3.0,5.385164807134504,7.810249675906654,5.5,45.0,17.0,39.05124837953327
98,50,491,16.38303333333315,4.47213595499958,89.02246907382428,8.246211251235321,11.704699910719626,21.840329667841555,22.135943621178654,25.179356624028344,49.24428900898052,37.656340767525464,35.0,27.0,50.0,13.5,9.5,5.5,3.5,6.082762530298219,8.06225774829855,6.5,46.0,20.0,40.024992192379
99,50,492,16.416399999999815,5.0,88.76936408468859,8.246211251235321,12.649110640673518,20.8806130178211,22.135943621178654,25.079872407968907,50.21951811795888,37.656340767525464,35.0,27.0,49.0,13.0,11.0,4.0,3.0,6.324555320336759,7.615773105863909,6.5,47.0,20.0,37.107950630558946
100,50,493,16.44976666666648,4.47213595499958,88.05679985100527,7.615773105863909,12.36931687685298,20.8806130178211,23.08679276123039,26.1725046566048,50.21951811795888,37.8549864614954,35.0,27.0,50.0,12.5,10.5,4.5,2.5,6.324555320336759,8.06225774829855,6.0,46.0,18.0,38.07886552931954
101,50,494,16.483133333333146,5.0,89.73850901368932,7.280109889280518,12.649110640673518,20.8806130178211,22.135943621178654,25.079872407968907,49.24428900898052,36.6742416417845,34.0,27.0,49.0,13.0,10.0,5.0,3.0,5.385164807134504,7.211102550927978,5.5,44.0,17.0,37.8549864614954
102,50,495,16.516499999999812,5.656854249492381,89.02246907382428,7.280109889280518,13.601470508735444,20.8806130178211,22.135943621178654,26.076809620810597,51.419840528729765,37.8549864614954,35.0,27.0,50.0,12.5,11.5,4.5,2.5,5.0990195135927845,7.211102550927978,5.0,46.0,18.0,40.024992192379
103,50,496,16.549866666666478,5.0,89.73850901368932,9.219544457292887,12.649110640673518,20.8806130178211,22.135943621178654,25.019992006393608,50.99019513592785,38.47076812334269,36.0,28.0,50.0,14.0,11.0,4.0,3.0,6.082762530298219,8.06225774829855,6.0,45.0,18.0,41.97618372363071
104,50,497,16.583233333333144,5.385164807134504,89.73850901368932,8.54400374531753,14.560219778561036,20.615528128088304,23.08679276123039,25.019992006393608,52.952809179494906,38.47076812334269,35.5,28.0,50.0,14.0,13.0,4.0,4.0,5.0990195135927845,7.810249675906654,5.0,44.0,16.0,40.024992192379
105,50,498,16.61659999999981,5.385164807134504,87.80091115700337,7.280109889280518,13.601470508735444,19.924858845171276,21.18962010041709,26.30589287593181,52.392747589718944,38.8329756778952,35.5,28.0,50.0,13.0,12.0,4.0,3.0,6.324555320336759,8.06225774829855,6.0,46.0,18.0,41.0
106,50,499,16.649966666666476,4.47213595499958,87.80091115700337,7.280109889280518,12.649110640673518,20.8806130178211,21.840329667841555,26.076809620810597,50.00999900019995,37.48332962798263,35.0,28.0,50.0,13.0,10.0,5.0,3.0,6.324555320336759,7.810249675906654,5.0,45.0,19.0,35.90264614203248
107,50,500,16.68333333333314,5.0,87.80091115700337,7.280109889280518,12.649110640673518,19.924858845171276,21.18962010041709,25.079872407968907,49.24428900898052,36.6742416417845,34.0,27.0,49.0,13.0,10.0,5.0,3.0,5.0990195135927845,7.211102550927978,5.0,44.0,18.0,37.8549864614954
108,50,501,16.716699999999808,4.242640687119285,88.05679985100527,7.280109889280518,11.704699910719626,19.924858845171276,21.18962010041709,25.179356624028344,47.53945729601885,35.90264614203248,33.5,27.0,50.0,13.5,7.5,6.5,3.5,5.385164807134504,6.708203932499369,5.5,46.0,22.0,40.792156108742276
109,50,502,16.750066666666473,4.47213595499958,86.83317338436964,7.280109889280518,11.704699910719626,19.924858845171276,22.135943621178654,24.186773244895647,47.29693436154187,35.6931365951495,33.0,26.0,48.0,13.0,9.0,6.0,4.0,5.385164807134504,7.211102550927978,5.5,43.0,18.0,33.95585369269929
110,50,503,16.78343333333314,4.47213595499958,86.83317338436964,8.246211251235321,12.36931687685298,19.924858845171276,21.840329667841555,21.213203435596427,46.09772228646444,33.734255586866,31.0,25.0,47.0,15.0,9.0,6.0,4.0,5.385164807134504,7.211102550927978,5.0,42.0,17.0,32.01562118716424
111,50,504,16.816799999999805,4.47213595499958,84.8999411071645,8.246211251235321,14.317821063276353,19.6468827043885,20.8806130178211,23.345235059857504,50.21951811795888,35.90264614203248,33.0,28.0,50.0,16.0,10.0,7.0,6.0,4.47213595499958,6.4031242374328485,4.0,41.0,17.0,33.734255586866
112,50,505,16.85016666666647,7.280109889280518,79.07591289387686,8.06225774829855,13.341664064126334,20.615528128088304,21.840329667841555,21.37755832643195,50.00999900019995,36.6742416417845,32.5,30.0,48.0,18.0,10.0,6.0,8.0,7.0710678118654755,8.06225774829855,6.0,41.0,16.0,31.78049716414141
113,50,506,16.883533333333137,7.280109889280518,84.40379138403677,8.246211251235321,16.278820596099706,20.615528128088304,22.561028345356956,20.396078054371138,52.172789842982326,35.90264614203248,31.5,29.0,49.0,19.0,12.0,7.0,8.0,7.280109889280518,8.54400374531753,7.5,41.0,17.0,31.575306807693888
114,50,507,16.916899999999803,6.082762530298219,78.84795495128583,9.219544457292887,15.524174696260024,21.587033144922902,22.80350850198276,21.587033144922902,52.392747589718944,36.87817782917155,33.0,32.0,53.0,21.5,8.5,9.5,10.5,7.0710678118654755,8.94427190999916,7.5,40.0,16.0,33.54101966249684
115,50,508,16.95026666666647,6.324555320336759,78.85429601486528,10.04987562112089,15.297058540778355,20.615528128088304,21.587033144922902,19.6468827043885,51.19570294468082,35.90264614203248,32.0,31.0,48.0,20.5,10.5,6.5,8.5,9.055385138137417,9.848857801796104,8.0,39.0,15.0,34.52535300326414
116,50,509,16.983633333333135,5.385164807134504,81.49233092751734,9.219544457292887,16.492422502470642,20.615528128088304,21.587033144922902,21.587033144922902,52.630789467763066,36.138621999185304,32.5,30.0,50.0,19.0,11.0,7.0,8.0,9.219544457292887,9.486832980505138,8.5,39.0,16.0,35.510561809129406
117,50,510,17.0169999999998,5.385164807134504,81.25269226308751,8.06225774829855,16.492422502470642,20.396078054371138,22.561028345356956,22.561028345356956,52.392747589718944,35.90264614203248,32.5,32.0,51.0,19.5,9.5,8.5,9.5,9.055385138137417,11.40175425099138,10.0,40.0,16.0,33.734255586866
118,50,511,17.050366666666466,5.0990195135927845,82.22530024268686,9.219544457292887,14.560219778561036,19.4164878389476,20.8806130178211,22.561028345356956,51.419840528729765,36.87817782917155,33.5,31.0,50.0,18.5,9.5,7.5,8.5,9.219544457292887,10.770329614269007,9.0,38.0,15.0,34.52535300326414
119,50,512,17.083733333333132,4.123105625617661,80.2807573457052,9.219544457292887,15.524174696260024,17.46424919657298,19.4164878389476,22.561028345356956,51.419840528729765,35.90264614203248,33.0,33.0,52.0,20.5,7.5,9.5,9.5,9.219544457292887,9.848857801796104,9.0,38.0,16.0,35.35533905932738
120,50,513,17.117099999999798,2.23606797749979,80.8084154033477,9.219544457292887,15.297058540778355,18.24828759089466,18.681541692269406,24.331050121192877,50.99019513592785,35.6931365951495,34.0,32.0,49.0,16.5,9.5,7.5,6.5,10.198039027185569,11.40175425099138,10.0,37.0,16.0,36.49657518178932
121,50,514,17.150466666666464,2.23606797749979,80.049984384758,9.219544457292887,15.297058540778355,17.26267650163207,18.681541692269406,24.515301344262525,50.44799302251776,35.17101079013795,33.5,31.0,49.0,16.0,9.0,8.0,6.0,10.04987562112089,11.704699910719626,10.0,37.0,15.0,36.49657518178932
122,50,515,17.18383333333313,2.0,76.90253571892151,9.219544457292887,15.524174696260024,18.439088914585774,19.4164878389476,23.345235059857504,48.507731342539614,32.984845004941285,32.0,32.0,49.0,17.5,6.5,10.5,7.5,9.055385138137417,10.770329614269007,9.0,37.0,16.0,35.510561809129406
123,50,516,17.217199999999796,2.0,77.87810988975015,10.04987562112089,16.492422502470642,19.4164878389476,19.4164878389476,24.515301344262525,51.419840528729765,34.92849839314596,34.0,34.0,51.0,18.5,7.5,10.5,7.5,10.04987562112089,9.486832980505138,9.0,37.0,17.0,36.345563690772494
124,50,517,17.25056666666646,4.242640687119285,74.95331880577403,10.198039027185569,15.297058540778355,17.46424919657298,18.439088914585774,22.360679774997898,51.419840528729765,36.138621999185304,33.5,34.0,51.0,20.5,7.5,10.5,8.5,10.198039027185569,11.704699910719626,10.0,36.0,17.0,34.23448553724738
125,50,518,17.283933333333128,4.242640687119285,73.97972695272672,10.04987562112089,16.278820596099706,18.24828759089466,19.6468827043885,23.769728648009426,53.600373133029585,37.36308338453881,34.5,37.0,54.0,22.5,6.5,11.5,11.5,10.198039027185569,11.40175425099138,10.0,35.0,16.0,32.38826948140329
126,50,519,17.317299999999793,4.242640687119285,69.12307863514182,11.045361017187261,17.46424919657298,18.439088914585774,19.6468827043885,23.769728648009426,55.78530272392541,38.3275357934736,35.5,40.0,57.0,25.5,5.5,13.5,12.5,8.246211251235321,9.486832980505138,8.5,34.0,15.0,35.22782990761707
127,50,520,17.35066666666646,5.0,68.65857557508748,12.041594578792296,16.278820596099706,17.46424919657298,18.439088914585774,21.840329667841555,54.57105459856901,38.3275357934736,35.0,41.0,56.0,27.5,4.5,13.5,13.5,10.198039027185569,12.36931687685298,10.5,35.0,17.0,37.21558813185679
128,50,521,17.384033333333125,4.47213595499958,69.42621983083913,12.165525060596439,16.278820596099706,18.24828759089466,19.235384061671343,22.80350850198276,55.54277630799526,39.293765408777,36.0,44.0,58.0,29.0,3.0,15.0,16.0,11.045361017187261,12.36931687685298,11.0,35.0,17.0,35.35533905932738
129,50,522,17.41739999999979,6.324555320336759,66.48308055437865,12.165525060596439,16.278820596099706,17.26267650163207,17.46424919657298,22.561028345356956,57.271284253105414,41.0,37.0,43.0,61.0,30.0,4.0,15.0,17.0,12.041594578792296,13.341664064126334,12.0,32.0,15.0,37.21558813185679
130,50,523,17.450766666666457,5.385164807134504,68.8839603971781,11.045361017187261,16.278820596099706,18.24828759089466,18.439088914585774,21.840329667841555,54.3415126767741,38.07886552931954,34.5,40.0,56.0,27.0,5.0,13.0,15.0,12.041594578792296,13.341664064126334,12.0,34.0,18.0,36.345563690772494
131,50,524,17.484133333333123,5.0,67.68308503607086,10.04987562112089,16.278820596099706,17.26267650163207,18.439088914585774,22.561028345356956,53.36665625650534,37.107950630558946,34.0,40.0,55.0,25.5,4.5,13.5,14.5,12.041594578792296,12.165525060596439,11.0,35.0,18.0,36.124783736376884
132,50,525,17.51749999999979,3.1622776601683795,66.49060083951716,11.180339887498949,17.26267650163207,17.26267650163207,18.24828759089466,23.345235059857504,54.91812087098393,37.656340767525464,35.5,44.0,58.0,28.0,3.0,16.0,16.0,13.038404810405298,12.36931687685298,11.5,37.0,20.0,32.2490309931942
133,50,526,17.550866666666455,3.605551275463989,66.49060083951716,10.04987562112089,18.24828759089466,18.439088914585774,19.4164878389476,23.345235059857504,54.91812087098393,36.6742416417845,34.5,43.0,57.0,27.0,4.0,16.0,15.0,13.038404810405298,13.341664064126334,12.5,37.0,18.0,35.22782990761707
134,50,527,17.58423333333312,3.1622776601683795,68.8839603971781,10.198039027185569,17.26267650163207,19.235384061671343,20.396078054371138,24.331050121192877,54.91812087098393,37.656340767525464,35.5,40.0,56.0,24.0,6.0,13.0,13.0,12.165525060596439,13.341664064126334,12.0,39.0,19.0,34.23448553724738
135,50,528,17.617599999999786,4.47213595499958,69.85699678629192,10.04987562112089,17.26267650163207,18.24828759089466,20.396078054371138,24.515301344262525,56.089214649520635,38.8329756778952,36.0,39.0,55.0,23.0,8.0,12.0,12.0,12.041594578792296,12.36931687685298,11.5,39.0,20.0,34.23448553724738
136,50,529,17.650966666666452,4.123105625617661,74.73285756613352,9.055385138137417,16.278820596099706,18.24828759089466,20.615528128088304,24.331050121192877,53.75872022286245,37.48332962798263,35.0,33.0,49.0,17.0,12.0,6.0,7.0,13.152946437965905,13.341664064126334,12.5,40.0,20.0,33.54101966249684
137,50,530,17.684333333333118,5.385164807134504,79.83107164506812,8.246211251235321,15.524174696260024,18.439088914585774,20.8806130178211,27.16615541441225,56.089214649520635,40.607881008493905,37.5,33.0,50.0,14.5,13.5,4.5,5.5,12.165525060596439,13.341664064126334,12.0,40.0,20.0,37.48332962798263
138,50,531,17.717699999999784,4.47213595499958,81.78630692236935,9.219544457292887,15.132745950421556,19.4164878389476,19.6468827043885,25.079872407968907,53.600373133029585,38.47076812334269,36.0,31.0,48.0,14.5,13.5,3.5,4.5,14.142135623730951,14.142135623730951,13.5,41.0,20.0,37.48332962798263
139,50,532,17.75106666666645,4.47213595499958,81.39410298049853,8.06225774829855,16.278820596099706,18.439088914585774,20.615528128088304,26.076809620810597,54.589376255824725,38.3275357934736,36.0,31.0,46.0,12.5,15.5,3.5,3.5,13.152946437965905,13.341664064126334,12.5,42.0,22.0,35.22782990761707
140,50,533,17.784433333333116,4.123105625617661,84.72307831990054,7.280109889280518,15.524174696260024,19.6468827043885,20.615528128088304,25.019992006393608,51.62363799656123,36.22154055254967,34.0,28.0,45.0,11.5,14.5,3.5,2.5,14.035668847618199,14.142135623730951,13.0,42.0,22.0,30.59411708155671
141,50,534,17.81779999999978,3.1622776601683795,84.72307831990054,7.0710678118654755,15.524174696260024,20.615528128088304,21.37755832643195,25.079872407968907,50.635955604688654,35.22782990761707,33.5,26.0,43.0,9.5,15.5,2.5,1.5,15.297058540778355,14.142135623730951,13.5,43.0,23.0,31.400636936215164
142,50,535,17.851166666666447,3.1622776601683795,84.52810183601665,8.246211251235321,15.297058540778355,19.6468827043885,20.615528128088304,25.019992006393608,51.478150704935004,36.22154055254967,34.5,27.0,43.0,10.0,16.0,2.0,1.0,15.132745950421556,15.132745950421556,14.5,41.0,23.0,32.2490309931942
143,50,536,17.884533333333113,3.605551275463989,83.74365647617735,7.0710678118654755,16.1245154965971,20.396078054371138,21.587033144922902,25.079872407968907,51.478150704935004,35.35533905932738,33.5,25.0,42.0,8.5,17.5,1.5,0.5,16.1245154965971,15.132745950421556,15.0,42.0,24.0,33.24154027718932
144,50,537,17.91789999999978,7.0710678118654755,73.7563556583431,11.0,19.235384061671343,22.561028345356956,24.73863375370596,46.0,69.1158447825099,50.00999900019995,53.5,52.0,68.0,14.0,9.0,15.0,2.0,14.317821063276353,15.132745950421556,14.0,40.0,23.0,32.38826948140329
145,50,538,17.951266666666445,2.8284271247461903,82.22530024268686,8.06225774829855,15.132745950421556,20.396078054371138,21.587033144922902,24.186773244895647,49.64876634922564,34.52535300326414,33.0,25.0,44.0,10.5,14.5,4.5,1.5,16.1245154965971,16.1245154965971,15.5,42.0,24.0,35.22782990761707
146,50,539,17.98463333333311,3.1622776601683795,82.76472678623425,7.280109889280518,15.297058540778355,19.4164878389476,20.615528128088304,25.079872407968907,50.635955604688654,35.35533905932738,33.5,25.0,42.0,8.5,16.5,2.5,0.5,15.297058540778355,15.132745950421556,14.5,41.0,25.0,35.22782990761707
147,50,540,18.017999999999777,2.8284271247461903,81.58431221748455,7.0710678118654755,15.132745950421556,19.4164878389476,20.396078054371138,25.019992006393608,49.36598018878993,34.23448553724738,33.0,25.0,41.0,8.0,16.0,2.0,0.0,16.278820596099706,16.1245154965971,15.5,41.0,24.0,35.22782990761707
148,50,541,18.051366666666443,1.4142135623730951,82.76472678623425,7.0710678118654755,15.297058540778355,19.4164878389476,21.840329667841555,25.019992006393608,48.373546489791295,33.13608305156178,32.5,23.0,40.0,6.5,16.5,2.5,0.5,15.132745950421556,16.1245154965971,15.5,39.0,23.0,35.22782990761707
149,50,542,18.08473333333311,2.23606797749979,81.78630692236935,6.324555320336759,14.317821063276353,19.4164878389476,20.615528128088304,25.0,47.38143096192854,33.13608305156178,32.0,22.0,39.0,5.5,16.5,1.5,1.5,15.132745950421556,14.142135623730951,14.0,39.0,24.0,33.24154027718932
150,50,543,18.11809999999977,2.8284271247461903,81.58431221748455,7.0710678118654755,13.152946437965905,19.4164878389476,20.615528128088304,24.0,46.2709412050371,33.13608305156178,32.0,22.0,38.0,6.0,16.0,1.0,1.0,15.297058540778355,14.142135623730951,14.0,41.0,25.0,32.2490309931942
151,50,544,18.15146666666644,3.1622776601683795,83.54639429682169,5.0990195135927845,13.152946437965905,19.4164878389476,21.587033144922902,25.019992006393608,46.2709412050371,33.13608305156178,31.5,21.0,37.0,4.0,17.0,0.0,2.0,14.142135623730951,14.142135623730951,14.0,41.0,25.0,33.13608305156178
152,50,545,18.184833333333103,2.23606797749979,84.52810183601665,6.082762530298219,14.317821063276353,19.6468827043885,20.615528128088304,25.019992006393608,47.38143096192854,33.13608305156178,32.0,20.0,36.0,3.0,19.0,1.0,5.0,15.297058540778355,15.033296378372908,15.0,41.0,24.0,33.24154027718932
153,50,546,18.21819999999977,1.4142135623730951,85.5102333057278,7.280109889280518,14.317821063276353,20.615528128088304,21.840329667841555,24.020824298928627,46.2709412050371,32.0624390837628,31.5,20.0,36.0,4.0,18.0,0.0,4.0,15.297058540778355,15.033296378372908,15.0,42.0,25.0,34.36568055487916
154,50,547,18.25156666666644,2.23606797749979,85.90692637965812,6.082762530298219,14.142135623730951,20.615528128088304,20.8806130178211,25.019992006393608,47.265209192385896,33.13608305156178,32.0,19.0,37.0,3.0,19.0,1.0,4.0,15.297058540778355,15.132745950421556,15.0,41.0,23.0,33.37663853655727
155,50,548,18.284933333333104,2.23606797749979,87.66413177577246,5.0990195135927845,14.317821063276353,19.6468827043885,21.587033144922902,24.0,45.27692569068709,31.064449134018133,30.0,18.0,35.0,2.5,18.5,0.5,4.5,15.297058540778355,14.035668847618199,14.0,41.0,24.0,33.24154027718932
156,50,549,18.31829999999977,2.23606797749979,86.88498144098322,7.0710678118654755,12.165525060596439,20.615528128088304,21.840329667841555,24.08318915758459,45.39823785126467,33.24154027718932,32.0,20.0,38.0,5.0,16.0,0.0,3.0,15.297058540778355,15.033296378372908,15.0,41.0,22.0,32.2490309931942
157,50,550,18.35166666666644,3.1622776601683795,88.64536084872124,5.0990195135927845,13.341664064126334,20.396078054371138,21.587033144922902,25.019992006393608,46.389654018972806,33.13608305156178,31.5,20.0,37.0,3.5,17.5,0.5,2.5,16.278820596099706,16.1245154965971,15.5,41.0,23.0,34.23448553724738
158,50,551,18.3850333333331,2.0,88.64536084872124,6.324555320336759,14.142135623730951,20.615528128088304,21.587033144922902,24.020824298928627,46.2709412050371,32.14031735997639,31.0,20.0,37.0,4.5,17.5,0.5,3.5,15.297058540778355,15.033296378372908,14.5,41.0,23.0,31.25699921617557
159,50,552,18.418399999999767,1.4142135623730951,87.86353054595519,6.324555320336759,13.341664064126334,20.615528128088304,21.840329667841555,24.0,44.40720662234904,31.144823004794873,30.5,18.0,36.0,3.0,17.0,1.0,4.0,16.278820596099706,16.1245154965971,15.5,41.0,21.0,33.37663853655727
160,50,553,18.451766666666437,2.8284271247461903,86.12200647918046,5.0990195135927845,10.198039027185569,20.615528128088304,21.587033144922902,25.019992006393608,42.42640687119285,32.2490309931942,31.0,19.0,38.0,3.5,13.5,0.5,3.5,14.317821063276353,14.142135623730951,14.0,41.0,21.0,39.6232255123179
161,50,554,18.4851333333331,2.23606797749979,85.72630868059116,9.055385138137417,13.601470508735444,25.0,25.632011235952593,24.0,45.5411901469428,32.14031735997639,32.5,21.0,46.0,9.5,11.5,6.5,1.5,14.317821063276353,15.033296378372908,14.5,35.0,16.0,33.54101966249684
162,50,555,18.518499999999765,1.4142135623730951,87.0976463516667,5.385164807134504,13.601470508735444,19.6468827043885,20.8806130178211,25.019992006393608,44.721359549995796,31.25699921617557,30.5,19.0,38.0,3.5,15.5,0.5,3.5,15.297058540778355,16.278820596099706,15.0,42.0,21.0,33.37663853655727
163,50,556,18.55186666666643,1.4142135623730951,86.12200647918046,6.082762530298219,12.36931687685298,19.6468827043885,20.8806130178211,24.186773244895647,43.73785545725808,31.400636936215164,30.5,19.0,38.0,4.5,14.5,1.5,2.5,15.132745950421556,15.132745950421556,14.5,43.0,22.0,33.37663853655727
164,50,557,18.585233333333097,2.23606797749979,86.88498144098322,6.082762530298219,12.36931687685298,19.6468827043885,21.840329667841555,24.08318915758459,43.73785545725808,31.400636936215164,30.5,19.0,37.0,4.0,15.0,0.0,4.0,15.132745950421556,15.297058540778355,15.0,43.0,21.0,32.7566787083184
165,50,558,18.618599999999763,2.23606797749979,88.84255736976509,5.0990195135927845,12.36931687685298,20.615528128088304,21.18962010041709,27.018512172212592,45.5411901469428,33.24154027718932,32.5,20.0,38.0,2.0,16.0,1.0,4.0,16.278820596099706,15.132745950421556,15.0,43.0,22.0,33.37663853655727
166,50,559,18.65196666666643,3.1622776601683795,89.49860334105779,4.47213595499958,11.704699910719626,19.6468827043885,21.18962010041709,26.1725046566048,45.12205669071391,33.54101966249684,31.5,18.0,39.0,2.5,15.5,0.5,3.5,16.278820596099706,15.132745950421556,15.0,44.0,22.0,35.510561809129406
167,50,560,18.68533333333309,2.23606797749979,89.26925562588724,6.082762530298219,12.36931687685298,19.924858845171276,21.18962010041709,25.079872407968907,44.721359549995796,32.38826948140329,31.5,19.0,39.0,4.0,15.0,1.0,4.0,16.492422502470642,16.0312195418814,15.5,43.0,21.0,34.713109915419565
168,50,561,18.71869999999976,2.23606797749979,89.05054744357274,6.324555320336759,12.36931687685298,20.615528128088304,20.8806130178211,25.019992006393608,44.721359549995796,32.38826948140329,31.5,19.0,38.0,3.5,15.5,0.5,4.5,17.26267650163207,17.029386365926403,16.5,43.0,21.0,35.510561809129406
169,50,562,18.752066666666423,2.8284271247461903,89.49860334105779,5.0990195135927845,11.40175425099138,18.973665961010276,20.8806130178211,26.1725046566048,44.91102314577124,33.54101966249684,32.0,18.0,39.0,2.5,15.5,0.5,4.5,15.297058540778355,16.0312195418814,15.5,44.0,21.0,37.48332962798263
170,50,563,18.78543333333309,2.0,85.37564055396598,6.082762530298219,12.36931687685298,18.681541692269406,19.924858845171276,24.020824298928627,42.579337712087536,30.265491900843113,30.0,17.0,37.0,3.0,15.0,0.0,4.0,16.492422502470642,16.278820596099706,15.5,44.0,21.0,32.7566787083184
171,50,564,18.81879999999976,1.0,87.32124598286491,6.324555320336759,12.649110640673518,20.615528128088304,21.840329667841555,25.079872407968907,43.93176527297759,31.400636936215164,31.0,18.0,38.0,3.0,15.0,1.0,4.0,17.46424919657298,17.11724276862369,16.5,44.0,22.0,33.54101966249684
172,50,565,18.852166666666424,5.385164807134504,84.20213774008353,10.198039027185569,13.341664064126334,21.840329667841555,22.135943621178654,25.019992006393608,43.73785545725808,30.4138126514911,32.5,23.0,46.0,9.5,8.5,8.5,2.5,15.297058540778355,15.132745950421556,14.5,42.0,20.0,35.510561809129406
173,50,566,18.88553333333309,1.4142135623730951,86.12200647918046,6.324555320336759,11.704699910719626,18.681541692269406,19.924858845171276,25.019992006393608,43.73785545725808,32.2490309931942,31.5,18.0,37.0,2.5,15.5,0.5,4.5,15.297058540778355,15.132745950421556,15.0,43.0,21.0,33.54101966249684
174,50,567,18.91889999999976,2.0,91.67878707749138,9.219544457292887,16.492422502470642,21.840329667841555,23.40939982143925,25.0,50.635955604688654,34.23448553724738,34.0,19.0,41.0,5.0,20.0,1.0,5.0,14.317821063276353,14.035668847618199,13.5,40.0,19.0,33.734255586866
175,50,568,18.95226666666642,2.23606797749979,88.29496021857646,6.082762530298219,11.180339887498949,19.924858845171276,20.8806130178211,24.186773244895647,43.56604182158393,32.38826948140329,31.0,19.0,39.0,5.0,14.0,1.0,3.0,16.278820596099706,17.029386365926403,16.0,42.0,22.0,36.345563690772494
176,50,569,18.985633333333087,1.4142135623730951,92.44457799135652,10.04987562112089,15.297058540778355,25.0,26.248809496813376,22.02271554554524,46.389654018972806,31.144823004794873,31.5,17.0,42.0,7.5,16.5,4.5,3.5,14.142135623730951,14.035668847618199,13.5,39.0,24.0,35.22782990761707
177,50,570,19.018999999999757,2.8284271247461903,93.00537618869137,9.219544457292887,13.601470508735444,23.769728648009426,26.570660511172846,23.021728866442675,47.853944456021594,34.36568055487916,33.0,19.0,46.0,9.5,14.5,4.5,0.5,14.317821063276353,16.1245154965971,15.5,41.0,25.0,37.12142238654117
178,50,571,19.05236666666642,4.47213595499958,86.40023148117139,6.324555320336759,15.297058540778355,21.18962010041709,23.40939982143925,22.20360331117452,48.05205510693585,32.7566787083184,30.0,18.0,42.0,8.0,17.0,3.0,1.0,12.36931687685298,14.142135623730951,13.0,47.0,34.0,41.10960958218893
179,50,572,19.085733333333085,6.708203932499369,86.40023148117139,7.280109889280518,16.278820596099706,22.80350850198276,24.041630560342615,20.223748416156685,50.21951811795888,33.95585369269929,30.0,18.0,42.0,10.0,19.0,2.0,1.0,7.280109889280518,8.54400374531753,7.5,49.0,28.0,40.44749683231337
180,50,573,19.11909999999975,5.385164807134504,86.33075929238663,8.246211251235321,16.492422502470642,23.08679276123039,25.298221281347036,21.37755832643195,51.419840528729765,34.92849839314596,31.5,20.0,47.0,12.5,16.5,4.5,2.5,5.0990195135927845,6.708203932499369,5.5,52.0,22.0,36.87817782917155
181,50,574,19.152466666666417,8.246211251235321,85.72630868059116,8.246211251235321,16.492422502470642,22.80350850198276,24.041630560342615,19.4164878389476,52.392747589718944,35.90264614203248,31.0,19.0,44.0,12.5,19.5,1.5,2.5,4.47213595499958,7.211102550927978,5.5,51.0,23.0,37.656340767525464
182,50,575,19.185833333333083,8.54400374531753,87.36131867136622,8.246211251235321,17.46424919657298,23.08679276123039,25.298221281347036,20.396078054371138,54.57105459856901,37.107950630558946,32.0,21.0,45.0,13.0,20.0,2.0,2.0,5.0990195135927845,8.06225774829855,6.5,51.0,33.0,42.190046219457976
183,50,576,19.21919999999975,5.830951894845301,87.36131867136622,8.246211251235321,17.46424919657298,23.08679276123039,24.351591323771842,20.396078054371138,51.66236541235796,34.20526275297414,30.5,20.0,44.0,12.0,18.0,3.0,1.0,3.1622776601683795,6.4031242374328485,4.5,52.0,31.0,43.289721643826724
184,50,577,19.25256666666641,3.605551275463989,86.83317338436964,9.219544457292887,18.439088914585774,22.80350850198276,24.041630560342615,20.396078054371138,51.419840528729765,32.984845004941285,30.5,22.0,44.0,13.0,17.0,4.0,2.0,6.082762530298219,8.94427190999916,7.5,50.0,29.0,42.2965719651132
185,50,578,19.28593333333308,5.0,89.98888820293314,10.198039027185569,18.439088914585774,24.73863375370596,24.73863375370596,20.396078054371138,53.600373133029585,35.17101079013795,32.0,22.0,45.0,13.5,18.5,3.5,1.5,6.324555320336759,9.486832980505138,8.0,48.0,29.0,41.43669871020132
186,50,579,19.319299999999743,5.385164807134504,90.52071586106685,11.40175425099138,18.681541692269406,23.769728648009426,25.96150997149434,21.37755832643195,56.753854494650845,38.07886552931954,34.5,21.0,46.0,12.5,21.5,0.5,0.5,6.324555320336759,8.54400374531753,8.0,46.0,30.0,47.16990566028302
187,50,580,19.35266666666641,11.40175425099138,88.32326986700618,10.198039027185569,18.439088914585774,21.840329667841555,24.041630560342615,21.587033144922902,61.61168720299745,43.174066289845804,36.5,25.0,49.0,16.0,23.0,1.0,3.0,11.180339887498949,12.36931687685298,11.0,45.0,27.0,42.190046219457976
188,50,581,19.38603333333308,13.152946437965905,88.60022573334675,10.44030650891055,17.72004514666935,23.08679276123039,25.0,21.587033144922902,62.81719509815764,45.12205669071391,37.5,26.0,51.0,17.5,22.5,1.5,4.5,11.40175425099138,12.36931687685298,11.5,44.0,23.0,39.319206502675
189,50,582,19.419399999999744,14.317821063276353,89.56003573022959,9.219544457292887,17.72004514666935,22.80350850198276,24.041630560342615,22.561028345356956,63.788713735268246,46.09772228646444,38.0,27.0,52.0,17.5,22.5,1.5,5.5,12.36931687685298,12.36931687685298,11.5,44.0,20.0,39.45883931389772
190,50,583,19.45276666666641,10.44030650891055,90.13878188659973,8.54400374531753,16.76305461424021,23.08679276123039,25.298221281347036,23.345235059857504,58.9406481131655,42.20189569201838,36.0,25.0,52.0,15.5,18.5,1.5,3.5,9.219544457292887,10.44030650891055,10.0,42.0,17.0,35.6931365951495
191,50,584,19.48613333333308,5.0,91.09335870413386,9.486832980505138,16.76305461424021,23.08679276123039,25.298221281347036,23.345235059857504,54.120236510939236,37.36308338453881,34.0,25.0,52.0,15.5,13.5,6.5,3.5,12.36931687685298,12.36931687685298,11.5,45.0,17.0,36.87817782917155
192,50,585,19.51949999999974,4.242640687119285,92.04890004774636,8.54400374531753,14.866068747318506,23.40939982143925,23.40939982143925,23.345235059857504,50.28916384272063,35.4400902933387,32.5,23.0,50.0,13.5,11.5,6.5,1.5,11.180339887498949,12.36931687685298,11.5,44.0,15.0,34.713109915419565
193,50,586,19.552866666666407,3.1622776601683795,88.88756943465155,7.280109889280518,13.0,20.248456731316587,21.540659228538015,24.331050121192877,46.17358552246078,33.24154027718932,31.5,24.0,50.0,13.0,7.0,9.0,3.0,10.44030650891055,12.649110640673518,11.0,44.0,15.0,32.984845004941285
194,50,587,19.586233333333077,3.605551275463989,90.13878188659973,7.615773105863909,13.0,20.8806130178211,21.540659228538015,23.194827009486403,46.17358552246078,33.24154027718932,31.0,22.0,49.0,12.5,8.5,7.5,2.5,12.36931687685298,13.601470508735444,12.5,43.0,13.0,33.95585369269929
195,50,588,19.61959999999974,3.0,93.00537618869137,7.280109889280518,13.0,23.08679276123039,23.40939982143925,24.331050121192877,45.221676218380054,32.28002478313795,31.0,21.0,48.0,10.5,8.5,7.5,0.5,13.341664064126334,12.36931687685298,11.5,45.0,15.0,35.17101079013795
196,50,589,19.652966666666405,4.242640687119285,92.72000862812729,6.324555320336759,12.649110640673518,23.08679276123039,23.40939982143925,24.331050121192877,46.84015371452148,34.20526275297414,31.5,21.0,47.0,10.0,11.0,6.0,1.0,13.341664064126334,12.36931687685298,12.0,45.0,14.0,38.07886552931954
197,50,590,19.68633333333307,2.8284271247461903,90.80198235721508,6.324555320336759,13.0,23.08679276123039,23.40939982143925,23.345235059857504,44.9221548904324,32.01562118716424,30.0,19.0,45.0,9.0,11.0,5.0,0.0,12.36931687685298,12.36931687685298,11.5,46.0,16.0,38.07886552931954
198,50,591,19.719699999999737,5.0,92.04890004774636,6.324555320336759,12.083045973594572,23.08679276123039,23.769728648009426,22.561028345356956,45.5411901469428,33.52610922848042,30.0,17.0,44.0,8.5,12.5,3.5,0.5,11.180339887498949,11.40175425099138,11.0,46.0,16.0,34.92849839314596
199,50,592,19.753066666666403,3.605551275463989,93.96275858019496,7.615773105863909,14.866068747318506,24.351591323771842,25.632011235952593,23.194827009486403,48.08326112068523,33.24154027718932,31.0,16.0,43.0,6.5,16.5,2.5,3.5,12.649110640673518,12.649110640673518,11.5,46.0,14.0,36.87817782917155
200,50,593,19.78643333333307,3.1622776601683795,93.30058949438637,7.280109889280518,12.649110640673518,23.40939982143925,25.079872407968907,23.194827009486403,44.64302857109943,32.01562118716424,30.5,15.0,43.0,6.0,14.0,3.0,4.0,12.649110640673518,12.649110640673518,12.0,46.0,15.0,37.36308338453881
201,50,594,19.81979999999973,3.0,93.60555539069249,7.280109889280518,12.083045973594572,23.40939982143925,25.632011235952593,23.53720459187964,43.657759905886145,31.622776601683793,30.0,13.0,42.0,4.5,13.5,2.5,5.5,11.704699910719626,12.649110640673518,11.0,45.0,14.0,36.138621999185304
202,50,595,19.8531666666664,2.0,95.50916186418976,8.246211251235321,11.704699910719626,23.08679276123039,24.698178070456937,22.80350850198276,43.32435804486894,31.622776601683793,30.0,12.0,41.0,4.5,14.5,1.5,5.5,11.40175425099138,12.36931687685298,11.0,47.0,15.0,35.90264614203248
203,50,596,19.886533333333063,3.0,96.76776322722355,7.280109889280518,11.704699910719626,22.47220505424423,25.079872407968907,22.360679774997898,42.05948168962618,30.364452901377952,29.0,10.0,40.0,3.0,15.0,1.0,7.0,14.317821063276353,14.317821063276353,13.5,48.0,15.0,34.92849839314596
204,50,597,19.91989999999973,2.0,95.81753492967766,6.324555320336759,11.704699910719626,23.40939982143925,24.698178070456937,22.360679774997898,40.80441152620633,29.120439557122072,28.0,9.0,39.0,2.0,15.0,2.0,7.0,12.36931687685298,13.341664064126334,12.0,45.0,13.0,35.17101079013795
205,50,598,19.9532666666664,3.0,98.97979591815695,6.324555320336759,11.704699910719626,23.40939982143925,24.698178070456937,21.37755832643195,40.162171256046406,28.460498941515414,27.0,7.0,38.0,1.5,15.5,0.5,7.5,13.341664064126334,13.152946437965905,12.5,47.0,14.0,33.95585369269929
206,50,599,19.986633333333064,2.23606797749979,98.03060746521976,6.324555320336759,13.92838827718412,23.40939982143925,26.0,21.213203435596427,40.80441152620633,26.92582403567252,26.5,7.0,38.0,1.5,16.5,1.5,7.5,12.36931687685298,12.36931687685298,11.5,47.0,14.0,34.20526275297414
207,50,600,20.01999999999973,2.23606797749979,97.71898484941399,6.708203932499369,13.0,22.47220505424423,24.698178070456937,20.223748416156685,39.21734310225516,26.248809496813376,25.5,6.0,36.0,1.0,16.0,1.0,8.0,12.649110640673518,14.317821063276353,13.5,48.0,16.0,35.4400902933387
208,50,601,20.053366666666395,3.1622776601683795,97.71898484941399,4.47213595499958,11.180339887498949,23.769728648009426,25.079872407968907,21.213203435596427,36.40054944640259,25.298221281347036,24.5,6.0,36.0,0.0,13.0,2.0,8.0,11.40175425099138,12.165525060596439,11.5,46.0,15.0,38.07886552931954
209,50,602,20.08673333333306,3.605551275463989,99.62429422585637,5.385164807134504,12.083045973594572,23.769728648009426,25.079872407968907,21.213203435596427,37.33630940518894,25.298221281347036,25.0,5.0,35.0,1.0,15.0,1.0,9.0,12.649110640673518,13.152946437965905,12.0,46.0,14.0,34.92849839314596
210,50,603,20.120099999999727,3.1622776601683795,97.71898484941399,4.47213595499958,12.083045973594572,22.47220505424423,25.079872407968907,22.090722034374522,37.94733192202055,25.96150997149434,25.5,6.0,36.0,1.0,15.0,1.0,8.0,11.704699910719626,12.165525060596439,11.5,45.0,14.0,37.107950630558946
211,50,604,20.153466666666397,3.1622776601683795,97.71898484941399,5.830951894845301,11.704699910719626,23.769728648009426,25.079872407968907,21.213203435596427,38.27531841800928,26.570660511172846,25.5,6.0,36.0,0.0,15.0,1.0,9.0,11.704699910719626,12.36931687685298,12.0,45.0,14.0,41.0
212,50,605,20.18683333333306,2.8284271247461903,96.76776322722355,6.708203932499369,13.0,22.135943621178654,23.769728648009426,21.213203435596427,39.21734310225516,26.248809496813376,26.0,7.0,37.0,1.0,15.0,2.0,7.0,14.560219778561036,14.317821063276353,13.5,46.0,13.0,34.48187929913333
213,50,606,20.220199999999725,2.8284271247461903,94.86832980505137,5.0,12.529964086141668,22.47220505424423,24.166091947189145,23.194827009486403,38.62641583165593,26.248809496813376,26.0,9.0,39.0,1.0,12.0,4.0,6.0,11.704699910719626,13.341664064126334,12.0,46.0,15.0,37.36308338453881
214,50,607,20.25356666666639,3.605551275463989,96.76776322722355,6.324555320336759,12.083045973594572,22.47220505424423,24.166091947189145,21.213203435596427,38.27531841800928,26.248809496813376,26.0,7.0,37.0,1.0,14.0,2.0,8.0,11.704699910719626,13.152946437965905,12.5,46.0,15.0,38.3275357934736
215,50,608,20.286933333333057,2.23606797749979,96.46242791885346,5.385164807134504,13.92838827718412,22.47220505424423,24.166091947189145,23.194827009486403,41.7612260356422,27.892651361962706,27.5,10.0,39.0,1.5,15.5,1.5,6.5,14.560219778561036,14.317821063276353,13.5,47.0,15.0,38.07886552931954
216,50,609,20.32029999999972,3.1622776601683795,96.16652224137046,5.385164807134504,12.649110640673518,23.08679276123039,23.40939982143925,24.186773244895647,41.7612260356422,29.120439557122072,28.5,11.0,39.0,1.0,15.0,2.0,6.0,14.560219778561036,14.142135623730951,13.5,47.0,14.0,36.40054944640259
217,50,610,20.35366666666639,1.0,95.2102935611481,5.830951894845301,12.649110640673518,22.47220505424423,23.769728648009426,24.08318915758459,42.20189569201838,29.614185789921695,29.0,11.0,39.0,1.0,16.0,1.0,7.0,14.560219778561036,14.142135623730951,13.5,47.0,14.0,35.4400902933387
218,50,611,20.38703333333305,2.23606797749979,96.76776322722355,5.385164807134504,11.704699910719626,23.08679276123039,24.698178070456937,23.345235059857504,39.84971769034255,28.160255680657446,27.5,9.0,39.0,1.0,14.0,2.0,6.0,14.560219778561036,15.297058540778355,14.5,46.0,14.0,36.138621999185304
219,50,612,20.42039999999972,3.0,94.25497334358543,4.47213595499958,11.704699910719626,22.135943621178654,24.698178070456937,24.08318915758459,40.52159917870962,28.861739379323623,28.0,11.0,39.0,1.0,14.0,2.0,6.0,15.524174696260024,15.132745950421556,14.5,47.0,15.0,36.138621999185304
220,50,613,20.453766666666382,3.0,96.16652224137046,4.47213595499958,11.40175425099138,23.40939982143925,24.351591323771842,24.331050121192877,40.80441152620633,29.410882339705484,28.0,11.0,39.0,1.0,14.0,2.0,6.0,14.560219778561036,14.317821063276353,13.5,46.0,14.0,35.17101079013795
221,50,614,20.48713333333305,2.23606797749979,95.2102935611481,5.385164807134504,12.649110640673518,22.135943621178654,24.698178070456937,23.194827009486403,40.52159917870962,27.892651361962706,27.5,11.0,39.0,2.0,14.0,3.0,6.0,16.278820596099706,15.297058540778355,14.5,48.0,15.0,37.107950630558946
222,50,615,20.52049999999972,3.605551275463989,95.2102935611481,5.385164807134504,11.704699910719626,23.40939982143925,23.769728648009426,23.194827009486403,38.897300677553446,27.202941017470888,27.0,11.0,39.0,2.0,12.0,3.0,6.0,15.297058540778355,15.132745950421556,14.0,46.0,14.0,35.17101079013795
223,50,616,20.553866666666384,3.0,95.50916186418976,4.47213595499958,11.704699910719626,22.135943621178654,23.769728648009426,23.08679276123039,39.56008088970496,27.892651361962706,27.0,10.0,39.0,1.5,13.5,2.5,5.5,15.297058540778355,16.278820596099706,15.0,48.0,16.0,36.138621999185304
224,50,617,20.58723333333305,2.23606797749979,96.46242791885346,5.385164807134504,11.704699910719626,22.135943621178654,23.769728648009426,23.194827009486403,39.56008088970496,27.892651361962706,27.5,10.0,39.0,1.5,13.5,3.5,6.5,15.524174696260024,15.132745950421556,14.5,47.0,15.0,35.90264614203248
225,50,618,20.620599999999715,2.23606797749979,92.65527507918802,4.47213595499958,11.704699910719626,22.135943621178654,23.769728648009426,23.53720459187964,41.10960958218893,29.410882339705484,27.5,12.0,41.0,3.5,12.5,3.5,3.5,15.524174696260024,15.132745950421556,14.5,46.0,14.0,36.87817782917155
226,50,619,20.65396666666638,2.0,88.86506625215557,6.708203932499369,13.92838827718412,23.40939982143925,25.079872407968907,24.515301344262525,45.5411901469428,31.622776601683793,30.0,15.0,44.0,5.5,13.5,4.5,3.5,14.560219778561036,14.560219778561036,13.5,46.0,15.0,34.92849839314596
227,50,620,20.687333333333047,2.8284271247461903,85.09406559801923,7.615773105863909,15.811388300841896,22.47220505424423,23.769728648009426,24.515301344262525,50.28916384272063,34.48187929913333,32.0,18.0,47.0,8.5,15.5,5.5,1.5,15.524174696260024,16.278820596099706,15.5,48.0,16.0,36.138621999185304
228,50,621,20.720699999999717,3.605551275463989,83.21658488546619,7.280109889280518,16.15549442140351,22.47220505424423,23.769728648009426,24.73863375370596,50.92150822589606,34.785054261852174,32.0,21.0,50.0,11.5,12.5,7.5,1.5,14.317821063276353,15.524174696260024,14.0,47.0,15.0,37.107950630558946
229,50,622,20.75406666666638,4.242640687119285,77.62087348130012,8.246211251235321,16.492422502470642,20.248456731316587,21.540659228538015,22.360679774997898,50.695167422546305,34.20526275297414,31.5,24.0,53.0,16.5,10.5,10.5,5.5,16.278820596099706,16.278820596099706,15.0,47.0,16.0,29.832867780352597
230,50,623,20.787433333333045,2.8284271247461903,77.25283166331187,9.219544457292887,16.76305461424021,21.540659228538015,22.847319317591726,22.360679774997898,50.695167422546305,33.95585369269929,32.0,28.0,56.0,20.0,7.0,13.0,8.0,15.297058540778355,15.297058540778355,14.0,46.0,15.0,32.01562118716424
231,50,624,20.82079999999971,3.605551275463989,77.83315488916018,9.219544457292887,16.76305461424021,21.18962010041709,22.47220505424423,22.360679774997898,50.96076922496363,34.20526275297414,32.0,29.0,56.0,20.5,6.5,14.5,8.5,16.278820596099706,16.278820596099706,15.5,44.0,14.0,34.92849839314596
232,50,625,20.854166666666377,3.605551275463989,77.25283166331187,9.486832980505138,17.72004514666935,20.615528128088304,21.540659228538015,21.587033144922902,52.20153254455275,34.48187929913333,31.5,29.0,57.0,22.0,7.0,14.0,9.0,13.341664064126334,13.601470508735444,12.5,44.0,14.0,35.90264614203248
233,50,626,20.88753333333304,5.0,76.89603370785778,9.219544457292887,16.76305461424021,20.248456731316587,20.615528128088304,22.561028345356956,52.49761899362675,35.73513677041127,32.5,30.0,57.0,21.5,6.5,13.5,9.5,13.341664064126334,13.601470508735444,12.5,43.0,13.0,36.87817782917155
234,50,627,20.92089999999971,6.708203932499369,75.96051605933177,10.44030650891055,17.72004514666935,20.248456731316587,22.135943621178654,20.396078054371138,55.08175741568164,37.36308338453881,33.0,32.0,59.0,25.5,7.5,13.5,12.5,13.341664064126334,14.560219778561036,13.0,45.0,14.0,32.7566787083184
235,50,628,20.95426666666637,5.0,76.55063683601855,11.180339887498949,18.681541692269406,21.18962010041709,22.135943621178654,21.840329667841555,56.32051136131489,37.64306044943742,34.0,31.0,57.0,23.0,10.0,12.0,9.0,12.36931687685298,13.0,11.0,45.0,14.0,33.734255586866
236,50,629,20.98763333333304,6.324555320336759,82.21921916437786,9.486832980505138,14.866068747318506,18.384776310850235,21.18962010041709,25.0,55.65968020030299,40.80441152620633,36.0,32.0,58.0,21.0,8.0,9.0,8.0,11.40175425099138,13.0,11.5,46.0,12.0,32.01562118716424
237,50,630,21.020999999999702,7.615773105863909,81.60882305241266,10.198039027185569,13.92838827718412,20.8806130178211,22.47220505424423,24.041630560342615,55.65968020030299,41.7612260356422,36.5,33.0,57.0,22.0,8.0,8.0,9.0,9.486832980505138,10.770329614269007,10.0,45.0,11.0,36.138621999185304
238,50,631,21.05436666666637,10.44030650891055,81.27115109311545,9.486832980505138,13.92838827718412,20.8806130178211,21.18962010041709,23.769728648009426,57.56735185849702,43.68065933568311,37.0,32.0,58.0,22.0,10.0,6.0,10.0,11.40175425099138,12.083045973594572,10.5,47.0,10.0,36.40054944640259
239,50,632,21.08773333333304,6.708203932499369,84.43340571124678,10.44030650891055,16.15549442140351,20.8806130178211,23.08679276123039,22.80350850198276,55.97320787662612,39.84971769034255,35.0,30.0,57.0,21.5,9.5,8.5,8.5,9.486832980505138,11.180339887498949,10.0,47.0,11.0,36.40054944640259
240,50,633,21.121099999999704,4.242640687119285,87.92041856133307,9.486832980505138,15.231546211727817,20.248456731316587,21.540659228538015,24.73863375370596,53.14132102234569,37.94733192202055,34.5,29.0,58.0,19.5,6.5,10.5,7.5,12.36931687685298,12.649110640673518,11.5,49.0,9.0,40.52159917870962
241,50,634,21.15446666666637,3.1622776601683795,86.97700845625813,9.486832980505138,14.317821063276353,21.840329667841555,22.47220505424423,23.769728648009426,49.39635614091387,35.11409973215888,32.5,27.0,56.0,18.5,4.5,11.5,6.5,7.615773105863909,10.0,7.5,46.0,10.0,34.20526275297414
242,50,635,21.187833333333035,4.123105625617661,87.92041856133307,9.219544457292887,12.083045973594572,21.18962010041709,22.135943621178654,23.769728648009426,47.16990566028302,35.11409973215888,32.5,26.0,55.0,17.5,3.5,10.5,5.5,8.54400374531753,11.180339887498949,9.5,46.0,9.0,36.40054944640259
243,50,636,21.2211999999997,3.1622776601683795,85.70297544426332,9.486832980505138,12.529964086141668,21.540659228538015,22.47220505424423,22.80350850198276,46.61544808322666,34.17601498127012,31.5,25.0,53.0,17.0,4.0,10.0,4.0,7.615773105863909,9.848857801796104,9.0,47.0,10.0,35.17101079013795
244,50,637,21.254566666666367,3.1622776601683795,89.5377015563835,9.486832980505138,14.317821063276353,21.540659228538015,23.769728648009426,24.041630560342615,49.76946855251722,35.4682957019364,32.5,25.0,56.0,17.5,5.5,10.5,4.5,11.40175425099138,11.180339887498949,10.0,47.0,8.0,37.94733192202055
245,50,638,21.287933333333037,3.605551275463989,87.66413177577246,9.486832980505138,14.317821063276353,21.540659228538015,22.47220505424423,25.0,51.62363799656123,37.33630940518894,34.0,26.0,57.0,17.5,6.5,9.5,4.5,7.615773105863909,9.848857801796104,8.5,47.0,11.0,36.40054944640259
246,50,639,21.3212999999997,4.242640687119285,86.37708029332781,9.486832980505138,14.317821063276353,21.540659228538015,23.769728648009426,24.73863375370596,52.20153254455275,37.94733192202055,34.5,26.0,56.0,17.0,8.0,9.0,4.0,8.06225774829855,10.770329614269007,9.0,47.0,10.0,36.40054944640259
247,50,640,21.354666666666365,4.242640687119285,82.28000972289685,8.246211251235321,13.92838827718412,18.384776310850235,20.12461179749811,25.298221281347036,51.264022471905186,37.33630940518894,33.5,25.0,54.0,15.5,8.5,7.5,4.5,11.704699910719626,11.704699910719626,10.0,48.0,8.0,34.48187929913333
248,50,641,21.38803333333303,2.8284271247461903,81.70679286326198,8.54400374531753,16.15549442140351,18.788294228055936,21.02379604162864,25.0,52.20153254455275,36.05551275463989,33.0,25.0,55.0,16.0,9.0,10.0,5.0,12.36931687685298,12.083045973594572,11.0,48.0,9.0,37.0
249,50,642,21.421399999999696,2.8284271247461903,79.47955712005447,9.486832980505138,16.76305461424021,17.88854381999832,19.697715603592208,24.041630560342615,52.81098370604357,36.05551275463989,33.0,25.0,54.0,16.5,10.5,9.5,4.5,9.486832980505138,11.180339887498949,9.5,47.0,10.0,33.52610922848042
250,50,643,21.45476666666636,2.8284271247461903,73.53910524340094,10.44030650891055,18.027756377319946,17.46424919657298,20.615528128088304,24.351591323771842,55.362442142665635,37.33630940518894,34.0,30.0,58.0,21.0,8.0,14.0,8.0,11.40175425099138,12.649110640673518,11.0,49.0,11.0,35.73513677041127
251,50,644,21.488133333333028,5.0,76.15773105863909,11.180339887498949,18.973665961010276,18.384776310850235,20.615528128088304,22.47220505424423,57.245087125446844,38.27531841800928,34.0,28.0,58.0,22.0,11.0,11.0,8.0,10.44030650891055,10.770329614269007,9.5,50.0,12.0,35.4400902933387
252,50,645,21.52149999999969,4.47213595499958,75.39230729988306,11.40175425099138,19.924858845171276,20.615528128088304,21.540659228538015,22.47220505424423,58.18934610390462,38.27531841800928,34.0,32.0,60.0,25.0,9.0,14.0,10.0,12.649110640673518,12.649110640673518,11.0,49.0,12.0,34.48187929913333
253,50,646,21.55486666666636,3.605551275463989,75.76938695805846,10.44030650891055,18.973665961010276,18.788294228055936,21.93171219946131,24.351591323771842,56.64803615307419,37.69615364994153,34.0,29.0,58.0,20.5,9.5,13.5,7.5,10.44030650891055,11.704699910719626,10.5,50.0,12.0,35.4400902933387
254,50,647,21.588233333333022,3.605551275463989,74.32361670424818,11.40175425099138,20.8806130178211,19.697715603592208,21.540659228538015,23.40939982143925,58.52349955359813,37.69615364994153,34.0,31.0,61.0,24.0,9.0,15.0,10.0,11.40175425099138,13.0,11.0,52.0,13.0,32.28002478313795
255,50,648,21.62159999999969,3.605551275463989,74.73285756613352,10.44030650891055,19.924858845171276,17.88854381999832,21.02379604162864,24.351591323771842,57.584720195551874,37.69615364994153,34.0,30.0,61.0,22.5,8.5,14.5,8.5,10.44030650891055,11.704699910719626,10.5,51.0,12.0,33.83784863137726
256,50,649,21.65496666666636,5.0,75.23961722390672,11.40175425099138,19.924858845171276,19.697715603592208,21.93171219946131,24.351591323771842,60.40695324215582,40.496913462633174,36.0,33.0,63.0,25.0,9.0,14.0,10.0,12.36931687685298,12.083045973594572,10.5,51.0,10.0,31.953090617340916
257,50,650,21.688333333333023,5.0,75.64390259630977,10.44030650891055,20.8806130178211,18.788294228055936,20.615528128088304,25.298221281347036,61.35144660071187,40.496913462633174,36.0,31.0,62.0,22.5,11.5,12.5,8.5,9.219544457292887,11.180339887498949,9.5,50.0,10.0,28.792360097775937
258,50,651,21.72169999999969,6.708203932499369,70.66116330771806,10.44030650891055,18.973665961010276,17.88854381999832,21.02379604162864,23.769728648009426,59.80802621722272,40.85339643163099,35.0,34.0,66.0,28.0,6.0,15.0,13.0,10.44030650891055,12.083045973594572,10.5,50.0,7.0,31.38470965295043
259,50,652,21.755066666666355,8.54400374531753,70.32780389006896,11.40175425099138,19.924858845171276,19.235384061671343,20.591260281974,22.847319317591726,62.625873247404705,42.720018726587654,36.0,33.0,68.0,29.5,8.5,14.5,13.5,12.649110640673518,13.0,11.5,50.0,7.0,33.83784863137726
260,50,653,21.78843333333302,9.219544457292887,66.88796603276258,12.649110640673518,19.313207915827967,19.235384061671343,21.02379604162864,23.769728648009426,64.8459713474939,45.5411901469428,38.5,39.0,74.0,34.5,4.5,19.5,18.5,12.649110640673518,12.529964086141668,10.5,48.0,4.0,36.68787265568828
261,50,654,21.821799999999687,10.44030650891055,71.19691004531025,11.40175425099138,18.973665961010276,20.12461179749811,22.360679774997898,21.93171219946131,62.625873247404705,43.657759905886145,36.0,35.0,70.0,32.5,6.5,15.5,16.5,12.649110640673518,12.083045973594572,11.0,47.0,3.0,37.33630940518894
262,50,655,21.855166666666356,8.54400374531753,70.83078426785913,11.40175425099138,18.973665961010276,18.788294228055936,21.470910553583888,22.47220505424423,61.35144660071187,42.37924020083418,36.0,35.0,71.0,32.0,5.0,18.0,17.0,10.770329614269007,11.661903789690601,10.0,47.0,5.0,32.89376840679705
263,50,656,21.88853333333302,5.0,75.58438992278762,11.180339887498949,15.811388300841896,20.12461179749811,21.02379604162864,21.540659228538015,53.14132102234569,37.33630940518894,33.0,33.0,66.0,29.5,0.5,19.5,13.5,10.44030650891055,12.083045973594572,10.5,42.0,2.0,32.89376840679705
264,50,657,21.921899999999685,7.211102550927978,74.24284477308234,9.219544457292887,15.811388300841896,18.384776310850235,18.788294228055936,20.615528128088304,52.55473337388365,36.76955262170047,31.0,28.0,62.0,26.0,4.0,15.0,13.0,9.848857801796104,12.083045973594572,10.0,44.0,9.0,30.675723300355934
265,50,658,21.95526666666635,3.605551275463989,75.23961722390672,9.219544457292887,14.866068747318506,18.788294228055936,19.697715603592208,22.47220505424423,49.39635614091387,34.539832078341085,31.0,27.0,57.0,21.0,4.0,14.0,8.0,8.94427190999916,12.083045973594572,10.0,44.0,9.0,33.95585369269929
266,50,659,21.988633333333016,3.605551275463989,72.09022125087424,8.54400374531753,13.92838827718412,19.697715603592208,20.615528128088304,20.8806130178211,46.238512086787566,32.31098884280702,29.0,28.0,57.0,22.5,0.5,16.5,10.5,8.54400374531753,10.295630140987,9.0,43.0,8.0,29.410882339705484
267,50,660,22.02199999999968,4.123105625617661,79.47955712005447,9.219544457292887,15.811388300841896,20.615528128088304,20.615528128088304,22.135943621178654,49.39635614091387,33.61547262794322,30.5,27.0,56.0,20.5,4.5,13.5,7.5,9.848857801796104,11.180339887498949,9.5,45.0,9.0,36.40054944640259
268,50,661,22.055366666666348,3.1622776601683795,75.96051605933177,8.246211251235321,14.317821063276353,20.248456731316587,22.47220505424423,21.840329667841555,46.238512086787566,31.953090617340916,29.5,26.0,53.0,18.5,3.5,13.5,7.5,8.94427190999916,10.770329614269007,9.0,47.0,10.0,33.95585369269929
269,50,662,22.08873333333301,2.23606797749979,87.5956619930462,9.486832980505138,16.15549442140351,21.18962010041709,22.847319317591726,24.73863375370596,51.86520991955976,35.73513677041127,33.5,27.0,55.0,17.0,8.0,11.0,5.0,13.601470508735444,12.649110640673518,11.5,49.0,8.0,36.68787265568828
270,50,663,22.12209999999968,3.605551275463989,85.70297544426332,9.486832980505138,16.15549442140351,21.18962010041709,23.40939982143925,24.73863375370596,53.75872022286245,37.64306044943742,34.5,26.0,54.0,16.0,11.0,8.0,4.0,9.486832980505138,9.848857801796104,8.5,49.0,9.0,36.40054944640259
271,50,664,22.155466666666342,5.0,86.97700845625813,8.54400374531753,14.866068747318506,21.18962010041709,22.847319317591726,25.495097567963924,53.45091205957107,38.600518131237564,35.0,27.0,56.0,16.5,9.5,8.5,5.5,7.615773105863909,9.219544457292887,7.0,51.0,11.0,40.80441152620633
272,50,665,22.18883333333301,4.242640687119285,86.64871608973787,8.246211251235321,15.231546211727817,20.248456731316587,22.47220505424423,26.68332812825267,53.75872022286245,38.600518131237564,35.5,27.0,55.0,15.0,10.0,7.0,4.0,6.708203932499369,7.810249675906654,6.0,52.0,12.0,38.897300677553446
273,50,666,22.22219999999968,5.0,88.25531145489205,8.246211251235321,13.0,20.615528128088304,21.540659228538015,26.68332812825267,52.49761899362675,39.56008088970496,36.0,25.0,55.0,14.0,10.0,7.0,3.0,6.324555320336759,7.810249675906654,6.0,51.0,11.0,37.0
274,50,667,22.255566666666343,4.242640687119285,90.47651629014017,7.615773105863909,13.0,20.248456731316587,22.47220505424423,26.68332812825267,50.92150822589606,37.94733192202055,34.5,23.0,54.0,12.5,9.5,7.5,2.5,3.605551275463989,6.4031242374328485,4.5,51.0,13.0,36.05551275463989
275,50,668,22.28893333333301,4.242640687119285,89.5377015563835,6.708203932499369,13.0,21.540659228538015,22.47220505424423,26.92582403567252,50.32891812864648,37.33630940518894,33.5,20.0,51.0,9.5,11.5,5.5,0.5,5.830951894845301,7.211102550927978,5.5,52.0,13.0,35.73513677041127
276,50,669,22.322299999999675,4.242640687119285,89.19641248391103,6.708203932499369,12.083045973594572,19.313207915827967,21.02379604162864,26.68332812825267,49.040799340956916,37.0,33.5,20.0,50.0,9.0,11.0,5.0,0.0,6.708203932499369,7.211102550927978,6.0,52.0,14.0,34.785054261852174
277,50,670,22.35566666666634,4.47213595499958,91.4166286842826,6.708203932499369,12.083045973594572,20.615528128088304,21.540659228538015,26.92582403567252,48.84669896727925,36.76955262170047,33.0,19.0,50.0,8.5,10.5,5.5,0.5,6.708203932499369,7.810249675906654,5.5,52.0,13.0,34.785054261852174
278,50,671,22.389033333333007,2.8284271247461903,91.4166286842826,9.486832980505138,14.866068747318506,19.697715603592208,20.615528128088304,25.96150997149434,52.81098370604357,37.94733192202055,35.0,20.0,51.0,10.5,14.5,3.5,1.5,7.615773105863909,9.433981132056603,8.0,51.0,14.0,32.89376840679705
279,50,672,22.422399999999676,4.242640687119285,88.86506625215557,8.54400374531753,14.866068747318506,20.615528128088304,21.93171219946131,25.709920264364882,52.81098370604357,37.94733192202055,34.5,21.0,50.0,10.5,14.5,3.5,0.5,7.615773105863909,8.94427190999916,8.0,54.0,16.0,34.785054261852174
280,50,673,22.45576666666634,5.830951894845301,84.15461959987698,8.54400374531753,14.866068747318506,19.313207915827967,21.93171219946131,25.709920264364882,54.70831746635972,39.84971769034255,35.5,21.0,50.0,10.5,16.5,2.5,0.5,7.615773105863909,8.06225774829855,7.0,51.0,14.0,33.52610922848042
281,50,674,22.489133333333005,2.23606797749979,86.7294644281861,8.54400374531753,15.811388300841896,19.697715603592208,21.470910553583888,26.92582403567252,52.81098370604357,37.0,34.5,20.0,51.0,9.5,14.5,5.5,1.5,7.615773105863909,8.602325267042627,7.0,51.0,12.0,37.64306044943742
282,50,675,22.52249999999967,3.1622776601683795,82.63776376451628,8.246211251235321,16.76305461424021,17.88854381999832,20.12461179749811,25.96150997149434,52.81098370604357,36.05551275463989,33.5,20.0,50.0,10.0,15.0,6.0,1.0,7.211102550927978,8.06225774829855,6.5,51.0,12.0,35.73513677041127
283,50,676,22.555866666666336,3.605551275463989,78.39005038906404,8.54400374531753,17.08800749063506,18.788294228055936,20.591260281974,25.0,53.48831648126533,36.40054944640259,33.0,24.0,55.0,15.5,10.5,10.5,3.5,10.770329614269007,10.770329614269007,10.0,50.0,12.0,37.0
284,50,677,22.589233333333,4.242640687119285,79.7057087039567,9.486832980505138,16.15549442140351,19.235384061671343,21.02379604162864,25.0,54.42425929675111,38.27531841800928,34.5,25.0,57.0,17.0,10.0,10.0,4.0,10.44030650891055,11.180339887498949,9.5,48.0,9.0,34.785054261852174
285,50,678,22.622599999999668,4.242640687119285,79.7057087039567,8.54400374531753,18.681541692269406,19.697715603592208,21.470910553583888,24.041630560342615,55.02726596879042,36.40054944640259,32.5,25.0,57.0,18.0,11.0,11.0,6.0,11.704699910719626,13.0,11.5,49.0,10.0,32.57299494980466
286,50,679,22.65596666666633,5.0,79.7057087039567,8.54400374531753,18.027756377319946,20.615528128088304,21.93171219946131,25.0,56.302753041036986,38.27531841800928,34.0,26.0,58.0,18.0,11.0,11.0,6.0,11.704699910719626,12.649110640673518,11.5,49.0,11.0,35.73513677041127
287,50,680,22.689333333333,3.605551275463989,82.46211251235322,9.219544457292887,17.72004514666935,20.615528128088304,22.847319317591726,24.041630560342615,53.75872022286245,36.05551275463989,33.0,24.0,56.0,17.0,11.0,11.0,5.0,12.649110640673518,12.649110640673518,12.0,50.0,11.0,34.48187929913333
288,50,681,22.722699999999666,3.605551275463989,84.15461959987698,8.246211251235321,16.76305461424021,20.248456731316587,21.540659228538015,25.709920264364882,53.45091205957107,36.68787265568828,34.0,25.0,54.0,14.5,11.5,9.5,3.5,13.601470508735444,12.649110640673518,12.0,51.0,12.0,33.52610922848042
289,50,682,22.75606666666633,4.242640687119285,85.70297544426332,9.219544457292887,16.15549442140351,20.248456731316587,21.540659228538015,24.73863375370596,53.75872022286245,37.64306044943742,34.5,24.0,52.0,14.0,13.0,7.0,2.0,13.601470508735444,13.92838827718412,12.0,51.0,13.0,34.48187929913333
290,50,683,22.789433333333,5.830951894845301,85.70297544426332,8.246211251235321,15.231546211727817,20.615528128088304,21.540659228538015,25.709920264364882,54.70831746635972,39.56008088970496,35.5,25.0,53.0,14.0,13.0,5.0,2.0,12.649110640673518,12.649110640673518,12.0,50.0,13.0,36.68787265568828
291,50,684,22.822799999999663,6.708203932499369,87.92041856133307,8.54400374531753,14.866068747318506,20.248456731316587,21.540659228538015,26.30589287593181,56.04462507680822,41.23105625617661,37.0,26.0,55.0,14.5,13.5,4.5,3.5,13.341664064126334,12.649110640673518,12.0,50.0,13.0,36.40054944640259
292,50,685,22.85616666666633,6.708203932499369,88.86506625215557,8.246211251235321,13.92838827718412,20.248456731316587,21.93171219946131,26.476404589747453,55.08175741568164,41.23105625617661,37.0,26.0,55.0,14.5,12.5,5.5,3.5,12.36931687685298,13.0,11.5,50.0,13.0,33.83784863137726
293,50,686,22.889533333332995,6.324555320336759,88.54377448471462,8.54400374531753,14.317821063276353,20.248456731316587,21.540659228538015,26.68332812825267,55.65968020030299,41.48493702538308,37.0,27.0,55.0,15.0,12.0,5.0,4.0,13.601470508735444,12.649110640673518,12.0,49.0,13.0,36.40054944640259
294,50,687,22.92289999999966,7.280109889280518,86.64871608973787,8.54400374531753,15.811388300841896,21.18962010041709,22.47220505424423,25.495097567963924,57.0087712549569,41.23105625617661,36.5,26.0,54.0,15.0,15.0,4.0,4.0,11.40175425099138,12.083045973594572,10.5,49.0,13.0,35.4400902933387
295,50,688,22.956266666666327,6.708203932499369,87.5956619930462,8.54400374531753,13.92838827718412,19.697715603592208,21.540659228538015,25.495097567963924,54.405882034941776,40.52159917870962,36.0,27.0,55.0,16.0,11.0,7.0,4.0,13.341664064126334,14.560219778561036,13.0,50.0,12.0,36.40054944640259
296,50,689,22.989633333332996,6.708203932499369,87.5956619930462,8.54400374531753,14.317821063276353,20.248456731316587,22.47220505424423,25.495097567963924,54.70831746635972,40.52159917870962,36.0,27.0,55.0,16.0,11.0,6.0,5.0,10.44030650891055,12.649110640673518,11.0,49.0,13.0,34.20526275297414
297,50,690,23.02299999999966,6.4031242374328485,86.64871608973787,8.246211251235321,13.92838827718412,20.248456731316587,21.540659228538015,26.68332812825267,54.70831746635972,40.80441152620633,36.5,29.0,57.0,17.0,9.0,7.0,6.0,12.36931687685298,13.92838827718412,12.0,46.0,11.0,32.28002478313795
298,50,691,23.056366666666325,5.0,88.25531145489205,8.246211251235321,13.92838827718412,19.697715603592208,20.615528128088304,26.68332812825267,53.45091205957107,39.56008088970496,36.0,27.0,57.0,16.0,9.0,8.0,4.0,12.36931687685298,12.649110640673518,11.5,48.0,11.0,35.4400902933387
299,50,692,23.08973333333299,5.0,86.64871608973787,8.246211251235321,14.317821063276353,19.697715603592208,20.615528128088304,24.73863375370596,51.86520991955976,37.64306044943742,34.0,27.0,55.0,17.0,8.0,9.0,5.0,14.317821063276353,13.601470508735444,12.5,47.0,11.0,35.4400902933387
300,50,693,23.123099999999656,3.605551275463989,87.28115489611719,8.246211251235321,13.92838827718412,19.924858845171276,21.540659228538015,23.53720459187964,48.38388161361178,34.48187929913333,32.0,25.0,52.0,15.5,7.5,8.5,4.5,14.317821063276353,14.560219778561036,13.0,48.0,12.0,33.95585369269929
301,50,694,23.15646666666632,3.1622776601683795,86.02325267042627,8.246211251235321,13.0,18.973665961010276,21.540659228538015,23.769728648009426,46.8187996428785,33.83784863137726,31.5,26.0,52.0,16.0,5.0,10.0,5.0,8.54400374531753,10.770329614269007,9.5,44.0,13.0,33.734255586866
302,50,695,23.189833333332988,2.23606797749979,86.97700845625813,8.246211251235321,14.317821063276353,21.540659228538015,21.540659228538015,23.769728648009426,47.75981574503821,33.52610922848042,31.5,26.0,52.0,16.0,6.0,11.0,4.0,10.44030650891055,12.083045973594572,10.0,46.0,13.0,34.713109915419565
303,50,696,23.22319999999965,3.0,86.33075929238663,10.198039027185569,15.811388300841896,21.18962010041709,21.540659228538015,23.53720459187964,50.28916384272063,34.48187929913333,33.0,27.0,54.0,17.5,7.5,10.5,4.5,12.165525060596439,13.601470508735444,12.5,46.0,13.0,32.984845004941285
304,50,697,23.25656666666632,2.23606797749979,84.11896337925236,10.44030650891055,14.866068747318506,21.18962010041709,22.47220505424423,21.587033144922902,48.38388161361178,33.52610922848042,31.5,26.0,52.0,18.0,7.0,10.0,5.0,9.219544457292887,11.704699910719626,10.5,43.0,12.0,34.52535300326414
305,50,698,23.289933333332986,4.242640687119285,85.44003745317531,9.219544457292887,14.866068747318506,21.840329667841555,23.08679276123039,23.769728648009426,51.54609587543949,36.68787265568828,33.5,28.0,52.0,17.0,9.0,9.0,5.0,9.486832980505138,11.180339887498949,9.5,43.0,13.0,35.510561809129406
306,50,699,23.32329999999965,6.324555320336759,85.16454661418682,9.219544457292887,13.92838827718412,19.924858845171276,21.18962010041709,23.53720459187964,52.88667128870941,39.05124837953327,35.0,32.0,55.0,20.5,7.5,8.5,8.5,13.152946437965905,13.601470508735444,12.0,42.0,12.0,32.7566787083184
307,50,700,23.35666666666632,6.324555320336759,86.83317338436964,9.219544457292887,13.92838827718412,18.681541692269406,20.8806130178211,24.515301344262525,53.85164807134504,40.024992192379,36.0,34.0,56.0,21.0,7.0,9.0,9.0,13.152946437965905,13.601470508735444,12.5,43.0,14.0,35.6931365951495
308,50,701,23.390033333332983,2.8284271247461903,86.34813257969161,10.198039027185569,14.560219778561036,19.4164878389476,20.615528128088304,23.53720459187964,50.695167422546305,36.138621999185304,34.0,34.0,54.0,21.0,5.0,10.0,9.0,12.165525060596439,13.601470508735444,12.0,41.0,13.0,34.52535300326414
309,50,702,23.42339999999965,2.23606797749979,88.07383266328314,10.198039027185569,14.317821063276353,19.6468827043885,20.615528128088304,23.53720459187964,49.47726750741192,35.17101079013795,33.5,34.0,53.0,20.5,4.5,11.5,8.5,12.165525060596439,12.649110640673518,11.5,39.0,14.0,34.52535300326414
310,50,703,23.456766666666315,2.23606797749979,89.62700485902673,9.219544457292887,11.704699910719626,18.439088914585774,20.396078054371138,23.53720459187964,45.880278987817846,34.20526275297414,32.5,34.0,51.0,19.5,1.5,10.5,7.5,12.165525060596439,12.649110640673518,11.0,37.0,14.0,35.22782990761707
311,50,704,23.49013333333298,1.0,89.44271909999159,9.219544457292887,11.704699910719626,18.439088914585774,20.396078054371138,22.360679774997898,43.41658669218482,31.78049716414141,31.0,32.0,48.0,18.0,2.0,10.0,7.0,11.180339887498949,12.36931687685298,11.0,33.0,14.0,35.510561809129406
312,50,705,23.523499999999647,3.1622776601683795,89.10667763978185,9.055385138137417,10.44030650891055,20.396078054371138,21.37755832643195,21.37755832643195,42.44997055358225,32.01562118716424,30.5,33.0,47.0,19.0,1.0,10.0,8.0,11.045361017187261,12.36931687685298,11.5,31.0,15.0,34.36568055487916
313,50,706,23.556866666666316,36.0,98.49365461794989,18.110770276274835,30.0,24.73863375370596,28.861739379323623,39.05124837953327,123.0,93.0,75.0,61.0,87.0,35.0,49.0,13.0,14.0,22.02271554554524,20.09975124224178,18.5,77.0,53.0,45.27692569068709
314,50,707,23.59023333333298,33.015148038438355,99.68951800465283,17.029386365926403,27.0,23.769728648009426,29.410882339705484,36.05551275463989,113.01769772916099,86.02325267042627,69.5,53.0,76.0,28.5,48.5,14.5,9.5,20.0,19.1049731745428,18.0,70.0,51.0,46.010868281309364
315,50,708,23.623599999999644,36.0,112.44998888394787,18.027756377319946,26.019223662515376,23.53720459187964,29.832867780352597,35.014282800023196,115.03912377969506,89.02246907382428,71.0,51.0,69.0,25.0,55.0,23.0,5.0,18.027756377319946,16.0,15.0,53.0,40.0,59.0
316,50,709,23.65696666666631,40.049968789001575,103.0970416646375,14.0,23.021728866442675,24.08318915758459,27.459060435491963,38.2099463490856,115.03912377969506,92.02173656261873,72.0,58.0,73.0,27.5,49.5,22.5,11.5,12.041594578792296,13.0,12.0,46.0,37.0,33.13608305156178
317,50,710,23.690333333332976,37.013511046643494,84.38009243891595,16.0,24.020824298928627,18.027756377319946,23.021728866442675,44.181444068749045,121.06609764917675,97.12878049270464,78.5,71.0,79.0,31.0,46.0,19.0,14.0,16.0312195418814,15.0,14.5,44.0,38.0,34.058772731852805
318,50,711,23.72369999999964,38.05259518088089,87.46427842267951,17.0,24.020824298928627,23.021728866442675,27.294688127912362,43.0,122.00409829181969,98.02040603874276,79.0,74.0,83.0,35.5,43.5,15.5,16.5,14.0,14.0,13.5,42.0,33.0,33.06055050963308
319,50,712,23.757066666666308,37.12142238654117,85.15867542417507,13.0,21.02379604162864,22.20360331117452,25.495097567963924,41.012193308819754,112.04017136723775,91.08786966440702,72.5,64.0,78.0,30.0,41.0,15.0,16.0,14.0,15.033296378372908,14.5,46.0,39.0,35.12833614050059
320,50,713,23.79043333333297,4.123105625617661,80.15609770940699,14.035668847618199,18.0,22.090722034374522,25.019992006393608,45.0,81.02468759581859,63.0317380372777,61.0,77.0,82.0,34.5,1.5,17.5,19.5,11.045361017187261,13.038404810405298,12.5,33.0,32.0,29.017236257093817
321,50,714,23.82379999999964,3.1622776601683795,75.0066663703967,9.0,14.035668847618199,17.0,18.027756377319946,26.076809620810597,52.15361924162119,38.118237105091836,36.5,41.0,42.0,15.5,10.5,4.5,6.5,12.0,13.038404810405298,12.5,27.0,29.0,35.05709628591621
322,50,715,23.857166666666306,3.1622776601683795,80.02499609497022,11.0,16.0312195418814,18.027756377319946,19.0,23.08679276123039,53.150729063673246,37.12142238654117,35.5,40.0,42.0,18.0,12.0,4.0,8.0,12.0,13.038404810405298,12.5,29.0,31.0,34.058772731852805
323,50,716,23.89053333333297,6.082762530298219,81.00617260431454,11.045361017187261,17.029386365926403,17.0,18.0,22.090722034374522,56.08029957123981,39.05124837953327,36.0,41.0,42.0,19.5,14.5,2.5,8.5,12.041594578792296,14.035668847618199,13.5,28.0,33.0,34.132096331752024
324,50,717,23.92389999999964,10.04987562112089,65.00769185258002,9.055385138137417,16.0,19.0,20.09975124224178,25.019992006393608,60.00833275470999,44.01136216933077,39.0,47.0,48.0,22.5,12.5,3.5,13.5,12.165525060596439,14.035668847618199,12.5,26.0,34.0,34.058772731852805
325,50,718,23.957266666666303,9.055385138137417,80.02499609497022,9.055385138137417,16.0,19.026297590440446,20.024984394500787,24.0,58.0,42.0,37.5,43.0,41.0,18.0,16.0,1.0,9.0,13.038404810405298,14.035668847618199,13.0,27.0,34.0,32.38826948140329
326,50,719,23.99063333333297,11.0,83.02409288875127,10.04987562112089,16.0312195418814,18.027756377319946,19.1049731745428,20.024984394500787,57.07889277132134,41.048751503547585,35.5,38.0,36.0,17.0,20.0,4.0,8.0,13.152946437965905,15.033296378372908,14.0,28.0,36.0,36.22154055254967
327,50,720,24.023999999999635,9.219544457292887,85.09406559801923,10.198039027185569,17.029386365926403,19.1049731745428,21.095023109728988,20.0,56.22277118748239,39.20459156782532,34.5,37.0,33.0,15.0,21.0,4.0,6.0,12.041594578792296,13.038404810405298,12.0,28.0,37.0,34.23448553724738
328,50,721,24.0573666666663,8.06225774829855,85.09406559801923,10.04987562112089,16.0,19.026297590440446,20.09975124224178,23.021728866442675,57.0087712549569,41.012193308819754,37.0,40.0,36.0,15.0,19.0,3.0,6.0,12.165525060596439,13.0,12.5,29.0,39.0,32.38826948140329
329,50,722,24.090733333332967,8.06225774829855,85.09406559801923,9.055385138137417,18.0,18.027756377319946,19.026297590440446,23.0,58.0,40.0,36.0,40.0,36.0,15.0,20.0,2.0,7.0,13.152946437965905,13.0,12.5,28.0,39.0,34.36568055487916
330,50,723,24.124099999999636,9.219544457292887,84.0535543567314,9.219544457292887,17.029386365926403,18.027756377319946,20.024984394500787,23.0,58.008620049092706,41.0,36.5,40.0,37.0,15.5,19.5,3.5,7.5,12.165525060596439,13.0,12.5,29.0,39.0,34.36568055487916
331,50,724,24.1574666666663,9.0,85.14693182963201,10.04987562112089,16.0312195418814,19.026297590440446,21.095023109728988,24.020824298928627,59.07622195096772,43.04648650006177,38.5,43.0,38.0,16.5,18.5,2.5,7.5,14.142135623730951,14.035668847618199,13.5,29.0,39.0,33.24154027718932
332,50,725,24.190833333332964,8.06225774829855,83.05419917138447,10.04987562112089,18.027756377319946,18.027756377319946,20.024984394500787,24.0,60.00833275470999,42.0,38.0,41.0,38.0,15.5,20.5,2.5,5.5,13.152946437965905,13.038404810405298,13.0,26.0,38.0,34.36568055487916
333,50,726,24.22419999999963,8.06225774829855,82.05485969764375,10.198039027185569,17.029386365926403,18.0,19.026297590440446,24.08318915758459,59.0,42.01190307520001,38.0,42.0,39.0,16.5,18.5,1.5,6.5,12.165525060596439,14.0,13.5,27.0,39.0,33.54101966249684
334,50,727,24.257566666666296,6.082762530298219,81.02468759581859,11.045361017187261,18.027756377319946,17.0,19.026297590440446,22.090722034374522,57.0087712549569,39.05124837953327,36.0,41.0,39.0,18.0,17.0,1.0,7.0,12.165525060596439,14.0,13.5,26.0,37.0,35.22782990761707
335,50,728,24.29093333333296,4.123105625617661,79.05694150420949,11.045361017187261,17.0,18.027756377319946,19.026297590440446,21.02379604162864,53.009433122794285,36.013886210738214,34.0,40.0,37.0,17.5,14.5,2.5,7.5,12.041594578792296,14.035668847618199,13.5,24.0,36.0,35.35533905932738
336,50,729,24.324299999999628,3.605551275463989,75.05997601918082,11.045361017187261,16.0312195418814,17.029386365926403,18.027756377319946,22.02271554554524,52.009614495783374,36.05551275463989,34.5,45.0,42.0,21.5,8.5,7.5,11.5,13.038404810405298,14.035668847618199,13.5,23.0,37.0,35.6931365951495
337,50,730,24.357666666666294,5.385164807134504,74.10802925459562,10.04987562112089,15.033296378372908,19.1049731745428,19.1049731745428,21.02379604162864,51.0098029794274,36.05551275463989,33.5,47.0,43.0,24.0,6.0,9.0,15.0,13.152946437965905,14.035668847618199,13.5,23.0,36.0,34.52535300326414
338,50,731,24.39103333333296,4.123105625617661,80.09993757800315,10.0,14.035668847618199,16.0312195418814,17.11724276862369,22.02271554554524,50.00999900019995,36.05551275463989,34.0,42.0,38.0,18.0,10.0,3.0,9.0,13.152946437965905,13.038404810405298,13.0,22.0,37.0,36.6742416417845
339,50,732,24.424399999999626,4.123105625617661,82.09750300709517,11.045361017187261,15.0,19.026297590440446,20.09975124224178,20.09975124224178,50.039984012787215,35.05709628591621,33.0,43.0,39.0,21.0,9.0,6.0,11.0,12.165525060596439,13.038404810405298,13.0,22.0,37.0,34.713109915419565
340,50,733,24.45776666666629,4.123105625617661,78.10249675906654,10.04987562112089,16.0,19.1049731745428,20.024984394500787,22.090722034374522,52.03844732503075,36.05551275463989,34.0,44.0,40.0,20.0,10.0,5.0,11.0,12.165525060596439,13.038404810405298,13.0,21.0,37.0,32.7566787083184
341,50,734,24.49113333333296,3.605551275463989,81.2219182240853,10.198039027185569,16.0312195418814,18.110770276274835,19.1049731745428,23.08679276123039,52.009614495783374,36.05551275463989,34.5,43.0,37.0,17.0,12.0,3.0,8.0,12.041594578792296,14.142135623730951,13.0,22.0,37.0,30.805843601498726
342,50,735,24.524499999999623,5.385164807134504,79.22752047110903,10.04987562112089,15.033296378372908,17.11724276862369,18.110770276274835,22.02271554554524,52.009614495783374,37.05401462729781,34.5,43.0,37.0,18.0,12.0,3.0,9.0,12.165525060596439,14.035668847618199,13.5,24.0,38.0,32.55764119219941
343,50,736,24.55786666666629,4.123105625617661,78.16009211867653,10.198039027185569,17.029386365926403,17.029386365926403,17.11724276862369,23.08679276123039,54.0,37.013511046643494,35.0,43.0,38.0,17.5,13.5,2.5,8.5,11.180339887498949,13.038404810405298,12.0,22.0,37.0,33.734255586866
344,50,737,24.591233333332955,4.123105625617661,76.02631123499285,10.04987562112089,16.0,17.029386365926403,18.027756377319946,22.02271554554524,52.009614495783374,36.013886210738214,34.0,42.0,40.0,19.0,11.0,5.0,9.0,12.041594578792296,13.038404810405298,12.5,24.0,38.0,34.713109915419565
345,50,738,24.62459999999962,2.23606797749979,76.32168761236873,10.198039027185569,15.033296378372908,15.132745950421556,17.11724276862369,24.08318915758459,51.0,36.013886210738214,35.0,43.0,36.0,15.5,11.5,3.5,6.5,12.165525060596439,13.038404810405298,12.5,23.0,38.0,32.55764119219941
346,50,739,24.657966666666287,2.23606797749979,78.40918313565064,9.055385138137417,16.1245154965971,16.1245154965971,17.26267650163207,24.020824298928627,51.0098029794274,35.014282800023196,34.0,43.0,35.0,15.0,12.0,4.0,8.0,12.041594578792296,14.0,13.0,23.0,37.0,31.78049716414141
347,50,740,24.691333333332956,4.123105625617661,77.23341245859851,8.06225774829855,16.1245154965971,17.11724276862369,19.1049731745428,23.0,51.03920062069938,35.0,33.0,41.0,35.0,15.0,13.0,3.0,8.0,13.152946437965905,14.035668847618199,13.5,23.0,38.0,31.400636936215164
348,50,741,24.72469999999962,3.1622776601683795,79.1580697086532,10.04987562112089,16.0312195418814,17.029386365926403,18.110770276274835,23.0,52.009614495783374,36.0,34.5,41.0,36.0,15.5,13.5,1.5,6.5,12.165525060596439,14.035668847618199,13.5,23.0,38.0,33.37663853655727
349,50,742,24.758066666666284,5.0990195135927845,80.50465825031493,10.04987562112089,15.033296378372908,18.110770276274835,19.235384061671343,24.020824298928627,54.037024344425184,39.01281840626232,36.5,45.0,36.0,16.5,13.5,1.5,8.5,12.165525060596439,13.038404810405298,12.5,21.0,38.0,30.59411708155671
350,50,743,24.79143333333295,7.0,84.48076704197234,10.04987562112089,16.1245154965971,17.11724276862369,18.24828759089466,22.0,55.08175741568164,39.01281840626232,35.5,44.0,35.0,17.5,15.5,0.5,8.5,12.165525060596439,14.035668847618199,13.5,24.0,41.0,33.54101966249684
351,50,744,24.824799999999616,8.06225774829855,82.49242389456137,9.219544457292887,16.1245154965971,19.1049731745428,21.095023109728988,22.02271554554524,55.036351623268054,39.0,35.0,43.0,34.0,16.5,16.5,1.5,8.5,13.152946437965905,14.142135623730951,13.5,24.0,42.0,35.90264614203248
352,50,745,24.85816666666628,6.082762530298219,84.71717653463199,10.04987562112089,16.0312195418814,18.24828759089466,20.396078054371138,22.02271554554524,54.147945482723536,38.118237105091836,35.0,44.0,33.0,16.5,15.5,0.5,8.5,13.341664064126334,13.038404810405298,12.5,21.0,41.0,32.984845004941285
353,50,746,24.891533333332948,6.0,85.84287972802403,10.198039027185569,16.1245154965971,19.235384061671343,20.396078054371138,21.02379604162864,53.23532661682466,37.12142238654117,34.0,43.0,31.0,16.0,16.0,1.0,8.0,13.152946437965905,14.035668847618199,13.5,22.0,42.0,33.95585369269929
354,50,747,24.924899999999614,3.0,82.20097323024831,8.246211251235321,12.36931687685298,19.4164878389476,21.37755832643195,23.08679276123039,46.52956049652737,34.23448553724738,32.5,47.0,33.0,17.0,6.0,5.0,11.0,13.152946437965905,13.152946437965905,12.5,19.0,40.0,32.984845004941285
355,50,748,24.95826666666628,6.082762530298219,86.83317338436964,9.219544457292887,13.152946437965905,19.235384061671343,20.615528128088304,20.024984394500787,48.373546489791295,35.22782990761707,32.0,40.0,28.0,14.0,14.0,2.0,7.0,13.341664064126334,14.142135623730951,13.5,22.0,44.0,31.32091952673165
356,50,749,24.991633333332945,4.123105625617661,87.13208364316786,8.246211251235321,13.152946437965905,18.24828759089466,20.615528128088304,21.095023109728988,46.52956049652737,33.37663853655727,31.0,41.0,27.0,13.0,12.0,2.0,6.0,12.165525060596439,12.36931687685298,12.0,21.0,45.0,32.28002478313795
357,50,750,25.02499999999961,5.0,90.4267659490264,9.055385138137417,15.132745950421556,21.37755832643195,23.345235059857504,22.090722034374522,51.24451190127583,36.124783736376884,33.5,42.0,26.0,12.0,17.0,3.0,6.0,12.36931687685298,14.142135623730951,13.0,23.0,47.0,32.28002478313795
358,50,751,25.05836666666628,6.082762530298219,89.26925562588724,9.219544457292887,14.317821063276353,19.4164878389476,20.615528128088304,21.213203435596427,50.80354318352215,36.49657518178932,33.0,42.0,27.0,13.5,15.5,2.5,6.5,12.165525060596439,13.152946437965905,13.0,22.0,49.0,34.48187929913333
359,50,752,25.091733333332943,4.0,87.66413177577246,9.219544457292887,14.317821063276353,20.396078054371138,21.587033144922902,23.53720459187964,50.99019513592785,36.6742416417845,34.0,43.0,26.0,11.5,15.5,3.5,5.5,12.36931687685298,12.36931687685298,12.0,21.0,48.0,31.622776601683793
360,50,753,25.12509999999961,5.0990195135927845,89.82204629154248,8.246211251235321,15.297058540778355,19.4164878389476,21.840329667841555,23.194827009486403,51.78802950489621,36.49657518178932,33.5,43.0,25.0,11.0,17.0,4.0,5.0,13.341664064126334,13.341664064126334,12.5,21.0,48.0,30.675723300355934
361,50,754,25.158466666666275,6.0,89.82204629154248,7.280109889280518,14.317821063276353,19.4164878389476,21.587033144922902,23.345235059857504,50.80354318352215,36.49657518178932,33.0,42.0,24.0,10.0,17.0,4.0,5.0,12.36931687685298,13.152946437965905,12.5,21.0,48.0,29.732137494637012
362,50,755,25.19183333333294,6.082762530298219,87.86353054595519,8.246211251235321,14.317821063276353,19.6468827043885,21.840329667841555,23.53720459187964,52.172789842982326,37.8549864614954,34.0,43.0,25.0,11.0,17.0,5.0,6.0,13.341664064126334,14.142135623730951,13.5,21.0,48.0,29.732137494637012
363,50,756,25.225199999999607,4.47213595499958,85.90692637965812,8.246211251235321,15.297058540778355,19.6468827043885,20.8806130178211,23.53720459187964,51.419840528729765,36.138621999185304,33.0,42.0,24.0,10.0,17.0,4.0,5.0,14.317821063276353,13.341664064126334,13.0,22.0,49.0,32.57299494980466
364,50,757,25.258566666666272,5.0990195135927845,86.68333173107735,9.486832980505138,16.278820596099706,20.615528128088304,22.80350850198276,19.235384061671343,50.00999900019995,33.734255586866,30.5,39.0,22.0,11.5,18.5,4.5,5.5,13.341664064126334,13.152946437965905,12.5,21.0,49.0,34.17601498127012
365,50,758,25.29193333333294,5.385164807134504,83.74365647617735,9.219544457292887,14.317821063276353,17.46424919657298,20.8806130178211,21.095023109728988,49.8196748283246,35.510561809129406,32.5,42.0,25.0,12.5,15.5,3.5,5.5,13.341664064126334,14.317821063276353,13.5,20.0,48.0,32.57299494980466
366,50,759,25.325299999999604,7.0,84.92938243034621,9.486832980505138,17.26267650163207,18.681541692269406,20.8806130178211,21.02379604162864,54.45181356024793,37.21558813185679,33.5,43.0,25.0,13.0,20.0,5.0,7.0,13.341664064126334,13.601470508735444,12.5,21.0,48.0,31.953090617340916
367,50,760,25.35866666666627,7.0,82.97590011563598,9.219544457292887,16.278820596099706,17.72004514666935,18.973665961010276,22.360679774997898,54.74486277268398,38.47076812334269,34.5,45.0,27.0,14.0,18.0,4.0,7.0,11.704699910719626,11.40175425099138,11.0,18.0,47.0,31.953090617340916
368,50,761,25.392033333332936,7.0,86.68333173107735,10.198039027185569,17.46424919657298,17.72004514666935,19.924858845171276,21.095023109728988,55.57877292636101,38.2099463490856,34.5,45.0,28.0,15.5,18.5,3.5,8.5,12.649110640673518,13.341664064126334,12.5,18.0,47.0,35.73513677041127
369,50,762,25.4253999999996,9.0,84.92938243034621,9.219544457292887,16.492422502470642,18.681541692269406,21.840329667841555,21.095023109728988,55.57877292636101,39.20459156782532,34.5,46.0,28.0,16.0,18.0,4.0,10.0,11.40175425099138,12.165525060596439,12.0,16.0,46.0,32.28002478313795
370,50,763,25.458766666666268,9.055385138137417,86.12200647918046,10.198039027185569,16.278820596099706,19.6468827043885,20.8806130178211,20.09975124224178,55.57877292636101,39.319206502675,34.5,46.0,27.0,16.5,18.5,4.5,9.5,11.704699910719626,13.152946437965905,12.0,16.0,48.0,32.28002478313795
371,50,764,25.492133333332934,10.0,85.90692637965812,9.219544457292887,16.278820596099706,19.6468827043885,21.840329667841555,21.095023109728988,56.43580423808985,40.19950248448356,35.0,46.0,28.0,16.0,19.0,5.0,10.0,12.649110640673518,14.317821063276353,13.0,15.0,46.0,34.48187929913333
372,50,765,25.5254999999996,9.0,85.90692637965812,10.198039027185569,18.24828759089466,18.681541692269406,21.840329667841555,21.213203435596427,58.54912467321779,40.311288741492746,35.5,47.0,29.0,17.0,20.0,5.0,9.0,11.704699910719626,14.317821063276353,13.0,16.0,48.0,33.52610922848042
373,50,766,25.558866666666265,8.0,85.70297544426332,11.180339887498949,16.492422502470642,18.681541692269406,20.8806130178211,21.213203435596427,56.71860364994893,40.311288741492746,36.0,46.0,29.0,16.5,18.5,4.5,8.5,12.649110640673518,13.341664064126334,12.5,17.0,48.0,35.4400902933387
374,50,767,25.59223333333293,10.04987562112089,85.5102333057278,9.219544457292887,15.297058540778355,18.439088914585774,21.587033144922902,21.095023109728988,55.57877292636101,40.311288741492746,35.0,46.0,30.0,17.0,17.0,4.0,10.0,11.40175425099138,13.341664064126334,12.0,13.0,44.0,36.05551275463989
375,50,768,25.6255999999996,9.0,86.88498144098322,10.198039027185569,17.46424919657298,19.6468827043885,21.587033144922902,20.223748416156685,56.71860364994893,39.319206502675,34.5,46.0,28.0,17.0,19.0,4.0,10.0,11.704699910719626,12.36931687685298,12.0,16.0,47.0,32.89376840679705
376,50,769,25.658966666666263,10.0,84.92938243034621,9.219544457292887,16.278820596099706,19.4164878389476,20.8806130178211,21.095023109728988,56.43580423808985,40.19950248448356,35.0,46.0,28.0,16.0,19.0,5.0,9.0,11.40175425099138,13.152946437965905,12.5,16.0,46.0,31.622776601683793
377,50,770,25.69233333333293,11.0,87.66413177577246,10.198039027185569,16.492422502470642,18.439088914585774,20.396078054371138,20.223748416156685,57.706152185014034,41.30375285612676,35.5,46.0,29.0,17.5,19.5,4.5,9.5,12.36931687685298,14.142135623730951,13.5,17.0,46.0,32.28002478313795
378,50,771,25.725699999999595,8.0,86.68333173107735,10.44030650891055,17.26267650163207,18.681541692269406,20.8806130178211,22.090722034374522,57.55866572463264,40.311288741492746,36.0,47.0,30.0,16.5,18.5,3.5,9.5,12.36931687685298,13.152946437965905,12.5,17.0,48.0,32.57299494980466
379,50,772,25.75906666666626,8.0,89.62700485902673,10.198039027185569,17.26267650163207,19.6468827043885,20.8806130178211,21.213203435596427,56.568542494923804,39.319206502675,35.0,46.0,29.0,16.5,18.5,3.5,8.5,12.649110640673518,14.560219778561036,13.5,18.0,48.0,31.953090617340916
380,50,773,25.792433333332927,9.0,85.70297544426332,8.54400374531753,15.297058540778355,19.4164878389476,21.587033144922902,21.095023109728988,53.600373133029585,38.3275357934736,33.5,45.0,28.0,15.5,16.5,3.5,9.5,11.40175425099138,13.152946437965905,12.5,17.0,48.0,33.83784863137726
381,50,774,25.825799999999592,7.0,87.66413177577246,9.219544457292887,16.278820596099706,18.681541692269406,20.615528128088304,22.090722034374522,54.45181356024793,38.2099463490856,34.5,45.0,28.0,14.5,17.5,3.5,8.5,11.40175425099138,12.36931687685298,12.0,17.0,48.0,32.31098884280702
382,50,775,25.85916666666626,9.055385138137417,86.68333173107735,9.219544457292887,17.26267650163207,17.46424919657298,20.248456731316587,21.095023109728988,56.568542494923804,39.319206502675,34.5,45.0,28.0,15.5,19.5,5.5,8.5,12.649110640673518,13.341664064126334,12.5,16.0,47.0,32.57299494980466
383,50,776,25.892533333332924,8.06225774829855,88.64536084872124,8.54400374531753,15.524174696260024,19.4164878389476,21.840329667841555,22.02271554554524,53.46026561849464,38.118237105091836,34.0,44.0,27.0,13.5,17.5,4.5,7.5,12.36931687685298,13.341664064126334,12.0,20.0,48.0,32.89376840679705
384,50,777,25.92589999999959,6.0,88.45903006477066,9.486832980505138,16.492422502470642,19.4164878389476,21.840329667841555,21.095023109728988,52.773099207835045,36.345563690772494,33.0,43.0,27.0,14.0,17.0,3.0,7.0,13.341664064126334,14.142135623730951,13.5,19.0,48.0,28.460498941515414
385,50,778,25.959266666666256,11.045361017187261,86.49277426467485,8.246211251235321,14.317821063276353,18.439088914585774,20.396078054371138,23.769728648009426,57.271284253105414,42.95346318982906,36.5,44.0,28.0,13.0,20.0,7.0,7.0,12.36931687685298,13.038404810405298,12.5,19.0,47.0,35.17101079013795
386,50,779,25.99263333333292,11.0,86.49277426467485,8.54400374531753,14.317821063276353,19.4164878389476,20.396078054371138,23.08679276123039,56.568542494923804,42.2965719651132,36.5,45.0,29.0,14.0,19.0,6.0,8.0,11.40175425099138,13.152946437965905,12.5,19.0,47.0,32.28002478313795
387,50,780,26.025999999999588,7.0710678118654755,88.45903006477066,9.219544457292887,16.278820596099706,20.396078054371138,22.561028345356956,21.37755832643195,53.600373133029585,37.33630940518894,33.5,43.0,27.0,14.0,18.0,4.0,7.0,11.40175425099138,13.152946437965905,12.5,19.0,47.0,33.24154027718932
388,50,781,26.059366666666254,10.0,85.32877591996736,9.219544457292887,14.317821063276353,20.223748416156685,21.37755832643195,21.587033144922902,54.91812087098393,40.607881008493905,35.0,43.0,28.0,14.5,18.5,5.5,7.5,12.36931687685298,14.142135623730951,13.5,21.0,49.0,32.984845004941285
389,50,782,26.09273333333292,9.0,88.28363381737297,9.219544457292887,14.317821063276353,20.223748416156685,22.360679774997898,21.587033144922902,53.9351462406472,39.6232255123179,34.5,43.0,28.0,14.5,17.5,4.5,7.5,13.601470508735444,15.132745950421556,14.5,20.0,49.0,32.28002478313795
390,50,783,26.126099999999585,9.0,87.29833904490967,8.246211251235321,14.142135623730951,19.4164878389476,20.396078054371138,22.20360331117452,53.46026561849464,39.319206502675,34.5,43.0,28.0,13.5,17.5,4.5,7.5,13.341664064126334,14.317821063276353,13.5,19.0,47.0,36.40054944640259
391,50,784,26.15946666666625,10.0,86.31338250816034,8.246211251235321,14.317821063276353,19.4164878389476,20.615528128088304,21.095023109728988,53.46026561849464,39.20459156782532,34.0,43.0,28.0,14.5,17.5,4.5,8.5,12.649110640673518,13.341664064126334,13.0,20.0,47.0,32.28002478313795
392,50,785,26.19283333333292,7.0,87.47571091451616,9.219544457292887,15.297058540778355,19.4164878389476,21.587033144922902,23.08679276123039,54.45181356024793,39.20459156782532,35.5,45.0,29.0,14.0,17.0,3.0,8.0,13.341664064126334,14.317821063276353,14.0,20.0,48.0,32.28002478313795
393,50,786,26.226199999999583,7.0,85.15867542417507,8.246211251235321,16.278820596099706,18.439088914585774,20.615528128088304,23.08679276123039,54.45181356024793,38.2099463490856,34.5,44.0,30.0,14.0,17.0,2.0,8.0,13.341664064126334,14.142135623730951,13.5,20.0,47.0,33.24154027718932
394,50,787,26.25956666666625,8.06225774829855,84.34453153583817,9.219544457292887,15.132745950421556,18.24828759089466,20.396078054371138,22.090722034374522,54.45181356024793,39.319206502675,35.0,44.0,29.0,14.5,17.5,3.5,7.5,11.704699910719626,13.341664064126334,12.5,20.0,48.0,33.24154027718932
395,50,788,26.292933333332915,7.0,82.37718130647589,9.219544457292887,15.297058540778355,18.439088914585774,20.396078054371138,23.194827009486403,54.589376255824725,39.319206502675,35.5,44.0,29.0,13.5,17.5,3.5,7.5,8.54400374531753,9.219544457292887,8.5,20.0,47.0,33.24154027718932
396,50,789,26.32629999999958,6.0,81.39410298049853,8.246211251235321,16.278820596099706,18.439088914585774,20.615528128088304,23.08679276123039,53.46026561849464,37.21558813185679,34.0,43.0,28.0,12.5,17.5,2.5,6.5,6.4031242374328485,6.082762530298219,6.0,20.0,47.0,31.32091952673165
397,50,790,26.359666666666246,4.0,82.20097323024831,8.246211251235321,17.11724276862369,18.24828759089466,20.396078054371138,23.08679276123039,52.3450093132096,35.22782990761707,33.0,42.0,28.0,12.0,17.0,1.0,6.0,5.0,6.082762530298219,5.5,21.0,47.0,30.364452901377952
398,50,791,26.393033333332912,4.123105625617661,80.4114419718985,9.219544457292887,16.1245154965971,18.439088914585774,20.615528128088304,22.02271554554524,51.35172830587107,35.22782990761707,33.0,42.0,27.0,12.5,16.5,1.5,6.5,5.830951894845301,6.082762530298219,5.5,20.0,49.0,32.57299494980466
399,50,792,26.42639999999958,5.0,82.20097323024831,9.219544457292887,16.278820596099706,18.24828759089466,20.396078054371138,23.08679276123039,53.46026561849464,37.21558813185679,34.5,43.0,29.0,13.0,17.0,2.0,6.0,6.708203932499369,8.06225774829855,7.0,22.0,50.0,33.24154027718932
400,50,793,26.459766666666244,8.06225774829855,79.2464510246358,9.219544457292887,16.278820596099706,18.439088914585774,20.396078054371138,23.08679276123039,56.568542494923804,40.311288741492746,36.0,44.0,30.0,14.0,19.0,4.0,7.0,5.656854249492381,6.082762530298219,5.5,22.0,50.0,33.52610922848042
401,50,794,26.49313333333291,11.0,83.02409288875127,9.486832980505138,16.1245154965971,18.24828759089466,21.213203435596427,22.090722034374522,58.42088667591412,42.2965719651132,36.5,46.0,33.0,17.5,18.5,3.5,9.5,6.708203932499369,8.246211251235321,7.0,23.0,51.0,35.73513677041127
402,50,795,26.526499999999576,12.0,85.98837130682264,9.486832980505138,17.11724276862369,20.223748416156685,22.20360331117452,21.095023109728988,59.413803110051795,42.2965719651132,36.0,44.0,31.0,16.5,21.5,6.5,9.5,7.211102550927978,8.246211251235321,7.5,21.0,51.0,34.48187929913333
403,50,796,26.55986666666624,10.04987562112089,86.31338250816034,9.486832980505138,17.26267650163207,19.4164878389476,21.587033144922902,23.08679276123039,59.682493245507096,42.42640687119285,37.0,46.0,31.0,15.5,20.5,5.5,8.5,7.211102550927978,8.246211251235321,7.0,20.0,51.0,36.40054944640259
404,50,797,26.593233333332908,7.0710678118654755,84.34453153583817,9.486832980505138,17.26267650163207,18.24828759089466,20.615528128088304,22.090722034374522,55.731499172371095,38.47076812334269,34.5,43.0,28.0,13.5,19.5,4.5,6.5,8.06225774829855,9.219544457292887,8.0,19.0,53.0,34.539832078341085
405,50,798,26.626599999999573,7.0,87.29833904490967,9.219544457292887,18.24828759089466,19.4164878389476,21.587033144922902,21.37755832643195,55.731499172371095,37.48332962798263,33.5,43.0,28.0,14.5,19.5,3.5,7.5,8.06225774829855,8.246211251235321,7.5,21.0,54.0,33.83784863137726
406,50,799,26.65996666666624,9.0,87.13208364316786,10.44030650891055,16.278820596099706,18.24828759089466,21.37755832643195,21.213203435596427,56.71860364994893,40.44749683231337,35.5,44.0,30.0,16.0,19.0,4.0,8.0,8.06225774829855,9.486832980505138,8.0,21.0,54.0,37.0
407,50,800,26.693333333332905,7.0710678118654755,86.49277426467485,10.198039027185569,17.26267650163207,19.4164878389476,22.561028345356956,21.213203435596427,55.44366510251645,38.2099463490856,34.5,45.0,29.0,16.0,18.0,3.0,9.0,8.06225774829855,9.219544457292887,8.5,22.0,53.0,32.89376840679705
408,50,801,26.72669999999957,12.041594578792296,86.83317338436964,9.219544457292887,16.1245154965971,20.223748416156685,22.360679774997898,21.095023109728988,58.215118311311535,42.1070065428546,36.0,45.0,33.0,18.0,19.0,4.0,11.0,6.708203932499369,7.0710678118654755,6.5,23.0,51.0,33.24154027718932
409,50,802,26.76006666666624,14.0,86.37129152675674,10.04987562112089,18.110770276274835,20.09975124224178,23.08679276123039,21.02379604162864,63.12685640834652,45.044422518220834,38.0,46.0,38.0,21.0,21.0,3.0,12.0,5.830951894845301,7.0,6.0,26.0,47.0,36.49657518178932
410,50,803,26.793433333332903,14.0,86.05230967266364,12.041594578792296,19.026297590440446,22.02271554554524,24.020824298928627,21.02379604162864,66.06814663663572,47.042533945356304,40.0,47.0,44.0,24.5,20.5,1.5,13.5,6.324555320336759,7.0710678118654755,6.0,30.0,42.0,37.21558813185679
411,50,804,26.82679999999957,14.035668847618199,86.14522621712709,12.0,20.0,20.024984394500787,22.02271554554524,20.024984394500787,66.0,46.0,39.0,43.0,48.0,25.5,20.5,0.5,13.5,6.082762530298219,8.246211251235321,7.0,36.0,40.0,36.013886210738214
412,50,805,26.860166666666235,16.1245154965971,84.5931439302264,11.0,17.029386365926403,22.090722034374522,23.194827009486403,20.09975124224178,64.19501538281614,47.16990566028302,39.0,41.0,51.0,26.0,18.0,0.0,14.0,6.0,7.280109889280518,6.0,37.0,32.0,34.0
413,50,806,26.8935333333329,12.041594578792296,82.76472678623425,11.045361017187261,16.278820596099706,20.396078054371138,21.37755832643195,22.561028345356956,61.814237842102365,45.5411901469428,39.0,38.0,55.0,24.5,14.5,2.5,11.5,5.0,7.211102550927978,5.5,40.0,25.0,37.21558813185679
414,50,807,26.926899999999566,13.152946437965905,83.67795408588812,10.04987562112089,16.492422502470642,21.587033144922902,22.80350850198276,21.37755832643195,61.0,44.553338819890925,37.5,36.0,57.0,25.5,13.5,5.5,12.5,6.324555320336759,8.602325267042627,6.5,44.0,18.0,33.734255586866
415,50,808,26.960266666666232,11.40175425099138,84.77027781009096,10.44030650891055,14.560219778561036,20.8806130178211,23.08679276123039,23.53720459187964,59.90826320300064,45.35416188179427,38.5,35.0,60.0,24.5,10.5,6.5,11.5,4.47213595499958,8.48528137423857,5.0,45.0,13.0,35.90264614203248
416,50,809,26.993633333332895,12.649110640673518,85.38149682454625,10.198039027185569,15.811388300841896,21.18962010041709,22.47220505424423,22.80350850198276,61.40032573203501,45.60701700396552,38.0,34.0,61.0,25.5,11.5,5.5,11.5,6.708203932499369,8.602325267042627,6.5,47.0,13.0,35.4400902933387
417,50,810,27.026999999999564,10.44030650891055,84.50443775329198,10.44030650891055,15.811388300841896,21.540659228538015,21.540659228538015,24.041630560342615,60.728905802755904,44.9221548904324,38.0,33.0,63.0,25.0,10.0,8.0,10.0,6.324555320336759,8.602325267042627,6.5,49.0,10.0,35.73513677041127
418,50,811,27.06036666666623,10.44030650891055,86.16263691415206,9.486832980505138,14.317821063276353,20.615528128088304,21.93171219946131,25.298221281347036,59.464274989274024,45.221676218380054,38.0,31.0,63.0,23.0,9.0,8.0,9.0,5.830951894845301,9.219544457292887,6.0,48.0,10.0,31.953090617340916
419,50,812,27.093733333332896,9.219544457292887,78.71467461661771,10.44030650891055,12.529964086141668,21.02379604162864,21.470910553583888,23.08679276123039,55.02726596879042,42.720018726587654,36.5,29.0,65.0,25.0,5.0,12.0,10.0,8.94427190999916,10.816653826391969,8.0,45.0,6.0,31.016124838541646
420,50,813,27.12709999999956,12.649110640673518,85.09406559801923,9.486832980505138,12.083045973594572,21.840329667841555,22.847319317591726,20.615528128088304,54.70831746635972,42.720018726587654,35.0,28.0,57.0,22.5,9.5,5.5,10.5,8.54400374531753,10.295630140987,8.0,48.0,8.0,36.05551275463989
421,50,814,27.160466666666228,9.486832980505138,84.86459803710851,7.615773105863909,12.529964086141668,18.788294228055936,20.591260281974,25.298221281347036,54.78138369920935,42.37924020083418,35.5,28.0,59.0,19.5,7.5,6.5,8.5,8.54400374531753,9.433981132056603,7.5,50.0,9.0,34.17601498127012
422,50,815,27.193833333332893,8.94427190999916,86.92525524840292,9.219544457292887,14.866068747318506,20.615528128088304,23.259406699226016,23.08679276123039,55.97320787662612,41.10960958218893,35.0,26.0,60.0,21.0,10.0,8.0,8.0,8.54400374531753,10.816653826391969,8.5,51.0,10.0,35.11409973215888
423,50,816,27.22719999999956,5.830951894845301,87.84645695758026,9.486832980505138,14.317821063276353,21.540659228538015,21.93171219946131,25.0,54.42425929675111,40.162171256046406,35.5,25.0,59.0,18.0,9.0,8.0,5.0,7.615773105863909,10.0,7.0,48.0,9.0,30.675723300355934
424,50,817,27.260566666666225,8.94427190999916,86.92525524840292,8.246211251235321,14.317821063276353,20.615528128088304,23.706539182259394,25.0,56.302753041036986,42.05948168962618,36.0,25.0,59.0,18.0,11.0,7.0,6.0,8.94427190999916,10.295630140987,8.5,49.0,8.0,32.89376840679705
425,50,818,27.29393333333289,6.708203932499369,88.23831367382311,9.486832980505138,17.08800749063506,21.93171219946131,23.259406699226016,24.041630560342615,57.245087125446844,40.162171256046406,35.0,23.0,58.0,17.5,13.5,7.5,4.5,9.848857801796104,11.180339887498949,9.5,50.0,9.0,33.24154027718932
426,50,819,27.32729999999956,8.06225774829855,88.23831367382311,9.486832980505138,17.08800749063506,21.93171219946131,24.596747752497688,24.041630560342615,58.52349955359813,41.43669871020132,35.5,23.0,58.0,17.5,14.5,6.5,4.5,8.94427190999916,10.816653826391969,8.5,50.0,9.0,33.83784863137726
427,50,820,27.360666666666223,8.06225774829855,85.90692637965812,9.486832980505138,16.15549442140351,21.470910553583888,22.825424421026653,23.08679276123039,56.64803615307419,40.496913462633174,34.5,22.0,58.0,18.0,13.0,7.0,4.0,10.770329614269007,11.180339887498949,9.5,51.0,8.0,36.05551275463989
428,50,821,27.39403333333289,5.830951894845301,87.32124598286491,9.486832980505138,16.15549442140351,21.02379604162864,23.259406699226016,24.041630560342615,55.362442142665635,39.21734310225516,34.5,22.0,57.0,16.5,12.5,7.5,3.5,13.0,13.92838827718412,12.0,53.0,10.0,36.40054944640259
429,50,822,27.427399999999555,7.211102550927978,88.63972021616495,8.54400374531753,15.231546211727817,21.540659228538015,23.706539182259394,23.769728648009426,54.42425929675111,39.21734310225516,34.0,21.0,57.0,16.0,12.0,7.0,4.0,9.848857801796104,12.083045973594572,10.0,51.0,9.0,36.05551275463989
