,video_id,frame_seq,time_seconds,m1,m3,m4,m5,m6,m7,m8,m9,m10,m11,m12,m13,m14,m15,m16,m17,e1,e2,e3,b1,b2,b3,label_measures
0,168,0,0.0,22.833053116189756,149.9423110039773,9.66866826752347,19.337336535047008,46.13609569353153,47.74463908961653,53.093091871677416,104.56544641644132,85.41241653809122,73.95109224983639,92.91291077543552,68.26254669215666,27.49463686211868,23.7022731569989,6.636636483959705,21.80609130443895,17.17065696687689,17.17065696687689,17.065636673039194,41.71600075631801,60.677819281917095,51.33717578887198,"{'others': ['m1', 'm3', 'm12', 'e1', 'e2']}"
1,168,1,0.0333666666666666,21.40194475466631,157.35305952734544,11.48548879731095,21.14356170419321,44.68857262509714,48.46489173656554,49.91748412823833,103.81156647417431,82.66804176998677,71.78430498319335,91.88391037848749,65.08443651809534,28.71372199327743,24.885225727506963,7.656992531540482,21.05672946173684,17.334254093235565,17.648495763424574,17.228233195966425,44.02770705635862,61.25594025232499,45.98181806458656,"{'others': ['m1', 'm3', 'm12', 'e1', 'e2']}"
2,168,2,0.0667333333333332,17.809726845605695,160.69443720304935,11.750291962159038,22.025180279948916,48.907651677538425,50.816042888053424,48.33202175847505,99.4422020327257,77.65483011599034,68.57663151880354,92.72333275781888,65.67902737012173,30.907777585939694,19.317360991212126,1.9317360991211672,25.11256928857597,11.590416594727344,11.750291962159002,11.590416594727344,46.361666378909376,63.74729127100039,48.639872143282496,"{'others': ['m1', 'm3', 'm12', 'e1', 'e2']}"
3,168,3,0.1000999999999998,17.90434875062067,153.56536635665807,7.767997142834133,19.80458450642192,49.167494807736986,49.167494807736745,52.4699313393438,97.5842563883811,77.89813997868673,68.94097464265246,91.27396642830048,66.02797571408962,26.21699035706501,18.44899321423088,0.9709996428542808,22.332991785648005,5.492803455935742,8.007068179850284,7.767997142834133,48.54998214271302,66.02797571408968,45.04433748455533,"{'others': ['m1', 'm3', 'm12', 'e1', 'e2']}"
4,168,4,0.1334666666666664,21.36589345617311,154.2900697758325,13.540639727437224,23.53271313437781,44.867542296526594,48.97451657839966,44.53270521189169,102.81355335740356,79.40376505294775,68.67038718914591,83.17821546854282,61.90006732542725,28.04846800683424,29.982845110753715,8.704696967638142,18.376582487236305,6.974495834265653,7.737508415678405,7.737508415678405,50.29380470190961,65.76882153326642,42.73178691234645,"{'others': ['m1', 'm3', 'm12', 'e1', 'e2']}"
5,168,5,0.166833333333333,15.63259825357036,148.63304742028504,13.572896227249204,23.348473375507783,43.05245765908258,46.89779476071091,48.47462938303295,100.90177790997387,77.58364054164682,69.80346631156738,85.31534771413806,65.92549596092488,27.14579245449852,25.20680727917704,5.816955525963863,17.45086657789193,6.131609503316218,7.755940701285283,6.786448113624658,52.35259973367562,63.98651078560352,42.83358253679628,"{'others': ['m1', 'm3', 'm12', 'e1', 'e2']}"
6,168,6,0.2001999999999996,4.336772794336964,142.65279992981706,15.515710033774551,23.273565050661887,41.14223917427311,41.14223917427311,50.463341206439296,85.42451714024484,62.18393847490297,64.00230388932005,81.45747767731643,64.00230388932005,22.30383317355097,12.606514402441803,6.788123139776417,10.667050648220084,6.133122902681946,5.818391262665443,6.78812313977636,48.48659385554544,60.12337638087638,44.77599776163712,"{'others': ['m1', 'm3', 'm12', 'e1', 'e2']}"
7,168,7,0.2335666666666662,4.404121985078176,145.12233522401164,11.81749936780352,21.754757806295327,39.83235568709159,41.78116969820827,53.17874715511607,82.81623214359243,61.08883927853043,63.0266632949523,80.7529123466577,61.05708006698512,17.726249051705395,11.817499367803409,5.908749683901874,9.847916139836345,7.101433319729728,7.878332911869052,6.893541297885406,47.2699974712142,61.05708006698501,41.54840371050405,"{'others': ['m1', 'm3', 'm12', 'e1', 'e2']}"
8,168,8,0.2669333333333328,4.383604418942017,138.35811124939923,13.862174325035618,21.5644824278902,37.45353257343108,37.70919105378462,54.92640593719528,86.2802041934584,64.7231436117359,66.65385477711493,80.37670723122687,62.7330397902258,16.663463694278676,14.703056200834226,2.940611240166845,6.861426227055972,4.383604418942017,6.199352821346431,5.88122248033369,50.97059482955848,62.73303979022586,47.09060395433494,"{'others': ['m1', 'm3', 'm12', 'e1', 'e2']}"
9,168,9,0.3002999999999994,1.9704194422639605,137.11061429832387,11.822516653583762,19.70419442263972,33.72814794924841,35.956780657123,55.3123095650511,88.75640589545509,69.07718411108908,67.9794707581068,82.75761657508656,65.0238415947108,18.71898470150768,14.77814581697976,2.955629163395997,8.866887490187878,4.405991817089387,5.911258326791881,5.911258326791881,53.20132494112698,61.08300271018288,41.42569647061727,"{'others': ['m1', 'm3', 'm12', 'e1', 'e2']}"
10,168,10,0.333666666666666,1.9703477250156995,139.32462376540948,13.792434075109895,25.61452042520432,37.9003952257176,42.12122341487586,49.41606954272588,90.72162219584771,65.14078048442249,64.03630106301057,80.78425672564413,61.08077947548702,21.673824975172806,19.703477250157107,1.9703477250156995,11.82208635009431,5.572984950616351,5.911043175047098,6.896217037554948,51.22904085040847,61.08077947548702,39.60349913353279,"{'others': ['m1', 'm3', 'm12', 'e1', 'e2']}"
11,168,11,0.3670333333333326,2.732747942740486,133.107549009315,11.75399333814817,23.188135219025757,37.16939055099407,39.07925107578318,52.20907613884658,85.04511809632976,61.86521276742256,62.80119955152804,79.2261286650047,57.97033804756438,16.424929113476537,16.42492911347665,4.830861503963661,10.6278953087201,5.465495885481173,3.8646892031709967,4.8308615039637175,50.2409596412225,57.97033804756438,38.64689203170974,"{'others': ['m1', 'm3', 'm12', 'e1', 'e2']}"
12,168,12,0.4003999999999992,1.9607843137255256,135.4219345084863,17.647058823529505,25.49019607843138,35.51131426720552,39.6544086591308,47.42504557822669,90.53644220090354,65.17949073958694,64.70588235294122,60.784313725490165,54.9019607843137,10.78431372549028,32.35294117647061,8.823529411764639,2.941176470588175,6.200544431702638,5.882352941176464,5.882352941176464,52.94117647058823,62.745098039215634,43.18179518734348,"{'others': ['m1', 'm3', 'm12', 'e1', 'e2']}"
13,168,13,0.4337666666666658,3.9602019358451344,137.54220895160023,17.820908711303446,29.70151451883896,35.86115375387552,38.44660636355747,43.74186008237405,95.12731488921447,65.46322806417841,63.36323097352317,69.30353387729099,53.46272613391022,17.820908711303446,33.6617164546841,5.9403029037677015,1.9801009679226809,4.427640366588042,7.920403871690382,7.920403871690382,55.44282710183268,67.32343290936831,39.79953688976623,"{'others': ['m1', 'm3', 'm12', 'e1', 'e2']}"
14,168,14,0.4671333333333324,0.0,135.7222052419044,14.266801472725543,28.31879233994481,38.80989589705196,41.151747397421495,52.49717699562196,95.02161044872628,66.70397219334731,66.58180364356224,86.75810777797506,60.52891240323834,21.18511934113349,21.18511934113349,3.026445620161894,11.09696727392702,6.380307582901602,6.052891240323845,6.052891240323845,48.42312992259076,62.54654281667968,38.334977855384295,"{'others': ['m1', 'm3', 'm12', 'e1', 'e2']}"
15,168,15,0.5004999999999991,2.833496534643536,142.2968305587083,14.025092298805587,28.121650151902116,40.519991166345605,43.25144747355955,56.13613609027742,100.3593913221375,72.24027060922644,71.1272538010852,86.15413840694828,62.11112303756738,18.03226152703576,26.04659998349598,0.0,8.014338456460337,5.666993069287233,4.480151395833962,4.007169228230168,42.0752768964166,62.11112303756733,44.26063078276564,"{'others': ['m1', 'm3', 'm12', 'e1', 'e2']}"
16,168,16,0.5338666666666656,7.577578909869317,136.4095752622194,15.273098569859156,26.79078716072346,38.63822272721254,41.37420536890697,49.2542629141501,98.67232764719787,72.01192157617963,68.19821018882317,79.56457855362703,56.83184182401931,18.943947274673064,30.31031563947693,7.577578909869203,9.471973637336532,5.990602126210611,7.810789557960843,5.683184182401931,37.88789454934624,62.515026006421294,38.31176236919274,"{'others': ['m1', 'm3', 'm12', 'e1', 'e2']}"
17,168,17,0.5672333333333321,4.261690402335908,143.90385053336507,15.365743265774649,29.15444799674507,41.14242182900393,43.46088504480304,49.58967118824176,97.87053428902706,68.84971552068562,66.7060060707696,78.1413213971872,49.5530330811431,14.29414415802205,33.35300303538486,8.576486494813253,4.764714719340645,6.871769293416399,6.026940365618566,5.717657663208854,40.02360364246175,70.51777784624215,48.59074666124167,"{'others': ['m1', 'm3', 'm12', 'e1', 'e2']}"
18,168,18,0.6005999999999987,6.912931883487061,140.12056841620267,15.457785615302866,27.451591772924832,46.09507443774256,47.93255840327407,50.43634986503488,90.68252274321712,63.24192038489176,63.27097709232192,86.27860512589336,46.01525606714313,16.29706985711323,22.04897686550612,0.9586511680655576,10.545162848720338,6.912931883487093,6.063042345335567,4.79325584032739,30.676837378095456,65.18827942845286,40.98724252004391,"{'others': ['m1', 'm3', 'm12', 'e1', 'e2']}"
19,168,19,0.6339666666666652,5.928691667287694,155.621098139975,16.296414643963704,26.87964162266558,49.4057638940627,50.65476381013743,49.76021393484596,93.9489281127593,67.1045956145135,65.2156083401627,94.85906667660038,47.42953333830019,21.738536113387568,19.76230555762504,0.0,13.833613890337574,10.642327239676115,11.52330530377458,9.88115277881252,33.595919447962615,79.04922223050028,48.88924393189148,"{'others': ['m1', 'm3', 'm12', 'e1', 'e2']}"
20,168,20,0.6673333333333318,7.6176658548688465,157.8254624515945,13.466257956977431,26.52545194811529,49.98866495870819,52.39741563215516,48.55328355250728,90.3344045830472,63.847674379099765,60.941326838950886,95.2208231858607,41.89716220177877,20.948581100889328,17.139748173454905,1.904416463717212,17.139748173454905,8.07975477418643,6.8664712097702125,5.713249391151692,22.8529975646066,74.27224208497137,49.98866495870819,"{'others': ['m1', 'm3', 'm12', 'e1', 'e2']}"
21,168,21,0.7006999999999983,6.253359640577893,160.85848484260876,16.306766883780963,28.79263002994777,51.90665196422063,54.40782263918214,48.478663949658525,96.97749163623034,68.1874318174186,64.26829335029322,94.91932556351004,37.572233035556,18.78611651777805,26.69606031473711,4.943714873099452,14.83114461929847,9.887429746198858,8.843586014101799,7.909943796959169,23.729831390877507,75.1444660711121,44.43846974320336,"{'others': ['m1', 'm3', 'm12', 'e1', 'e2']}"
22,168,22,0.7340666666666649,14.22443778678778,167.80802446227048,14.360559910179363,24.95131446207225,49.90262892414444,53.65983071075245,47.9948116521494,100.52391937125596,75.60392388886308,67.0675366679601,88.76585735465312,37.47891754974239,15.780596863049482,33.53376833397999,15.780596863049368,11.835447647287085,9.86287303940585,8.368925289775147,7.890298431524684,21.698320686692966,80.87555892312838,51.28693980491068,"{'others': ['m1', 'm3', 'm12', 'e1', 'e2']}"
23,168,23,0.7674333333333314,19.04049860848412,154.67366041867655,14.074416039510544,25.13250641766336,48.90828528530191,50.74602870266803,44.08533259779411,102.09787591655808,77.0402527380467,64.7645357685941,90.8636770484752,42.5319339375842,24.165871555445506,29.96568072875243,10.63298348439605,20.299332106574298,9.666348622178155,9.666348622178155,7.733078897742587,25.132506417663365,77.33078897742575,43.44483367268008,"{'others': ['m1', 'm3', 'm12', 'e1', 'e2']}"
24,168,24,0.800799999999998,21.19662150950406,162.44518569301448,12.447084735781177,23.03551541831709,51.65915063935498,54.14839523100483,50.59858596725584,107.0738715236303,84.07542761056571,70.85004838953012,96.43478808574925,43.29725179360173,20.664597446946345,32.47293884520127,14.76042674781877,18.69654054723719,11.475645108522558,8.80141802267436,7.87222759883673,25.58473969621923,76.75421908865763,42.39324301900837,"{'others': ['m1', 'm3', 'm12', 'e1', 'e2']}"
25,168,25,0.8341666666666645,19.131887075957625,155.4160458506346,12.28575745831791,22.73695096999165,50.989593847092806,52.843040904222825,47.62216963534254,101.40402531267875,78.71518456514886,67.01793420148317,89.35724560197752,40.79352516612016,18.45421376562581,32.052055487665825,14.569116130757152,16.511664948191537,12.285757458317963,11.32690870784808,8.741469678454337,25.253134626645817,73.81685506250318,43.65335535326309,"{'others': ['m1', 'm3', 'm12', 'e1', 'e2']}"
26,168,26,0.867533333333331,19.1057702908014,157.753115917776,11.799933147189808,20.89333075038552,49.07594507853873,50.91998836267767,49.114270695530536,100.21967075897416,79.53577944642537,68.86634561824633,89.23526474477,44.61763237238495,18.429022066854717,30.068404424868163,14.549227947516895,16.48912500718575,10.446665375192715,9.699485298344552,8.729536768510116,27.15855883536477,73.71608826741868,43.59376450900545,"{'others': ['m1', 'm3', 'm12', 'e1', 'e2']}"
27,168,27,0.9008999999999976,14.005067844767469,154.5953057589567,10.35967857988284,22.51684642750269,49.94329948765637,52.33149503524043,44.91025627879109,91.45374655875848,69.06750072086312,60.597936544852814,88.4922247956581,44.24611239782905,22.123056198914583,22.12305619891447,6.733104060539176,20.199312181617643,11.217258822854806,10.359678579882926,9.61872008648453,25.00867222485988,69.25478462268893,41.43871431953162,"{'others': ['m1', 'm3', 'm12', 'e1', 'e2']}"
28,168,28,0.934266666666664,8.380019039424845,155.26798146242427,11.398058182737923,17.776704867749128,40.925047960409216,43.26070692955622,46.99539781436406,83.80019039424883,66.24986750039749,61.8363643421585,89.94380267950339,43.09807211726206,19.675206836141456,15.927548391161965,2.810743833734364,15.92754839116219,10.9262080554925,10.090879183531476,10.306060723693063,20.612121447386187,71.20551045460684,48.03001168511106,"{'others': ['m1', 'm3', 'm12', 'e1', 'e2']}"
29,168,29,0.9676333333333308,17.7174072732076,159.4450850336043,10.34879310613598,18.23106167849204,49.40733573068502,52.2765075073019,44.57402409221984,90.46395768443216,72.3650424256253,62.45598565596822,90.32096387170782,48.04306588920633,24.982394262387288,19.21722635568256,5.765167906704846,23.06067162681893,10.34879310613596,10.348793106135927,9.608613177841278,26.90411689795553,71.10373751602538,40.72057258606361,"{'others': ['m1', 'm3', 'm12', 'e1', 'e2']}"
