,video_id,frame_seq,time_seconds,m1,m3,m4,m5,m6,m7,m8,m9,m10,m11,m12,m13,m14,m15,m16,m17,e1,e2,e3,b1,b2,b3
0,234,0,0.0,12.579331644451145,128.97649527449605,12.579331644451258,28.47767320521613,34.593162022240676,37.86880293366343,53.55457469962081,106.9243189778349,78.68369429748564,72.33115695559434,81.76565568893261,78.62082277781985,26.731079744458725,26.731079744458725,1.572416455556322,14.151748100007467,18.868997466676774,19.12927179576556,18.868997466676774,37.73799493335355,59.75182531114302,57.38781538729653
1,234,1,0.0333666666666666,12.579331644451145,132.2326514164731,15.724164555564016,28.47767320521613,41.003604556174054,41.00360455617404,50.31732657780469,106.97055652333779,78.62082277781985,72.33115695559434,84.91048860004537,78.62082277781985,31.44832911112792,25.15866328890229,0.0,18.868997466676774,16.035564380752955,15.724164555563902,17.296581011120338,34.593162022240676,59.75182531114302,51.194170764715025
2,234,2,0.0667333333333332,19.018292442007805,136.44511147651937,12.67886162800528,25.357723256010445,38.168427861261506,41.691096971883496,50.715446512021,107.77032383804453,82.41260058203409,72.90345436103019,85.58231598903535,79.24288517503282,31.697154070013084,25.357723256010445,0.0,19.018292442007805,16.16244071283538,16.162440712835426,17.43343473850723,34.86686947701446,60.224592733024906,54.717771673302636
3,234,3,0.1000999999999998,22.01383037778953,135.5565260845974,12.579331644451145,25.158663288902403,37.86880293366344,41.363818836219075,50.31732657780469,110.06915188894777,84.91048860004537,73.90357341115066,88.05532151115824,78.62082277781985,33.020745566684354,26.731079744458725,1.572416455556322,20.44141392223321,19.12927179576556,19.12927179576556,18.868997466676774,34.593162022240676,59.75182531114302,51.194170764715025
4,234,4,0.1334666666666664,22.01383037778953,132.2326514164731,18.868997466676774,25.158663288902403,34.735814841972726,37.86880293366344,53.46215948891745,119.50365062228616,94.34498733338376,83.33807214448905,91.200154422271,84.91048860004537,34.59316202224079,31.44832911112792,6.2896658222255155,18.868997466676774,15.724164555564016,19.12927179576556,18.868997466676774,34.593162022240676,59.75182531114302,51.194170764715025
5,234,5,0.166833333333333,18.876583228183904,135.428430849885,18.876583228183904,22.246266677135125,34.749779421045574,37.75316645636781,59.77584688924901,119.5930826299296,97.52901334561682,88.09072173152492,94.38291614091952,88.09072173152492,31.46097204697321,28.3148748422758,6.292194409394597,12.584388818789307,19.136962193408806,19.13696219340877,18.876583228183904,37.75316645636781,62.921944093946365,58.01116609134347
6,234,6,0.2001999999999996,9.434498733338387,141.8316156396598,22.23732677146486,18.868997466676774,34.735814841972726,34.735814841972726,56.60699240003021,106.97055652333779,88.11146134568558,83.33807214448893,91.20015442227088,81.7656556889325,29.875912655571483,20.44141392223321,1.5724164555564357,11.006915188894709,19.12927179576556,19.12927179576556,20.44141392223321,37.73799493335355,62.89665822225584,54.92214564125783
7,234,7,0.2335666666666662,15.848577035006542,152.44321072476563,16.16244071283538,22.188007849009182,38.16842786126128,38.168427861261286,60.224592733024906,114.15376998816896,91.9763808327073,83.99745828553466,91.92174680303799,82.41260058203397,26.942580959511133,26.942580959511133,7.924288517503214,11.094003924504591,19.28062610941661,22.413272587221027,20.603150145508494,38.036584884015724,60.224592733024906,57.84187832824945
8,234,8,0.2669333333333328,21.864326664404757,156.45462211289197,15.926661187624031,21.86432666440487,37.61162249014875,41.082902502729674,56.22255427989819,115.61078521719585,93.75630060128773,82.77209380096122,87.45730665761948,78.08688094430306,26.549539521063025,32.796489996607306,10.932163332202435,10.932163332202322,18.999358140634605,18.99935814063457,18.740851426632844,37.48170285326546,62.46950475544247,54.54914991177757
9,234,9,0.3002999999999994,18.72943451943445,166.17792733175398,15.91695868219241,24.97257935924597,43.81335676965521,43.81335676965521,56.18830355830346,115.54035524707896,90.57940440203306,81.16088291754943,90.5256001772666,74.91773807773791,26.533365569198736,32.77651040901037,7.803931049764401,14.047075889575808,18.72943451943445,18.72943451943445,18.72943451943445,37.4588690388689,62.43144839811481,53.886694861249474
10,234,10,0.333666666666666,24.78758917246853,173.95519657778746,18.590691879351425,24.78758917246853,43.488799144446745,46.88803620879825,49.671910492225656,117.78181057445198,93.00508587082706,80.5596648105228,83.6581134570813,71.26431887084709,27.886037819027138,40.279832405261345,15.492243232792816,12.393794586234208,18.590691879351425,18.847127329339674,18.590691879351425,34.08293511214413,58.87052428461271,53.48751664246029
11,234,11,0.3670333333333326,24.579777002424976,175.80340770742606,15.36236062651551,21.507304877121783,49.25547517704505,49.54212439731259,49.25547517704517,110.65166150633135,89.15464955325564,76.8118031325779,79.88427525788097,64.52191463136535,23.043540939773266,38.405901566289,19.9710688144703,10.753652438560835,18.434832751818703,18.68911831917955,18.434832751818703,36.86966550363741,61.44944250606227,52.59225126864257
12,234,12,0.4003999999999992,24.392681387818357,177.26700464413153,15.24542586738653,21.34359621434112,48.88055381791026,52.19193113662221,48.880553817910155,109.8094064844605,88.47602484679271,76.22712933693253,76.22712933693253,64.03078864302336,21.34359621434112,39.638107255204886,18.294511040863767,9.14725552043194,15.547344798167233,18.546861044915545,18.29451104086388,36.58902208172765,57.93261829606877,52.6353709756615
13,234,13,0.4337666666666658,21.351661991312085,183.6486123448497,18.30142456398187,24.591800332643967,48.8990258523958,49.18360066528793,45.855123269462084,109.97787446578766,85.46109913301468,74.73081696959241,76.25593568325758,61.00474854660604,22.876780704977364,41.178205268959005,16.77630585031659,7.625593568325826,18.30142456398187,21.568435690942632,19.82654327764692,36.60284912796362,57.954511119275764,58.67248839398255
14,234,14,0.4671333333333324,18.15630640455413,179.17697851485934,15.429893441931764,24.208408539405468,48.51128900684568,45.79246203635485,48.51128900684568,106.08456363684166,81.92722411345159,72.6252256182164,75.65127668564207,60.521021348513614,19.669331938266964,37.82563834282098,16.64328087084118,7.565127668564287,18.15630640455413,18.406750047705792,19.66933193826685,36.31261280910826,60.52102134851367,61.719573767727525
15,234,15,0.5004999999999991,18.398854334037335,182.11424784477887,18.148518120567132,24.198024160756177,48.490479725103846,51.50968784069213,45.772819015860634,106.25454083187459,82.1709106341005,72.59407248226842,75.61882550236294,60.49506040189033,22.685647650708916,37.809412751181526,13.61138859042535,7.561882550236305,21.17327114066154,21.17327114066154,19.66089463061428,36.297036241134265,60.495060401890385,61.69309869304249
16,234,16,0.5338666666666656,30.411436850788192,176.1619209062566,12.104204269702791,21.1823574719798,48.51128900684568,51.53179279021596,48.51128900684568,112.12734051534146,90.98304510540403,75.65127668564207,78.67732775306774,63.5470724159394,22.695383005692634,40.85168941024676,19.669331938266964,10.591178735989843,18.15630640455413,18.406750047705792,19.66933193826685,39.338663876533815,60.52102134851367,58.207254472163505
17,234,17,0.5672333333333321,42.04706649821094,171.61263467662198,15.314200897407888,24.02689514183487,48.1475538660648,51.145410067988244,48.14755386606469,129.28417717017405,105.28914705486442,84.09413299642188,84.09413299642188,72.08068542550438,30.03361892729356,51.05715217639897,27.0302570345641,15.016809463646837,21.023533249105412,21.23697560706184,19.52185230274074,39.043704605481594,60.06723785458706,57.77081948283735
18,234,18,0.6005999999999987,33.525329981416235,171.10924713683045,18.538783729712804,27.429815439340587,48.85926592237291,51.901436118064865,51.901436118064865,131.1952422231954,103.8028722361296,86.86108222457835,88.3849608600973,76.193931775946,30.477572710378354,48.76411633660541,21.334300897264825,12.19102908415141,24.382058168302706,21.550898337614584,21.33430089726494,42.66860179452976,64.00290269179459,61.25916299459415
19,234,19,0.6339666666666652,15.23878635518929,158.7469072187674,18.286543626226944,30.629581497297057,42.777311784207555,45.817838344852795,54.85963087868106,118.90160096136475,88.3849608600973,80.76556768250259,88.3849608600973,79.24168904698377,28.953694074859413,35.049208616935175,4.571635906556821,13.714907719670236,24.382058168302706,21.33430089726494,24.38205816830282,48.76411633660541,73.14617450490812,68.14992436959837
20,234,20,0.6673333333333318,18.148518120567132,148.24375959828905,18.148518120567132,30.247530200945107,39.43795432748814,42.454431735879524,51.509687840692244,118.00414029674089,87.76997300344068,78.64357852245746,81.66833154255198,78.64357852245746,28.73515369089796,37.80941275118141,7.561882550236305,13.61138859042535,24.198024160756063,27.390303544700203,27.2227771808507,57.47030738179586,84.6930845626465,70.61357025212028
21,234,21,0.7006999999999983,23.838152018894334,134.1227095642855,17.878614014170694,29.79769002361786,38.851434494290665,41.823050959547814,47.67630403778867,119.19076009447156,89.3930700708537,77.47399406140653,83.43353206613006,80.45376306376829,34.267343527160506,37.24711252952238,7.449422505904522,16.388729512989812,23.838152018894334,26.982955939069495,26.817921021256097,62.5751490495976,89.3930700708537,70.1354326451306
22,234,22,0.7340666666666649,21.22800185751386,138.1288969825037,18.261017674771992,33.15919892555879,39.14250137296932,42.13638057164749,48.127208968667986,120.08371251590972,87.11243641757714,76.55336672889246,84.05859876113675,81.05650594823908,34.524067348324024,37.52616016122181,7.5052320322444075,19.513603283835323,24.016742503181945,24.20364604189632,24.016742503181945,60.04185625795492,90.06278438693238,70.08456238860659
23,234,23,0.7674333333333314,23.671902753507993,142.06223596733088,17.753927065131165,29.589878441885162,41.42582981863916,44.483341241688734,47.43618375194441,118.39649533812508,88.81893809831267,76.93368394890138,82.85165963727843,79.8926717930899,34.02836020816801,36.98734805235631,7.397469610471148,16.274433143036845,23.671902753508107,27.28051997808526,26.630890597696634,62.13874472795868,88.76963532565532,71.99528154495107
24,234,24,0.800799999999998,23.838152018894334,128.16471089483613,17.878614014170807,29.94630785340743,35.881170264892965,41.82305095954759,50.74363762242998,122.17052909683343,92.42088736727005,80.4537630637684,86.41330106849193,83.43353206613017,34.26734352716062,37.24711252952238,10.429191508266285,19.368498515351575,23.83815201889422,26.982955939069495,26.817921021256097,62.575149049597655,89.39307007085375,69.56340778421314
25,234,25,0.8341666666666645,18.156306404554016,139.23123707583875,18.406750047705906,30.26051067425692,42.4726506983685,42.3647149439596,54.55291142887917,121.04204269702734,90.78153202277042,81.70337882049341,90.78153202277042,87.75548095534475,34.79958727539531,31.773536207969755,1.5130255337128347,19.66933193826685,24.208408539405468,27.402057863211382,27.234459606831138,60.521021348513614,84.72942988791908,70.64387347218519
26,234,26,0.867533333333331,12.093135668867262,139.10391809206266,18.139703503300666,27.37700025233473,39.41879956946041,42.32597484103508,54.419110509902225,111.90235266704325,84.65194968207015,78.60538184763652,84.65194968207015,81.62866576485328,28.72119721355955,28.721197213559435,1.5116419586083794,13.604777627475642,24.186271337734297,24.37449418688743,24.186271337734297,60.4656783443358,81.62866576485334,70.5792737001127
27,234,27,0.9008999999999976,9.493451035978575,141.38550445001633,18.012556877386487,27.01883531607973,39.142501372969086,39.14250137296909,54.03767063215935,108.11702895777438,81.11208120738962,76.55336672889246,87.06069157403454,78.0544131353414,28.519881722528567,25.517788909630895,1.501046406448836,13.509417658039752,24.016742503181945,24.203646041896206,24.016742503181945,57.039763445057076,78.05441313534129,70.08456238860659
28,234,28,0.934266666666664,11.819469682449835,144.9090602533873,14.774337103062408,23.638939364899784,41.473540604332456,44.323011309186995,53.269629986081426,103.46256350190016,79.83612137109249,73.87168551531181,79.78142035653673,73.87168551531181,23.638939364899784,26.593806785512243,2.9548674206124588,11.819469682449835,20.894067906222816,23.822902757027844,23.63893936489967,53.18761357102443,73.87168551531175,66.07284416988945
29,234,29,0.9676333333333308,12.086578036702463,157.2416886257031,15.407424315426857,27.36215478112333,45.42527745652002,45.42527745652002,54.38960116516091,108.94694214056867,81.64033895126045,75.54111272939008,81.58440174774137,75.54111272939008,24.17315607340481,30.2164450917561,3.021644509175644,12.086578036702463,21.15151156422928,21.366253227731598,21.15151156422928,45.324667637634036,69.4978237110389,67.09139602912371
30,234,30,1.0009999999999972,11.981405807462124,153.02699152666983,14.976757259327542,27.12406102072145,42.04176106061674,48.019136729949295,53.99946623868328,107.99893247736655,80.92993966228329,74.88378629663805,83.86984065223464,74.88378629663805,25.460487340856844,28.455838792722602,1.4976757259328224,13.47908153339472,14.976757259327655,15.273355503130732,16.474432985260364,41.93492032611738,65.89773194104157,64.03330037041789
31,234,31,1.0343666666666638,14.976757259327655,156.21841911543166,18.220011576481895,27.124061020721363,45.030006133284004,48.019136729949516,51.008997175556615,111.1917064408394,84.08352212123373,76.38146202257087,86.86519210410017,74.88378629663805,29.953514518655197,29.953514518655197,2.995351451865531,14.976757259327655,12.350150421888772,12.350150421888772,13.479081533394833,38.93956887425185,62.90238048917604,54.66003472944583
32,234,32,1.0677333333333303,17.707958056758912,153.92235033979998,17.952217292624162,26.725396702322513,44.368163620508795,47.31336054105471,50.25927658336107,112.4993573090927,85.79176224152718,76.73448491262184,85.58846394100124,73.78315856982863,29.513263427931406,32.464589770724615,5.902652685586304,14.756631713965703,11.805305371172608,12.168630247003945,11.805305371172494,38.36724245631092,61.97785319865608,50.947791906382875
33,234,33,1.1010999999999969,17.839059509931985,151.89411839969284,18.085127127129088,29.88005487876503,41.73052197239326,47.66364657073447,56.568542494923776,122.22612862778975,92.3600927908341,83.2489443796826,89.19529754965993,80.27576779469393,28.245177557392367,37.164707312358246,4.4597648774829395,13.379294632449046,15.160285424214333,11.892706339954657,13.379294632448932,38.65129560485258,62.43670828476195,57.1901934954255
34,234,34,1.1344666666666634,14.865882924943321,145.95844409733525,14.865882924943321,23.97051595938469,41.73052197239326,44.59764877483008,59.53781471649314,113.13708498984757,89.2448367356784,81.76235608718832,86.22212096467126,77.30259120970527,22.29882438741504,31.218354142380917,4.4597648774829395,10.406118047460382,17.839059509931985,15.160285424214333,16.35247121743771,38.65129560485258,62.43670828476195,51.32498556888661
35,234,35,1.16783333333333,5.894315601360972,141.73960118183072,14.735789003402374,20.83955266087987,35.488479395519335,38.426236445415554,61.960444504000975,103.31879478824423,82.57302946578695,79.57326061837273,82.52041841905316,73.67894501701176,16.209367903742645,25.050841305783933,4.420736701020701,4.420736701020701,17.682946804082803,20.83955266087984,19.156525704423075,35.36589360816555,58.94315601360927,51.46989825270757
36,234,36,1.2011999999999965,4.233100504510326,153.12476786810922,14.966270360917292,17.959524433100682,39.02725829352207,39.02725829352207,59.93986608424958,95.97102635160694,78.05451658704405,76.32797884067804,80.81785994895324,68.84484366021945,14.966270360917292,20.952778505284186,2.993254072183504,2.9932540721833902,17.959524433100682,18.207253713940027,19.456151469192378,38.91230293838487,59.86508144366911,57.57639167261039
37,234,37,1.234566666666663,2.973176584988664,148.77770878002605,18.08512712712905,20.81223609492065,38.65129560485252,41.73052197239326,56.49035511478462,98.15986509781933,77.3597465529737,75.816002917211,77.30259120970527,71.35623803972794,17.839059509931985,23.785412679909314,2.973176584988664,2.973176584988664,18.085127127129088,18.08512712712905,19.325647802426374,38.65129560485258,59.463531699773284,54.25538138138719
