,video_id,frame_seq,time_seconds,m1,m3,m4,m5,m6,m7,m8,m9,m10,m11,m12,m13,m14,m15,m16,m17,e1,e2,e3,b1,b2,b3,label_measures
0,227,0,0.0,40.042054057158296,164.95473850941752,24.759881693692996,44.54077869932193,45.56940297763349,51.214751973158464,24.759881693692986,132.42434384954606,87.94250114690357,64.39753862299284,91.81431249218775,36.98076475379781,43.99435806917336,63.12233983837905,23.591177515353703,27.416773869195023,20.162663144289205,19.423249216983,17.852782984592068,28.05437326150178,107.11669790755236,72.69751581664252,"{'others': ['m1', 'm3', 'm12', 'e1', 'e2']}"
1,227,1,0.0333666666666666,31.432941272996885,162.5939235372294,26.151370308672465,41.99984098412762,45.09544064556548,51.0943683015013,26.43274401820364,125.6336623187793,83.66630967277986,65.39099733718007,93.59887854145376,41.02964538803457,42.95291001559861,54.4924977809834,17.30938164807708,23.72026373995743,20.27298922112688,19.5295293680829,17.950469857265148,26.925704785897665,107.70281914359067,77.88628118820763,"{'others': ['m1', 'm3', 'm12', 'e1', 'e2']}"
2,227,2,0.0667333333333332,35.94389493052352,159.54089612126327,23.190080666757524,37.91186471065311,39.802893655859926,47.01991791811528,29.55825388707209,125.75227335195363,87.8422022614,67.35285539621924,94.03983583623068,43.20749214097083,41.93668354858937,53.37396088002277,21.603746070485386,25.41617184762993,21.302633838336728,20.53054112489093,19.69753318191317,26.68698044001144,106.74792176004564,75.56771159610545,"{'others': ['m1', 'm3', 'm12', 'e1', 'e2']}"
3,227,3,0.1000999999999998,43.79038814460469,159.78899870775993,21.09596716568831,38.16014288127535,43.7530083783862,50.16411520422608,31.46245998073821,133.40421544571967,95.2501710085389,70.35219925629735,99.77220985438544,47.32784313605464,45.409146792701165,55.64219395725331,23.66392156802715,31.33870694144173,20.22483527744581,18.314367279265998,17.26826709018212,26.861748806949947,106.16786433223064,73.65839471482907,"{'others': ['m1', 'm3', 'm12', 'e1', 'e2']}"
4,227,4,0.1334666666666664,71.90137326105747,167.2065548515715,24.787987640429773,43.066713067900274,48.0568743898628,56.51954168460642,28.68905776154002,166.30737817624376,123.24762298419368,84.25865675803061,108.51493673382733,51.06585258062455,55.53411468142923,82.34368728625725,45.320944165304354,38.93771259272626,20.185550601645136,18.84945694432209,17.873048403218604,29.362865233859168,107.23829041931168,79.53209401111992,"{'others': ['m1', 'm3', 'm12', 'e1', 'e2']}"
5,227,5,0.166833333333333,70.35490909866502,172.87042658246455,26.352918730555256,45.44299088056048,50.25757407188659,56.80649376776853,32.40465336414289,173.64127005377387,128.23310924300648,90.44406999332516,114.99317470579903,56.85055828151866,56.20452921013771,83.33775020813539,43.28394778251993,38.11571521147266,20.42923300247126,19.680043309715355,18.08881399866499,31.00939542628288,108.53288399199012,82.57050183708128,"{'others': ['m1', 'm3', 'm12', 'e1', 'e2']}"
6,227,6,0.2001999999999996,47.21926538817517,171.4932899750912,32.59771052985445,50.2797379965947,48.8584100606878,57.00147840413569,35.70436010259232,164.88456701246002,114.61929148435928,87.55218656621349,114.59036182930872,55.36388268157617,52.78881837080519,74.67686501235858,30.9007717292518,29.61323957386628,17.93324777956887,17.274056535952663,15.4503858646259,29.613239573866338,108.15270105238132,85.50221760620373,"{'others': ['m1', 'm3', 'm12', 'e1', 'e2']}"
7,227,7,0.2335666666666662,14.332296827257014,163.54902869471564,32.682665255329816,51.3088219483594,43.810903426293045,49.515959500601305,40.53785710612774,138.40576678566677,87.17995811395147,76.91517595068336,110.24508552931292,51.2767839671223,42.3033467728759,52.55870356630032,10.255356793424426,19.228793987670883,10.877448498176989,8.208290455937217,5.768638196301197,33.3299095786295,110.24508552931292,76.62620119344402,"{'others': ['m1', 'm3', 'm12', 'e1', 'e2']}"
8,227,8,0.2669333333333328,9.299811099505622,156.38855603074177,25.040507723028043,32.625895611447426,41.66992364262897,45.74174999174928,42.87001093815857,109.32413801062948,76.70989169857751,69.64119506366944,101.8824890746274,45.13781161534121,32.24129401095797,30.951642250519853,5.158607041753385,18.05512464613639,11.890001739787165,10.07250224399588,8.382736442849136,32.24129401095803,113.48935491857232,69.44987273771505,"{'others': ['m1', 'm3', 'm12', 'e1', 'e2']}"
9,227,9,0.3002999999999994,5.747547656185436,161.1057190171664,25.249991452679,32.513039383052444,42.2747661099695,47.25588804016152,43.63974826996659,105.26802599539928,72.75814198860915,68.11510849469585,101.53006737888632,43.69648469471053,30.201982068402916,27.631600615772868,3.212976815787556,14.779693352622644,10.037660453680024,10.0376604536801,8.353739721047589,32.12976815787539,113.09678391572147,76.42293476326094,"{'others': ['m1', 'm3', 'm12', 'e1', 'e2']}"
10,227,10,0.333666666666666,6.418437642047365,159.71982555232935,26.46389634960189,32.903493151644184,42.22532026619528,47.20061612567321,42.34223415936302,106.76237089676802,73.89849162431315,68.67728276990744,101.41131474434934,43.64537596592248,31.45034444603232,28.88296938921349,3.2092188210236827,14.762406576709054,10.892449875155368,10.025920102725538,7.702125170456952,32.09218821023711,114.24819002844416,82.40634063297607,"{'others': ['m1', 'm3', 'm12', 'e1', 'e2']}"
11,227,11,0.3670333333333326,8.209934901168776,165.97623925095436,30.17884868220124,41.0496745058436,45.02247062907996,48.8238234202073,40.158944419030206,118.0229289786772,77.03735904028228,70.5197030106844,102.5741134700864,43.59399822478673,34.61876329615416,39.747468969658485,6.410882091880353,14.10394060213696,12.821764183760774,10.01411795607687,8.334146719444561,32.05441045940199,111.54934839871892,82.71777102260974,"{'others': ['m1', 'm3', 'm12', 'e1', 'e2']}"
12,227,12,0.4003999999999992,22.27299272984761,167.92994855666026,29.77329542840143,49.525552184736064,45.983320806748885,53.29062028565632,35.36647907018301,135.96069491644732,86.73303110440851,71.41947980885561,107.12921971328342,47.18787058799387,45.27484880739962,52.926935929776846,12.115804610430814,23.593935293996992,13.794996242024638,12.753478537295724,10.840456756701316,28.05765278205041,110.95526327447207,86.31005525370578,"{'others': ['m1', 'm3', 'm12', 'e1', 'e2']}"
13,227,13,0.4337666666666658,40.433685182848905,171.54559788692663,28.449041619049968,44.43882361700808,47.50223297583312,54.3518176973402,34.72648087372575,146.97447837547426,102.61392243376218,78.24520887454736,109.4160644424564,48.34663312573656,48.3466331257365,62.34171113581829,25.44559638196665,29.26243583926157,15.37301554544172,14.506221835854928,12.086658281434154,31.80699547745826,113.2329038997514,86.9070494672558,"{'others': ['m1', 'm3', 'm12', 'e1', 'e2']}"
14,227,14,0.4671333333333324,28.55225944671501,175.12189689991726,31.621296854320065,49.116390366547655,47.72480530343004,53.89699611236661,32.88509642224416,141.58522765823238,92.59179692197851,74.16692716073584,108.34820663481406,46.43494570063461,47.72480530342989,58.043682125793225,16.768174836340336,24.507332453112667,18.46797898957329,16.16189449919138,14.188455630749502,30.956630467089724,110.92792584040484,88.51294411720163,"{'others': ['m1', 'm3', 'm12', 'e1', 'e2']}"
15,227,15,0.5004999999999991,11.05562865794858,160.6488407893771,30.249797064862964,44.61296694485105,41.06581573850999,45.58352471432752,36.57716930593392,121.63228631134837,77.2184685347495,68.75770385785341,102.8152581052014,46.26686614734064,39.84091251576558,42.41129396839551,6.425953631574998,17.992670168410314,18.401130851560517,16.756836948274017,15.422288715780269,29.5593867052454,111.8115931894065,84.98794374936816,"{'others': ['m1', 'm3', 'm12', 'e1', 'e2']}"
16,227,16,0.5338666666666656,6.557377049180308,163.16084820214013,30.022146057912707,37.44910202929749,42.30163101686253,45.61249228198046,37.822613609619125,108.17761304766832,70.76547363291874,66.22938334174745,100.30858059526788,43.72425307998861,36.00820841881409,30.86417864469786,1.2860074435291151,14.146081878819814,19.11787506506654,17.253600379810436,16.075093044113487,32.15018608822692,111.8826475870296,84.60326203372517,"{'others': ['m1', 'm3', 'm12', 'e1', 'e2']}"
17,227,17,0.5672333333333321,5.280286161991605,162.93064127439985,28.636372363358603,38.88646448332796,43.76777006545476,47.59154875323086,37.2933094580978,107.33865846454232,68.45231166050971,64.6732039858008,99.8912853642072,42.2616976540877,35.2180813784064,31.376108864398475,0.6403287523346535,16.008218808366564,20.689655172413783,18.33622499519739,16.648547560701218,32.01643761673307,112.69786041090045,83.04547985374002,"{'others': ['m1', 'm3', 'm12', 'e1', 'e2']}"
18,227,18,0.6005999999999987,6.533648156657337,163.01923005862568,31.41277514448684,41.02333866268504,42.14855596133099,46.64198325929318,36.4679691754621,111.83804166227496,70.93887699178659,65.98972197907284,99.9455983372364,42.28467621960005,36.51858400783635,35.237230183000065,0.6406769124181437,14.735568985618215,20.700904568987973,18.346194782751837,16.65759972287276,32.03384562090912,111.47778276076374,81.4542022874969,"{'others': ['m1', 'm3', 'm12', 'e1', 'e2']}"
19,227,19,0.6339666666666652,18.390881639151456,168.677524290216,28.721731700343643,46.11604746367469,45.10317940037997,49.614661236873424,33.39634714700908,125.9833507044163,80.01979605965002,67.434931739153,101.47351633129682,42.38767137889619,41.10319648862651,48.81004583024412,10.27579912215674,20.55159824431325,20.309331252733653,18.39088163915135,17.982648463774126,28.25844758593081,109.18036567291436,87.74007191847075,"{'others': ['m1', 'm3', 'm12', 'e1', 'e2']}"
20,227,20,0.6673333333333318,43.09679518200936,176.2909934676515,22.31124290542561,39.66544781352364,48.479160517885184,55.774449562831165,33.727972401645395,138.28132309651122,98.62726151094137,73.45843801368306,102.20304419295036,39.603679624768176,40.24244865097421,61.96059554197621,30.022144231679132,26.189530074443496,20.19965021578555,18.862623296576587,17.246763707560376,31.938451310296955,109.8682725074216,83.62752771617154,"{'others': ['m1', 'm3', 'm12', 'e1', 'e2']}"
21,227,21,0.7006999999999983,46.62576357744687,179.13343191336335,21.06969732336016,39.66544781352364,51.308702047081816,56.97590554341119,32.57095729302748,139.16371595579707,99.50045065996336,72.81966898747709,99.64796808812656,35.77106546753265,38.32614157235639,66.43197872541771,35.771065467532594,26.828299100649478,20.199650215785518,18.291561235959826,17.246763707560376,31.93845131029701,108.59073445500977,86.45827847667536,"{'others': ['m1', 'm3', 'm12', 'e1', 'e2']}"
22,227,22,0.7340666666666649,42.63992579204868,185.11521971103735,22.31124290542561,38.432455622833935,53.732588323218096,58.613802262210456,31.423281219392155,133.89793380345083,95.46552155837276,70.90336190885932,97.09289198330282,33.21598936270891,37.04860351994455,63.87690262059391,33.2159893627088,24.27322299582568,20.19965021578555,18.29156123595988,17.246763707560376,28.105837153061373,106.035658350186,91.30599406468666,"{'others': ['m1', 'm3', 'm12', 'e1', 'e2']}"
23,227,23,0.7674333333333314,40.598736506149855,189.93380268466888,18.721164923641822,37.4423298472839,53.27826655385877,60.19843676617222,33.4301470319424,129.81233170498012,92.3701966627911,68.7889563926505,95.14734155245122,30.8585972602545,32.14437214609836,61.71719452050888,33.43014703194228,23.14394794519092,19.11441784653149,17.862555584628094,16.07218607304918,30.8585972602545,109.29086529673458,91.89468280318596,"{'others': ['m1', 'm3', 'm12', 'e1', 'e2']}"
24,227,24,0.800799999999998,36.9984293767241,192.6508080440437,21.14195964384227,37.33006220495477,54.32677861172392,60.468026557296746,30.978986902640813,126.10466652424029,88.78623636834999,66.65981915725894,94.86205033917616,28.202231181917284,33.32990957862944,58.96830156219062,30.76607038027339,21.792633186026933,21.141959643842327,19.52561761460014,17.9468743884928,28.202231181917284,106.39932673177871,92.83965838573285,"{'others': ['m1', 'm3', 'm12', 'e1', 'e2']}"
25,227,25,0.8341666666666645,38.33993554448391,195.5509864097201,24.00872452580322,37.42435302791739,55.67862624458631,60.169534279913805,29.362405131483875,128.88150538527037,91.463138522828,68.75592942428284,95.10165939059686,28.27346630531258,34.69925410197459,61.68756284795472,33.41409654264214,21.847678508650688,19.95101046329518,18.97512396806417,17.349627050987294,30.84378142397736,106.66807742458836,91.8505623085418,"{'others': ['m1', 'm3', 'm12', 'e1', 'e2']}"
26,227,26,0.867533333333331,45.69093930444615,190.8506983830553,26.24334611882793,41.194048472665465,53.73358085208402,60.241089518325154,28.21922492621737,140.74367747454377,99.54991630674006,73.98443945007415,97.78812866444588,34.740519393947864,40.53060595960585,70.12438173963551,36.67054824916716,22.517003310892164,20.344290441134785,20.139820021097037,18.65694560045347,30.880461683509225,108.08161589228226,88.29515803445264,"{'others': ['m1', 'm3', 'm12', 'e1', 'e2']}"
27,227,27,0.9008999999999976,26.78639446172612,177.33317737638876,31.212738134558407,49.81632501607767,46.253296602992286,53.6034984639069,29.309355386822396,136.59639625287454,86.87364436268759,70.55595992979482,101.34401517188708,41.05074032278975,44.25782941050761,60.93469266664101,18.601116708764152,21.166787978938373,21.504243812059908,21.234708169927146,19.242534526307622,30.78805524209224,110.32386461749732,92.0875856185024,"{'others': ['m1', 'm3', 'm12', 'e1', 'e2']}"
28,227,28,0.934266666666664,7.467452303499505,166.5298001586845,32.423658275623524,40.69993219537979,40.92096529647657,45.90759722400672,33.615734870729526,111.87992837429344,71.28098715601261,65.9538614904701,98.61062785953789,40.98104014941839,37.77939638774501,37.77939638774501,4.482301266342574,14.727561303697255,21.46773169290843,21.19865369613939,18.569533817705175,30.735780112063765,108.85588789689244,87.09412640775258,"{'others': ['m1', 'm3', 'm12', 'e1', 'e2']}"
29,227,29,0.9676333333333308,6.58057846301721,167.81715717045878,32.674309052774106,37.58160502668326,42.451303308060616,46.26248546096923,35.99707362164058,109.0272972389298,71.44842129999358,67.75427479487723,99.37293636582012,41.29784368449669,35.49033441636436,34.199776801223834,3.2263940378512643,12.260297343834964,24.109605893523444,22.053058194617368,21.294200649818663,32.26394037851304,112.27851251722532,85.70313182590009,"{'others': ['m1', 'm3', 'm12', 'e1', 'e2']}"
30,227,30,1.0009999999999972,6.941740856814647,165.20458148580093,30.34060806350637,40.02284112626768,41.18909682133255,46.20840327677121,36.2999470578476,110.88818060075978,70.93283754441227,65.74149471312631,97.96771761171756,39.96051639425326,34.15979627250681,36.737894104393945,3.222622289859032,12.2459647014648,22.84200498678669,21.33755626843353,19.9802581971266,30.937173982647607,112.1472556870977,88.45731303933067,"{'others': ['m1', 'm3', 'm12', 'e1', 'e2']}"
