,video_id,frame_seq,time_seconds,m1,m3,m4,m5,m6,m7,m8,m9,m10,m11,m12,m13,m14,m15,m16,m17,e1,e2,e3,b1,b2,b3,label_measures
0,151,0,0.0,19.556103134109577,144.76800787673253,9.778051567054684,19.55610313410948,36.19200196918313,38.81775636200783,49.64708792375425,98.45288948718785,78.91802360716821,67.75844038459047,55.31301255884932,71.90691632650419,15.211078453683513,33.18780753530962,11.06260251176991,4.148475941913716,16.651421804132767,17.976729081626047,17.976729081626047,60.84431381473428,49.781711302964425,55.38211066518918,"{'others': ['m1', 'm3', 'm12', 'e1', 'e2']}"
1,151,1,0.0333666666666666,22.60864222916938,138.1221091064773,12.696813301379033,21.448441274412527,36.56303715416995,40.75830941294533,50.04636297362923,106.72767602586806,85.28814514862925,72.91068039625225,61.69365264298267,75.71493733456964,19.62979856822176,36.45534019812612,11.217027753269576,7.010642345793485,16.883862572991706,18.281518577084974,17.526605864483713,61.69365264298267,50.47662488971309,54.844555731254914,"{'others': ['m1', 'm3', 'm12', 'e1', 'e2']}"
2,151,2,0.0667333333333332,21.5794333868801,153.12177317580526,14.33121405876552,25.82612316643536,40.02998291649095,45.654567056863385,46.18596691440502,107.8971669344008,82.07918093066317,70.58745029819329,57.04036387732788,69.87444574972676,17.825113711664926,43.49327745646258,14.973095517798583,3.565022742332985,19.02533432367087,18.53811826013157,19.251122808598154,68.44843665279348,54.188345683461534,55.77865160740655,"{'others': ['m1', 'm3', 'm12', 'e1', 'e2']}"
3,151,3,0.1000999999999998,11.785940544142155,147.65666130099254,11.523024038313544,23.046048076627105,37.18811145484583,41.473036630028425,47.51064523649815,93.78789796822636,70.74452447629398,64.31648527157807,54.311698673777016,65.74574049983534,12.86329705431558,32.872870249917696,8.575531369543796,1.4292552282572617,17.387640297352554,18.58031796734474,18.5803179673448,67.1749957280926,52.8824434455197,57.455349099290046,"{'others': ['m1', 'm3', 'm12', 'e1', 'e2']}"
4,151,4,0.1334666666666664,1.9501061465569596,138.0655870917234,12.713136681034763,20.867047012816755,37.25672561748225,38.6347478089924,52.56250572920575,84.83522094344704,63.96823778669494,64.12039753227668,62.051997611880665,68.94666401320069,13.099866162508192,18.615599283564165,4.826266480924119,0.6894666401320819,14.062415408017443,16.604555512143403,16.547199363168147,59.29413105135262,49.64159808950456,56.687408791540726,"{'others': ['m1', 'm3', 'm12', 'e1', 'e2']}"
5,151,5,0.166833333333333,3.063232563637783,138.6057731160083,13.76751805978107,23.44924035232976,37.08915639546434,38.38219400988027,53.86413782914674,92.8012864867209,69.36717025599053,67.81100280753049,64.38620468593797,72.60572017775985,15.069111735006686,23.288627226828797,2.739838497273809,1.3699192486368474,16.49601219777028,17.808950232280722,17.808950232280722,58.90652769139013,49.31709295093128,57.68319876553978,"{'others': ['m1', 'm3', 'm12', 'e1', 'e2']}"
6,151,6,0.2001999999999996,13.7314879015591,138.5465486428007,9.947062494642868,24.7453632574259,35.760385958447,38.35482631572402,53.566570880517965,101.85377036373376,77.11016457571442,69.68303980874646,62.85136923926154,75.14837626433439,15.712842309815414,32.10885167657921,4.782169398639439,4.782169398639439,13.933928617696498,16.45284145872095,17.07917642371234,54.65336455587959,47.82169398639462,54.92595160623662,"{'others': ['m1', 'm3', 'm12', 'e1', 'e2']}"
7,151,7,0.2335666666666662,18.851609365605608,131.9612655592394,10.828592162285398,22.990537721691165,36.2891460777694,37.703218731211344,49.98505859534358,102.64120510023956,79.65288364083933,69.84232085084022,65.81295618636864,75.21480707013563,20.818384099769677,31.56335653836049,6.044046996707266,10.073411661178852,13.697206034347824,16.173325233225924,15.445897880474265,55.06798374777787,45.66613286401088,56.666360476368425,"{'others': ['m1', 'm3', 'm12', 'e1', 'e2']}"
8,151,8,0.2669333333333328,10.793025153182384,132.5514110498209,9.53977659416516,21.754037667206347,36.52625859926128,37.7996719327742,52.77143665352928,94.78525388846674,73.05251719852262,67.45640720738953,64.75815091909402,74.2020479281286,16.86410180184737,24.95887066673413,0.674564072073963,7.4202047928129105,13.558570045639,14.901607410560214,14.840409585625707,52.61599762176388,47.219485045172746,55.57687498965579,"{'others': ['m1', 'm3', 'm12', 'e1', 'e2']}"
9,151,9,0.3002999999999994,9.169245717294814,131.15285885583654,7.967763468608266,18.385213781484374,36.770427562968855,39.31859283630771,53.769441274885935,89.22664457367357,70.843254837932,66.14955838905519,68.11439675704696,74.66385798368606,17.683545311925627,17.683545311925627,3.274730613319548,9.8241918399587,13.358332239260896,13.164254142615407,13.753868575942136,48.4660130771295,45.8462285864739,55.15564134445324,"{'others': ['m1', 'm3', 'm12', 'e1', 'e2']}"
10,151,10,0.333666666666666,16.09207767398118,132.92885197388895,9.482347705543916,22.836517345060283,37.64384555035822,38.91230164445136,52.36797684911495,100.71842457940193,77.88234953361354,69.73233658725167,68.39133011441982,75.09636247857873,19.44459385606052,28.83163916588296,4.6935226549112485,8.716542073406345,13.476948259077208,14.811900618811745,15.421574437565257,52.29925244043869,50.95824596760696,57.80344585929357,"{'others': ['m1', 'm3', 'm12', 'e1', 'e2']}"
11,151,11,0.3670333333333326,14.9697956255702,132.8472146136373,9.583429625655496,21.72713773657372,33.909635575179216,36.593143606755575,54.36432222226957,100.43873173803924,78.71257614817452,71.15333479091362,70.47568398338115,73.18628721351115,17.618920995845315,28.461333916365334,5.421206460260009,8.131809690390241,16.319992580595407,16.263619380780256,16.263619380780256,51.50146137247077,52.85676298753583,56.93880008977371,"{'others': ['m1', 'm3', 'm12', 'e1', 'e2']}"
12,151,12,0.4003999999999992,17.807801473244922,143.936572897245,15.068139708130277,26.02678676858864,41.094926476719024,42.48684566108689,52.07159450830316,110.96475691115714,84.94056102343366,76.02561398193023,68.49154412786498,73.97086765809416,19.17763235580219,39.72509559416165,10.95864706045836,5.4793235302291805,16.494948129264245,16.494948129264245,16.4379705906876,52.05357353717744,54.79323530229203,57.532897067406566,"{'others': ['m1', 'm3', 'm12', 'e1', 'e2']}"
13,151,13,0.4337666666666658,15.949044456578028,131.15186372685065,9.271472350736076,22.5164328517875,37.08588940294419,38.410385453049344,54.44951551297411,102.02059255245,79.51390061760216,71.52278670567819,67.54929855536272,70.19829065557303,14.56945655115669,33.11240125262873,9.271472350736076,6.6224802505257685,14.629537039249913,15.893952601261844,15.893952601261844,47.68185780378548,55.62883410441634,56.953330154521495,"{'others': ['m1', 'm3', 'm12', 'e1', 'e2']}"
14,151,14,0.4671333333333324,23.770993314945716,141.28995264542095,13.982937244085749,26.567580763762976,41.972110157675935,44.74539918107439,51.73686780311726,116.0583791259117,89.49079836214872,77.60530170467581,72.71127366924583,76.90615484247161,23.07184645274151,41.249664870052925,10.487202933064282,9.088909208655764,16.779524692902896,16.779524692902896,16.779524692902896,50.33857407870869,60.12663014956871,60.12663014956877,"{'others': ['m1', 'm3', 'm12', 'e1', 'e2']}"
15,151,15,0.5004999999999991,22.294780048295024,140.79786860393168,15.327661283202929,26.51169499451732,44.61132702983528,47.396894698764136,51.57550547500356,115.65417150053077,89.19000565189566,78.03173016903281,76.6383064160143,72.458035156959,22.991491924804222,41.10600071404417,13.237525653675334,9.057254394619804,16.721085036221325,16.721085036221325,16.721085036221325,48.76983135564552,62.70406888582994,59.93342179143952,"{'others': ['m1', 'm3', 'm12', 'e1', 'e2']}"
16,151,16,0.5338666666666656,18.551444474686942,145.6204311980586,15.697376093965886,27.113649616850125,44.26107059708946,45.75419679888136,51.37323085297919,112.73570103848216,85.62205142163202,76.3463291842886,75.63281208910826,71.35170951802672,22.11902995058824,39.24344023491472,10.702756427704005,7.848688046982943,19.97847866504748,18.606249452209624,19.26496156986724,49.94619666261866,62.78950437586349,64.23239254463276,"{'others': ['m1', 'm3', 'm12', 'e1', 'e2']}"
17,151,17,0.5672333333333321,8.678819005676932,147.07004953664418,14.267890555397798,27.10899205525584,42.82744488194791,44.32241604078925,52.79119505497181,102.73871977841156,75.63327901997071,71.33945277698888,72.76624183252875,67.0590856103696,17.121468666477313,32.81614827741498,5.707156222159142,4.280367166619271,18.548257722017127,18.603053285183485,19.261652249787005,47.08403883281272,62.77871844375028,61.3685177160486,"{'others': ['m1', 'm3', 'm12', 'e1', 'e2']}"
18,151,18,0.6005999999999987,2.03147784728338,149.73108040933533,17.237661139731813,25.856491709597776,46.16865829789293,47.59904759506952,50.2765116575514,94.81801800586608,68.96560618318071,68.23240867810534,71.82358808221625,61.7682857507059,16.519425258909678,28.011199352064292,0.7182358808221352,3.5911794041107896,18.729300327034714,18.729300327034707,19.39236878219839,47.40356813426274,63.20475751235029,68.96560618318058,"{'others': ['m1', 'm3', 'm12', 'e1', 'e2']}"
19,151,19,0.6339666666666652,1.9948574029488952,141.50838450197742,12.695194774128254,24.021264088813208,41.00390450368444,42.528376155297465,53.62049050481816,91.78512120707704,67.76645402444689,67.00241686345453,74.76059144764395,63.47597387064116,15.516349168378952,22.569235154005696,1.410577197125349,5.642308788501396,18.33750356262965,18.391676512447283,19.042792161192324,47.95962470226215,63.47597387064104,66.35712567831523,"{'others': ['m1', 'm3', 'm12', 'e1', 'e2']}"
20,151,20,0.6673333333333318,1.9813394493854104,139.71604472313834,12.609167044435594,22.460036125511536,38.06028795282484,40.84635915009604,51.91336223361767,88.44189749366032,65.98187606595619,65.1473630629173,74.25398370612083,57.44176098020671,14.010185604928438,22.41629696788561,0.0,4.203055681478531,18.213241286407023,16.87049750281801,17.512732006160547,46.23361249626396,63.04583522217814,67.30724136227313,"{'others': ['m1', 'm3', 'm12', 'e1', 'e2']}"
21,151,21,0.7006999999999983,1.9540112906762688,141.365660927568,13.816946341522453,24.90885425234696,40.282974725537954,40.28297472553808,51.1413696042821,88.52555368194632,63.61799848734331,64.24880048807938,70.46642634176442,59.4128692685465,13.816946341522453,23.48880878058821,1.381694634152268,4.14508390245669,15.26131604972205,16.637806616154073,16.58033560982699,46.97761756117626,62.17625853685092,65.07180324546138,"{'others': ['m1', 'm3', 'm12', 'e1', 'e2']}"
22,151,22,0.7340666666666649,3.1321003897800264,149.01031381903292,16.80861452136378,25.25180063595237,44.91043159780633,45.17179422100947,49.02512568731095,88.28968227334852,63.04786606612886,64.43302233189445,70.03589383901567,57.42943294799284,14.707537706193309,24.512562843655477,0.7003589383901954,0.7003589383901954,18.209332398144056,16.8668767914553,17.50897345975386,47.62440781053067,63.03230445511412,67.2490473138106,"{'others': ['m1', 'm3', 'm12', 'e1', 'e2']}"
23,151,23,0.7674333333333314,2.0035092143791573,147.77153818051977,12.750254564915394,22.66711922651632,44.008848264177296,45.53302534854085,52.41771321131876,89.26302485700995,66.599732245506,65.87631525206268,70.8347475828632,59.5011879696051,12.750254564915394,24.083814178173498,1.4166949516571776,2.833389903314582,17.000339419887155,17.05926624967851,17.000339419887155,46.7509334046897,62.33457787291962,65.18336481549832,"{'others': ['m1', 'm3', 'm12', 'e1', 'e2']}"
24,151,24,0.800799999999998,0.0,154.9398386414462,17.179490267927235,24.33761121289683,45.9013633504594,47.33028381104644,50.127294216787504,91.63513197702004,67.30156520403312,67.28633688271498,70.14958526070279,60.12821593774527,15.032053984436288,26.48504749638778,0.7158120944969824,0.7158120944969824,18.611114456921143,18.666095712471087,18.611114456921143,50.106846614787685,64.42308850472705,70.16419215003563,"{'others': ['m1', 'm3', 'm12', 'e1', 'e2']}"
25,151,25,0.8341666666666645,0.0,155.0678220894643,17.18268208040581,24.38421099584255,47.33907740085196,48.7684219916851,50.13660746885178,91.6857067442914,67.31406929887518,67.29883814825621,73.02639884172481,61.571277454787605,17.18268208040581,24.342132947241566,0.0,2.863780346734302,17.18268208040581,17.419695788119856,17.18268208040581,48.68426589448319,61.57127745478755,68.74564222617595,"{'others': ['m1', 'm3', 'm12', 'e1', 'e2']}"
26,151,26,0.867533333333331,2.833869839123281,143.55865481674414,14.169349195616064,21.254023793424157,44.01630273493574,45.54073799314295,51.02933296111341,86.53749494986867,65.31747241994498,65.1790062998341,72.26368089764219,60.92820154114929,15.586284115177705,19.837088873862516,1.4169349195616403,5.667739678246448,19.83708887386257,18.4745710712434,18.420153954300982,49.5927221846564,62.34513646071093,66.61101328957172,"{'others': ['m1', 'm3', 'm12', 'e1', 'e2']}"
27,151,27,0.9008999999999976,2.0259723003616594,152.0964212652258,15.758366272900275,24.35383878539119,45.93196897131674,47.36184219222856,51.57283507494594,93.12863806988948,68.7787011763974,68.04749072388711,73.06151635617346,64.46604384368254,17.190945024982057,24.35383878539119,1.4325787520817812,4.297736256245457,18.62352377706384,18.6785416924282,19.33981315310473,47.275098818700485,63.0334650916007,71.68621785123361,"{'others': ['m1', 'm3', 'm12', 'e1', 'e2']}"
28,151,28,0.934266666666664,2.003144902286172,146.22957786688642,15.58081078516352,22.70721803067905,44.00084582749772,45.41443606135823,48.242117591807805,88.00169165499521,65.29453532476535,64.44789915681281,73.65474189350039,63.7396804847599,20.538341489533764,19.121904145427948,4.957530704370242,7.790405392581761,18.413685473375097,18.468083481026465,19.121904145427948,46.74243235549062,60.90680579654838,69.46321957132933,"{'others': ['m1', 'm3', 'm12', 'e1', 'e2']}"
29,151,29,0.9676333333333308,1.4413314828410648,151.8947304573808,18.792663339263427,25.943966691139167,46.212602868101015,47.65121228959126,47.58577227845952,92.34650291307882,66.44209841874516,66.30124821068875,77.83190007341727,64.85991672784769,23.781969466877516,20.899306501195383,6.485991672784849,7.9273231556258,20.178640759774797,20.230051392803624,20.17864075977485,49.00527041659609,63.41858524500668,69.31890430215148,"{'others': ['m1', 'm3', 'm12', 'e1', 'e2']}"
