,video_id,frame_seq,time_seconds,m1,m3,m4,m5,m6,m7,m8,m9,m10,m11,m12,m13,m14,m15,m16,m17,e1,e2,e3,b1,b2,b3
0,222,0,0.0,19.4479118402649,153.43638511852612,14.085849659420091,28.171699318840183,42.29421497125671,44.15891402701091,24.713040157119508,86.27582916394806,58.10412984510788,48.42010820425651,42.257548978260274,33.45389294112272,13.205484055706279,48.42010820425662,20.24840888541644,0.8803656037136989,14.085849659420091,15.944099207993824,15.846580866847603,70.42924829710051,80.99363554166558,84.68000562153705
1,222,1,0.0333666666666666,26.586531142888447,150.489684241933,14.148077959075522,30.064665663035612,40.67572413234211,44.24809968023791,26.527646173266703,97.28411200147359,67.22663614335121,53.93954721897558,44.212743622111134,37.138704642573316,14.148077959075522,56.5923118363022,24.75913642838225,1.7685097448844544,15.916587703959976,14.258181393636086,14.148077959075522,72.50889954026212,83.11995800956879,86.81923974431291
2,222,2,0.0667333333333332,31.887561555125977,150.5146951146096,14.15042932141796,26.53205497765873,40.720918397680755,44.25545356361444,24.763251312481543,97.30028028935968,70.77425319928913,54.83291362049465,45.98889529460848,38.9136806338995,17.68803665177245,54.83291362049465,26.53205497765873,7.07521466070898,17.68803665177245,17.776256833214077,17.68803665177245,72.52095027226716,83.13377226333068,81.44183679536128
3,222,3,0.1000999999999998,30.244608169258477,152.90323318550392,14.208196358630516,30.19241726208986,40.84856453106272,44.4361199147758,26.640368172432204,101.24897701933484,71.06317863224858,55.94477316210771,47.952662710378036,40.84856453106272,17.760245448288174,56.832785434522066,24.864343627603375,5.328073634486486,17.848825775587446,17.760245448288174,17.760245448288174,71.04098179315258,83.47315360695433,85.32314708383528
4,222,4,0.1334666666666664,28.74139420363968,152.48619299266764,12.54987238493436,28.685422594135844,41.23529497906998,44.85681525033118,26.95227872478235,96.87967994058992,68.22217334794634,53.78516736400445,46.61381171547055,41.23529497907009,17.03196966526798,52.888747907937955,22.410486401668663,6.274936192467067,17.928389121334874,19.802553030175595,18.82480857740154,75.29923430960639,86.0562677824073,84.33968538259519
5,222,5,0.166833333333333,23.27451779356692,153.6097430458353,12.495518195979685,28.616913641332015,41.095490279077886,42.87894958709909,26.835546920216196,91.19614594362919,62.579512076982425,50.874609797917174,46.41192472792443,41.056702643933136,16.95820326597243,47.30446174192309,18.743277293969527,6.247759097989842,17.85074027997092,17.939771955864046,17.85074027997092,74.97310917587805,85.68355334386064,85.98055095309113
6,222,6,0.2001999999999996,19.45847152013717,148.0760738441898,12.331810651459023,28.241994843207237,40.518806426222454,44.07740056055206,26.42530853884068,86.3945502384109,58.16236489141573,48.44639898787466,45.80386813399059,40.518806426222454,16.73602874126584,43.16133728010652,13.21265426942034,6.1659053257294545,17.61687235922716,17.70473760433954,17.61687235922716,73.99086390875408,82.79930008836766,84.72598452962161
7,222,7,0.2335666666666662,19.623797103822685,151.026134984256,12.436585776871198,26.708982845537584,40.86306755257692,42.63972266355859,26.708982845537584,85.44584440305543,58.737196034805145,48.858015551994185,44.41637777454014,42.63972266355859,16.878223554325245,41.751395108067754,13.32491333236203,6.2182928884357125,5.618276767281129,5.329965332944823,5.3299653329447665,74.61951466122747,83.50279021613545,78.1930115394041
8,222,8,0.2669333333333328,19.716787081632585,151.82576688691236,10.710444167982587,26.776110419956467,41.05670264393325,44.66253791130823,28.616913641331898,85.75789917419806,59.015530066032106,49.089535769920076,46.41192472792443,41.056702643933136,15.173129237975331,41.9492396579318,13.388055209978234,6.247759097989842,3.9915468714708733,3.5701480559941956,4.4626850699927445,74.97310917587805,85.68355334386064,80.40762874340363
9,222,9,0.3002999999999994,21.403897174146255,152.95771467637383,12.442478380969646,28.439950585073234,42.69694100464121,42.69694100464121,26.662453673506207,88.89261877032827,60.4610290031481,49.76991352387836,47.99241661231122,42.65992587761002,18.663717571454413,43.54867433339348,13.331226836753103,7.998736102051907,2.51376023941434,3.5549938231341685,2.6662453673506548,76.43236719738451,85.31985175521993,83.5423548436529
10,222,10,0.333666666666666,23.279154428828786,153.58846519222087,10.712577850129833,28.566874267012736,42.88749172109365,46.42117068389575,28.6226145624876,91.1269016762722,62.591978860395315,50.884744788116336,48.20660032558385,44.635741042207314,17.854296416883017,44.635741042207314,16.06886677519458,8.927148208441508,3.992342047858135,3.570859283376592,3.570859283376592,76.77347459259664,85.70062280103815,82.20735424211541
11,222,11,0.3670333333333326,24.94343297348614,151.0992207686286,12.440022111524172,30.211482270844613,40.87435836643681,42.688512202244596,26.65719023898066,94.20550288098968,64.00193439764321,51.53723446202912,49.76008844609714,46.205796414232964,21.325752191184392,46.205796414232964,15.994314143388351,8.88573007966022,7.108584063728131,7.108584063728131,7.997157071694176,76.41727868507763,85.3030087647378,85.32151869416576
12,222,12,0.4003999999999992,25.241491674250668,153.5379997649662,12.493900951088449,28.557487888202218,41.05138883929067,44.62107482531587,28.6132098687743,94.6135152727915,66.06330583839758,53.545289790379115,49.97560380435391,46.40591781832859,19.633272923138975,46.4059178183287,16.063586937113882,8.924214965063129,8.924214965063186,7.139371972050583,8.031793468556941,78.53309169255624,85.67246366460677,85.69105376218145
13,222,13,0.4337666666666658,23.277067600070435,151.78991561530162,14.39330357856122,30.349583016888687,41.0612005522612,44.66743085176084,26.83848685017182,94.63612889637974,64.29449584197552,52.66545288224802,49.987548498404976,46.4170093199474,21.42323507074491,46.41700931994751,16.067426303058824,8.926347946143665,8.926347946143778,7.1410783569149885,8.033713151529355,76.76659233683608,83.90767069375107,83.92666077449519
14,222,14,0.4671333333333324,23.17572428225689,151.0976929856181,14.219975292536674,28.495443224347962,40.88242896604288,44.43742278917716,28.495443224347962,94.22410365968857,65.76738572798206,54.213655802795984,49.769913523878245,47.99241661231122,20.44121448302144,45.32617124496062,15.108723748320244,7.998736102051794,3.9746039240598563,5.332490734701253,5.332490734701253,79.98736102051868,85.31985175521993,81.7841762685472
15,222,15,0.5004999999999991,25.159902736729475,156.0461813063661,10.755413087848297,26.88853271962057,41.229083503418224,44.850058247237385,28.73706474581993,91.42101124671012,64.53247852708955,51.984496591266634,50.191927743291785,44.814221199367694,18.821972903734377,43.91793677538044,15.236835207785134,9.859128663860815,4.008305798419943,3.5851376959494132,3.5851376959494132,78.87302931088726,87.83587355076082,82.47764914934287
16,222,16,0.5338666666666656,23.071177077841266,153.9853024047614,14.155828056161795,26.542177605303323,42.4674841684855,44.27233810113146,28.31165611232359,92.02989500869612,65.4946122663913,53.96909446411678,49.545398196566225,46.006441182525805,19.464263577222482,44.23696267550554,15.925306563181948,7.077914028080954,1.7694785070202101,2.5024205029555566,1.7694785070202101,77.85705430888987,83.16548982995056,81.39601132293024
17,222,17,0.5672333333333321,24.806946917841614,150.89476720294434,14.03292830891246,28.06585661782492,42.09878492673738,43.85290096535141,26.370146290542568,92.9846968385327,64.92599337233591,52.62348115842167,50.86936511980764,47.36113304257958,22.80350850198272,43.85290096535141,15.78704434752649,10.524696231684402,8.770580193070316,10.524696231684345,9.647638212377274,75.4269896604045,82.44345381486073,89.47711353275687
18,222,18,0.6005999999999987,26.370146290542568,150.94573655660295,12.278812270298317,28.06585661782492,42.09878492673738,45.64073753870456,26.31174057921089,92.9846968385327,64.92599337233591,51.746423139114654,50.86936511980764,45.60701700396544,21.926450482675705,44.729958984658424,14.909986328219475,11.401754250991416,8.77058019307026,8.77058019307026,9.647638212377274,77.18110569901859,84.19756985347482,79.01314398931923
19,222,19,0.6339666666666652,35.123106931257205,149.25194978106512,14.031714078499817,28.118186117667562,40.37928963083397,43.88417176000863,24.55549963737485,101.7903906269553,73.68737648060711,56.12685631399961,54.372892054187105,47.357035014937196,26.309463897187356,50.864963534562094,21.04757111774984,14.031714078499931,7.0158570392499655,8.769821299062471,8.769821299062471,73.66649891212455,82.43632021118697,89.60680515711903
20,222,20,0.6673333333333318,33.347410180747154,152.64606693092895,14.021607734129816,29.84742194699508,40.31212223562352,45.704849432574015,24.7869347798526,101.65665607244193,71.88211086157227,55.21008045313647,54.33372996975345,47.322926102688484,26.290514501493476,50.82832803622102,21.032411601194895,14.021607734129816,2.478693477985093,1.7527009667662696,1.7527009667662696,75.36614157094829,82.37694543801325,82.37694543801331
21,222,21,0.7006999999999983,36.86648166629742,151.0607978066523,10.521358253276162,26.303395633190462,42.121949664671554,47.47582775855025,22.86362134358569,96.44578398836506,70.1423883551746,51.73001141194129,52.606791266380924,43.83899272198414,25.426615778750715,48.22289199418253,20.16593665211269,16.658817234353933,3.5071194177587017,3.5071194177587017,4.383899272198391,75.40306748181263,85.92442573508879,77.2362933215587
22,222,22,0.7340666666666649,32.88533749569217,140.366225999119,12.115650656307707,27.692915785846026,41.575416526052265,43.40842465710304,19.351013185102754,91.79807378627625,64.13335666257916,47.597199006923006,53.655024335076746,46.731795388615296,31.154530259076864,41.53937367876904,13.846457892923013,20.769686839384576,10.384843419692288,10.384843419692231,10.384843419692231,70.96309670123054,81.34794012092277,72.87911163658396
23,222,23,0.7674333333333314,36.199532685067275,138.0156691585916,8.609180904673394,25.88487362299653,41.35992437377007,44.89999428845688,20.733653221911382,91.27355988166389,65.52033516090106,47.35049497570344,53.37692160897484,44.767740704301445,28.410296985422065,42.184986432899336,14.63560753794468,21.522952261683372,10.473520604701239,10.331017085607982,10.331017085607982,70.59528341832146,80.92630050392944,75.8390168575042
24,222,24,0.800799999999998,34.85979425875507,141.45089089904454,10.457938277626454,27.88783540700399,41.86804964931801,43.71395960888138,19.487217411058296,92.44420458390776,64.58476631842505,47.06072224931927,54.03268110107035,45.31773253638153,30.502319976410604,42.703247966974914,14.815412559970923,21.787371411721892,12.32479845556677,13.943917703502052,13.943917703502052,71.46257823044783,83.66350622101209,75.27213631214235
25,222,25,0.8341666666666645,35.165599550382126,137.55099670154655,10.549679865114626,26.374199662786623,38.72209979433088,42.52711911729479,19.42083712099039,91.44746380642336,65.08011537099547,47.473559393015876,56.26495928061138,45.71527941549675,31.649039595343993,40.44043948293938,15.824519797671883,22.85763970774849,15.921902377111149,17.670495081174252,17.582799775191063,70.33119910076425,84.39743892091712,79.60951188555562
26,222,26,0.867533333333331,36.95465360017974,142.76812078893656,10.546521720532269,28.12405792141965,40.466527255690764,45.836606511344385,19.415023313147895,94.98377516023598,66.88708693296418,48.33822455244001,56.2481158428393,45.701594122306915,31.639565161597034,43.94384050221811,17.577536200887266,22.850797061153457,15.917136007858684,17.66520525446669,17.577536200887266,70.31014480354901,84.37217376425883,79.41078759977371
27,222,27,0.9008999999999976,35.34260292376665,139.97538407724178,12.354477566250011,28.29390602711465,40.631633259536734,44.439685220595145,19.49423784256748,95.32231029751398,67.15999049996947,49.417910265000046,58.24253709803577,45.88805953178576,32.651119282232116,43.2406714818751,16.76679098276793,23.826492449196394,15.884328299464357,17.737280414962978,17.649253666071445,68.83208929767869,84.71641759714299,79.91039467348023
28,222,28,0.934266666666664,48.966097256296926,145.9073102649759,10.4860497257813,27.962799268750132,42.08958651030484,45.974150129682705,19.22442449726566,106.6224964543258,78.6647891571953,54.17792358320321,57.67327349179709,41.944198903125084,30.58431170019537,56.79943601464868,28.836636745898545,21.8459369287109,17.563915916831775,19.303700810905337,18.350587020117246,66.41164826328145,85.63607276054717,80.69641896768977
29,222,29,0.9676333333333308,46.09085135834471,147.99865591501006,14.181800417952331,30.136325888148463,42.69287275758193,46.39665468473679,23.113506848704514,113.46825191289051,83.3369340987923,60.27265177629704,60.27265177629704,44.318126306100794,29.249963362026506,61.159014302418996,31.022688414270533,18.61361304856223,17.81566628549755,19.580388186247497,18.613613048562343,69.13627703751712,86.86352755995745,85.55120410711966
30,222,30,1.0009999999999972,39.01259624063789,149.63120350305147,14.186398632959254,30.198207932714126,40.93980565841659,44.650548798738626,23.121001022287853,106.39798974719429,76.27250963040264,56.745594531837014,54.97229470271702,40.78589606975777,24.826197607678637,58.51889436095689,30.146097095038385,14.186398632959254,17.821442721609987,17.821442721609987,17.732998291199067,69.15869333567628,86.89169162687534,85.57894267479058
