,video_id,frame_seq,time_seconds,m1,m3,m4,m5,m6,m7,m8,m9,m10,m11,m12,m13,m14,m15,m16,m17,e1,e2,e3,b1,b2,b3,label_measures
0,164,0,0.0,8.179312234759772,148.99454775706582,15.993702181851512,27.84360342724981,43.82301338287205,45.79899319581663,47.77561906364154,99.6834402142371,71.85537231026822,67.4483365776432,63.48078736719356,55.545688946294376,11.902647631348714,39.675492104496016,11.902647631348827,1.1368683772161605e-13,29.82267158823415,25.865256355522856,26.780957170534805,81.33475881421668,75.38343499854227,69.6867011593255,"{'others': ['m1', 'm3', 'm12', 'e1', 'e2']}"
1,164,1,0.0333666666666666,1.966415295655679,152.03836795165248,13.764907069589754,29.4962294348353,45.39822241331648,49.31744471612311,49.19969497855544,94.40841546201705,64.921492091122,63.9084971088098,74.72378123491615,60.95887416532628,18.68094530872895,26.54660649135178,2.9496229434835186,8.848868830450556,3.932830591311415,1.966415295655679,0.9832076478278396,78.65661182622745,72.75736593926035,70.90011177343254,"{'others': ['m1', 'm3', 'm12', 'e1', 'e2']}"
2,164,2,0.0667333333333332,0.0,150.5176194332117,13.453921787030254,28.8298324007792,42.45812092421434,44.37255773185267,49.97170949468375,92.2554636824932,63.425631281714,63.425631281714,73.03557541530711,59.58165362827685,16.336905027108173,25.94684916070128,0.9609944133592307,6.72696089351507,2.7181026654750418,3.843977653437207,2.88298324007792,78.80154189546289,71.11358658858848,63.68718138632153,"{'others': ['m1', 'm3', 'm12', 'e1', 'e2']}"
3,164,3,0.1000999999999998,2.7058546157328007,154.03182865045935,13.39329703382714,26.78659406765439,44.1726104299385,46.27723405124439,49.74653183992962,91.8596794285106,65.08128811768941,64.09649294760152,74.61979775989437,57.39984443068795,16.263289255361542,25.82992999380963,0.9566640738447632,6.696648516913569,3.826656295379223,3.826656295379223,3.826656295379223,74.61979775989442,72.70646961220478,70.89648917131106,"{'others': ['m1', 'm3', 'm12', 'e1', 'e2']}"
4,164,4,0.1334666666666664,1.9413816196322389,138.94108968042167,11.808963372909211,25.31251944824667,43.105667357922016,43.10566735792178,52.453242920946046,89.38792254694192,64.09500157126477,64.06559344786706,75.71388316566106,58.24144858897,14.560362147242472,22.32588862577188,2.912072429448472,8.736217288345529,6.139187725624804,5.824144858897,4.853454049080824,73.7725015460287,71.83111992639635,68.05920236715876,"{'others': ['m1', 'm3', 'm12', 'e1', 'e2']}"
5,164,5,0.166833333333333,1.94092446898685,142.76023944791305,13.72440853791433,25.232018096827915,43.095516966334,43.095516966334,48.52311172466909,87.34160110440428,62.10958300757636,62.10958300757636,75.69605429048374,58.22773406960289,18.43878245537428,20.379706924360903,4.852311172467012,8.734160110440484,7.763697875947003,7.763697875947059,7.763697875947059,73.75512982149701,69.87328088352348,69.98102694734484,"{'others': ['m1', 'm3', 'm12', 'e1', 'e2']}"
6,164,6,0.2001999999999996,1.9229880296049944,137.39611537824376,11.537928177630192,24.99884438486538,40.56547692425025,42.697263381487325,48.07470074012588,84.63332261823487,59.64363678925097,59.61262891775607,71.15055709538626,55.76665285854597,15.38390423684018,21.15286832565539,1.9229880296049944,7.69195211842009,9.614940148025198,7.691952118420147,8.653446133222701,73.07354512499126,71.15055709538626,67.33204668965,"{'others': ['m1', 'm3', 'm12', 'e1', 'e2']}"
7,164,7,0.2335666666666662,1.9229880296052213,137.6246944824429,11.537928177630192,23.15584223237443,42.48019403743441,42.697263381487325,48.07470074012588,82.77787825617348,59.64363678925097,59.61262891775607,71.15055709538626,53.84366482894097,14.422410222037795,20.19137431085278,2.884482044407605,6.730458103617707,7.691952118420147,7.691952118420147,7.691952118420147,74.9965331545963,74.9965331545963,65.40986612919276,"{'others': ['m1', 'm3', 'm12', 'e1', 'e2']}"
8,164,8,0.2669333333333328,1.9511962976241648,151.7674546823731,11.707177785744877,25.44048719298769,47.19314240691513,47.47465491377906,48.81891576946095,86.05195987990011,60.61283813802981,60.48708522634854,76.09665560734175,54.63349633347616,16.585168529805287,20.487561125053503,2.926794446436247,10.731579636932793,11.707177785744932,9.9491879964355,9.75598148812071,70.24306671446931,70.24306671446931,68.31973896337004,"{'others': ['m1', 'm3', 'm12', 'e1', 'e2']}"
9,164,9,0.3002999999999994,0.0,143.0646130464354,11.810632759630115,23.380635147611915,43.11176103663055,45.03637654234716,50.520383434001786,85.63121507538857,62.25422930948551,62.13299408379703,73.78293047450893,54.36636982332243,13.591592455830664,21.35821671630515,1.94165606511865,7.7666242604746,11.649936390711956,11.6499363907119,10.679108358152575,69.89961834427163,73.78293047450893,69.92658058957299,"{'others': ['m1', 'm3', 'm12', 'e1', 'e2']}"
10,164,10,0.333666666666666,1.9605723255835985,146.67649434723344,11.763433953500908,23.608417087076397,43.531770180122805,45.77002179259804,51.0125698458946,86.46546291020637,62.860730758331634,62.73831441867151,76.4623206977559,54.89602511633757,14.704292441876078,20.58600941862676,0.9802861627916856,6.862003139542139,11.763433953500908,7.842289302333995,8.822575465125738,70.5806037210055,72.54117604658904,68.64803385787938,"{'others': ['m1', 'm3', 'm12', 'e1', 'e2']}"
11,164,11,0.3670333333333326,2.71885603728732,149.53708205080008,13.457650787250714,26.98387570239134,42.9888885396374,46.77696797401529,50.02251797221457,92.46109469502392,65.47872423823026,64.4044716246998,78.82338318246843,57.67564623107444,18.263954639840332,24.03151926294765,0.9612607705179244,10.573868475697054,9.61260770517913,7.926759381215931,8.651346934661149,69.21077547728936,71.13329701832515,67.39802277584039,"{'others': ['m1', 'm3', 'm12', 'e1', 'e2']}"
12,164,12,0.4003999999999992,5.545868907667537,164.16615067007808,13.725325292641742,29.476697573408824,47.70736823213457,49.37069433203178,51.01747266143217,98.351259170664,68.87826293109065,66.66586570711718,78.43043024366716,56.862061926658725,16.666466426779266,30.39179171942112,2.941141134137524,8.823423402412573,11.926842058033614,9.803803780458397,9.803803780458397,72.54814797539211,72.54814797539211,70.61461475636689,"{'others': ['m1', 'm3', 'm12', 'e1', 'e2']}"
13,164,13,0.4337666666666658,1.9138755980859516,146.4708889083061,11.483253588516732,23.046114026396825,42.494934566841245,44.67987571264583,47.99975580472518,82.65195361412134,59.60731675558825,59.33014354066984,68.8995215311005,51.67464114832535,12.44019138755982,22.009569377990488,0.9569377990430894,4.784688995215333,11.483253588516732,11.641650775690367,10.526315789473642,72.72727272727275,72.72727272727275,70.91677440631156,"{'others': ['m1', 'm3', 'm12', 'e1', 'e2']}"
14,164,14,0.4671333333333324,1.9228769300983688,152.01676898257983,15.502729428710117,24.99740009127868,40.56313327758947,42.694796572113,48.41680396706332,86.61488088988985,61.65212443685141,62.49350022819669,57.68630790295072,51.91767711265561,6.730069255344347,31.72746934662291,8.652946185442602,4.807192325245865,11.537261580590156,11.696403740777187,11.537261580590156,71.14644641363924,73.06932334373761,69.25027095781581,"{'others': ['m1', 'm3', 'm12', 'e1', 'e2']}"
15,164,15,0.5004999999999991,6.050474858010222,151.74513744651887,11.479968886137613,19.13328147689606,44.37931539804145,44.37931539804122,47.87145496080165,72.8071014522171,53.709680555595895,56.44318035684319,61.22650072606723,47.83320369223998,6.696648516913569,18.176617403051296,0.9566640738447632,0.9566640738447632,11.479968886137613,9.56664073844803,8.609976664603266,74.61979775989442,70.7931414645152,68.98602743283374,"{'others': ['m1', 'm3', 'm12', 'e1', 'e2']}"
16,164,16,0.5338666666666656,6.139187725624822,167.67963783395146,13.589671337426353,19.51064381043513,46.9557570158555,46.95575701585551,44.82027512291345,72.24965876299399,52.739874797615386,55.32937615952153,62.12421182823471,46.593158871176,9.706908098161648,17.472434576691057,1.9413816196322389,1.9413816196322389,9.706908098161648,7.765526478529352,8.736217288345472,73.7725015460287,69.889738306764,71.93598293102372,"{'others': ['m1', 'm3', 'm12', 'e1', 'e2']}"
17,164,17,0.5672333333333321,4.361762289887378,168.67110169489,15.605115171013496,21.457033360143555,49.115845006248094,49.38624493784318,39.06152347174148,72.27902072592501,50.86645217816764,52.66726370217043,60.46982128767718,42.914066720287,12.67915607644852,20.481713661955155,0.9753196981884004,0.9753196981884004,25.43322608908383,23.48880878058814,25.358312152896872,72.17365766593724,70.22301826956055,74.2268912941997,"{'others': ['m1', 'm3', 'm12', 'e1', 'e2']}"
18,164,18,0.6005999999999987,1.9793250662595483,172.2126558203015,15.83460053007684,21.862359927205382,47.54501964708724,49.64122011568556,40.02937217382702,75.31845547774712,53.77065236565042,54.43143932213934,47.50380159023064,45.524476523970975,6.92763773190859,28.700213460764303,6.927637731908703,4.948312665649041,27.781151171809828,27.781151171809828,27.710550927634586,75.21435251786511,67.29705225282669,73.47536182489145,"{'others': ['m1', 'm3', 'm12', 'e1', 'e2']}"
19,164,19,0.6339666666666652,4.380186362278409,164.55748651120354,15.671031136275474,21.63652455146812,51.0813119378063,53.03463372656935,41.18307029638353,74.46316815873408,52.88973008492985,54.848608976964215,43.09533562475758,45.05421451679206,2.9383183380516584,30.36262282653377,6.856076122120498,8.814955014154975,7.835515568137737,7.835515568137737,7.835515568137737,80.31403457341185,70.51964011323963,72.71637075529011,"{'others': ['m1', 'm3', 'm12', 'e1', 'e2']}"
20,164,20,0.6673333333333318,4.340601183427204,163.79659866493918,17.470582756846625,25.235286204334106,52.73428515031648,52.734285150316246,42.88197638444844,81.73710471666946,56.59451535004813,58.23527585615557,65.99997930364293,50.47057240866809,15.52940689497484,23.294110342462204,1.9411758618718975,3.882351723743795,11.647055171231102,9.70587930935926,9.70587930935926,75.70585861300225,65.99997930364299,70.12455820439548,"{'others': ['m1', 'm3', 'm12', 'e1', 'e2']}"
21,164,21,0.7006999999999983,2.786323460740137,158.612549016517,17.732053923017133,25.68863301869267,51.82861232990396,53.77676463289762,43.5237638124348,85.08557770850484,59.40164547777705,60.091960516891504,70.92821569206865,53.19616176905152,18.71716802985145,22.657624457188604,0.9851141068343168,6.895798747840104,13.791597495680035,11.82136928201146,11.82136928201146,76.83890033307438,68.95798747840007,73.13767371747156,"{'others': ['m1', 'm3', 'm12', 'e1', 'e2']}"
22,164,22,0.7340666666666649,1.9511266588824585,160.9531674165071,17.560139929941784,31.27893982256143,53.00461004840263,54.94422557947557,43.32204234368227,92.22040969291808,60.98636444734676,60.48492642535473,72.19168637864914,54.63154644870747,20.48682991826536,28.291336553794963,0.9755633294412293,6.828943306088377,13.657886612176869,11.706759953294466,11.706759953294466,74.14281303753165,68.28943306088439,74.24543289707728,"{'others': ['m1', 'm3', 'm12', 'e1', 'e2']}"
23,164,23,0.7674333333333314,2.759408266952264,155.14157960570307,13.65837408336904,25.44048719298769,49.12986742136213,50.88097438597538,53.00650186528339,94.16417537496427,68.73641128907569,67.31627226803312,74.14545930971758,56.58469263110032,12.682775934556958,28.29234631555016,2.926794446436247,4.877990744060298,15.609570380993148,13.797041334761207,12.682775934556958,76.09665560734175,70.24306671446931,74.17112850186956,"{'others': ['m1', 'm3', 'm12', 'e1', 'e2']}"
24,164,24,0.800799999999998,4.449666252784377,160.20034480745116,14.07108018638518,25.945789868102253,50.105692029111054,52.08200819169743,51.891579736204505,96.03447798968936,70.10166393689909,67.65834228520589,75.618147259936,57.70858606679326,14.924634327618946,28.85429303339663,2.9849268655237893,6.964829352888842,15.91960994946021,14.07108018638518,12.93468308393642,75.618147259936,69.64829352888842,77.63360650710224,"{'others': ['m1', 'm3', 'm12', 'e1', 'e2']}"
25,164,25,0.8341666666666645,14.413233616461794,161.58208505487565,15.838479183051165,27.787956107900037,53.78382337683768,55.75195292343634,47.88521306805732,105.6001722267833,77.84455421083847,70.28325137478953,77.2125860173744,57.41448703856042,19.798098978813982,37.61638805974644,9.899049489406934,9.899049489407048,13.85866928516981,13.999370042521813,13.858669285169752,71.27315632373023,69.29334642584882,75.23277611949288,"{'others': ['m1', 'm3', 'm12', 'e1', 'e2']}"
26,164,26,0.867533333333331,22.020609925391305,158.35253173213383,17.72624905170528,29.609328407904258,47.6378629217938,53.506004072578165,43.50951561259084,112.69734243915262,83.09680742100787,71.88978782080494,70.90499620682135,55.14833038308325,19.69583227967257,49.23958069918149,17.726249051705395,5.90874968390176,17.726249051705338,15.879287640597925,14.771874209754458,74.84416266275582,74.84416266275582,74.84416266275593,"{'others': ['m1', 'm3', 'm12', 'e1', 'e2']}"
27,164,27,0.9008999999999976,22.09044590552653,166.19058191504752,17.99977500421869,30.06621693138308,48.16577624672915,50.15911783088353,45.99942501078101,116.06749419376555,86.0221773999292,74.99906251757784,61.99922501453102,53.99932501265596,11.999850002812424,57.99927501359355,25.99967500609364,1.999975000468794,17.99977500421869,16.492216351054694,15.999800003749897,77.99902501828086,77.99902501828086,75.99905001781212,"{'others': ['m1', 'm3', 'm12', 'e1', 'e2']}"
28,164,28,0.934266666666664,28.0657251114164,168.1567403474221,17.996401079640123,29.994001799400166,50.14971587555648,52.14319164594725,46.03425180302571,122.04115036759846,92.06850360605142,77.98440467844057,65.98680395868053,57.98840347884038,15.996800959680172,59.98800359880033,27.994401679440102,1.999600119960064,15.996800959680115,14.557308607927384,14.99700089970014,71.98560431856055,77.98440467844057,78.0100363651404,"{'others': ['m1', 'm3', 'm12', 'e1', 'e2']}"
29,164,29,0.9676333333333308,24.17370786486264,163.60957026971798,14.19529003888897,30.17960059348976,50.54799073923824,54.53652342323925,50.34827446740639,118.86807351550338,88.69500754050658,76.28565244030244,72.2706181013391,54.20296357600432,13.048861601630731,55.20672216074513,25.093964618520545,3.0112757542224244,12.211250217453228,12.211250217453284,12.045103016889811,70.26310093185742,78.293169609784,78.31890278044094,"{'others': ['m1', 'm3', 'm12', 'e1', 'e2']}"
30,164,30,1.0009999999999972,8.753762190648114,145.91500176288795,13.701805122009771,25.52138311629262,47.34320764740008,49.28609108000311,49.091360602694095,96.41067968377835,70.90006998142971,66.55162487833297,72.42382707348008,54.80722048803898,14.680505487867665,32.297112073308654,6.850902561004773,4.893501829289221,9.787003658578383,9.980824526939008,9.787003658578383,70.46642634176442,80.2534300003428,74.48417765073674,"{'others': ['m1', 'm3', 'm12', 'e1', 'e2']}"
