,video_id,frame_seq,time_seconds,m1,m3,m4,m5,m6,m7,m8,m9,m10,m11,m12,m13,m14,m15,m16,m17,e1,e2,e3,b1,b2,b3,label_measures
0,265,0,0.0,21.7122120755014,163.99125955628406,18.986778668868357,35.40371443221418,43.99540530432841,48.54998214271311,31.419886410034707,107.2504160288519,72.04975922774891,60.05301134887702,77.71566174560564,42.39036095214851,29.43775066121429,45.92289103149415,15.307630343831306,17.662650396728623,9.709996428542665,10.53196985330639,9.420080211588584,42.3903609521484,73.00562163981124,78.60265305189196,"{'others': ['m1', 'm3', 'm12', 'e1', 'e2']}"
1,265,1,0.0333666666666666,21.325613587020342,163.99125955628406,18.986778668868357,35.637920168640775,43.99540530432841,46.26880274575284,31.419886410034707,107.2504160288519,71.62513867931821,60.05301134887702,77.71566174560564,42.39036095214851,29.43775066121429,45.92289103149415,12.952610290934215,17.662650396728623,10.53196985330639,10.53196985330639,9.420080211588584,42.3903609521484,77.71566174560553,78.98977389979748,"{'others': ['m1', 'm3', 'm12', 'e1', 'e2']}"
2,265,2,0.0667333333333332,26.53864634779992,165.81876322952377,16.784513695351226,35.68436559548517,44.344164237543815,49.56407497278524,31.22100020760782,110.1145971047676,74.53533677251127,60.529061609797054,78.33172678914912,40.35270773986474,28.484264286963366,49.84746250218575,18.98950952464213,18.989509524642244,10.61545853911992,13.840864568111936,10.681599107611303,40.35270773986463,75.95803809856886,79.61593904339945,"{'others': ['m1', 'm3', 'm12', 'e1', 'e2']}"
3,265,3,0.1000999999999998,36.114236144481445,170.7143005362304,19.367826779401447,31.597102970694404,47.197377317056905,50.16114698915692,28.927321009929997,115.933502907845,84.38821365657574,66.06278948920249,81.67763064119572,40.83881532059786,32.43082393106306,54.05137321843836,25.223974168604627,20.41940766029893,12.936691237032369,16.115005972485267,13.212557897840496,38.436532066445125,79.27534738704298,76.91059064922476,"{'others': ['m1', 'm3', 'm12', 'e1', 'e2']}"
4,265,4,0.1334666666666664,39.53733567621965,168.80901503847133,15.00174227985826,32.438733503126016,45.4757946564857,50.84348409136198,32.90416235674692,119.63322266103737,87.19585585384206,66.58932344286575,78.92067963598913,44.392882295243794,29.59525486349594,56.72423848836718,27.12898362487124,19.73016990899725,13.281277079089543,16.544250421552043,14.79762743174797,41.92661105661921,83.85322211323842,74.19337510406741,"{'others': ['m1', 'm3', 'm12', 'e1', 'e2']}"
5,265,5,0.166833333333333,36.58911615433199,164.20970690412975,14.804664203952168,34.42014512209162,40.799125949795695,45.468477552520845,34.420145122091505,120.15046718553326,85.74002187631719,66.93147456945394,77.88389768081925,43.80969244546077,26.772589827781644,58.412923260614434,29.206461630307217,19.47097442020481,15.393156857680946,18.535815416794986,17.037102617679125,38.94194884040962,80.31776948334482,78.56544210450706,"{'others': ['m1', 'm3', 'm12', 'e1', 'e2']}"
6,265,6,0.2001999999999996,34.448545802327175,162.22911640363313,14.929272406225,34.70985330773819,39.9540415922373,45.25611183360756,34.448545802327175,118.44657977049224,83.77235859432038,66.26764614930835,76.08507520846524,46.63278803099479,26.99792991268123,56.45021709015157,24.54357264789201,17.18050085352445,15.52271829702964,18.69182804936326,18.40767948591906,41.72407350141634,83.4481470028328,76.87272638031175,"{'others': ['m1', 'm3', 'm12', 'e1', 'e2']}"
7,265,7,0.2335666666666662,33.59969982128152,158.68369720709282,16.92728422663828,33.59969982128163,36.61931474009823,41.80730800787502,31.48656874702798,115.527939785405,81.95323287231251,64.63474630413134,74.21026427511379,43.089830869420894,27.529614166574447,56.256168079521785,25.13573467382889,15.560216702846446,15.140223282089352,18.23124305953113,16.75715644921911,38.30207188392978,78.99802326060501,77.27448935367386,"{'others': ['m1', 'm3', 'm12', 'e1', 'e2']}"
8,265,8,0.2669333333333328,29.226486632063484,156.1977306634054,17.221872406491872,34.443744812983454,39.64772771147224,44.909148805797656,34.443744812983454,115.11633371857936,80.7042740287848,65.75959492214292,77.9372976855027,48.710811053439215,29.2264866320636,51.146351606111125,19.484324421375614,17.04878386870371,15.40371096029738,18.548524239279963,17.048783868703822,41.40418939542337,80.37283823817472,80.96111937837289,"{'others': ['m1', 'm3', 'm12', 'e1', 'e2']}"
9,265,9,0.3002999999999994,22.05475772399665,144.76620306496318,19.635955692074774,36.85641643553411,39.64772771147248,42.534887140222224,34.44374481298349,112.98388358763,76.12768914583118,64.54182464580686,80.37283823817461,48.7108110534391,30.44425690839944,47.49304077710326,13.395473039695844,15.831013592367754,15.403710960297271,15.40371096029738,14.613243316031683,41.40418939542337,80.37283823817472,80.33592763313364,"{'others': ['m1', 'm3', 'm12', 'e1', 'e2']}"
10,265,10,0.333666666666666,12.115650656307672,136.59845909127776,23.87925400957145,40.463092080908254,36.88659689298815,41.496358599202885,38.67969183355451,114.93915422653818,74.61025526389385,67.71812556988459,83.16261034898105,52.27364079078802,29.700932267493272,46.33345433728948,8.316261034898048,10.692335616297555,19.156525704423043,18.09564489454881,17.820559360495963,38.01719330239143,76.03438660478275,78.98437889919605,"{'others': ['m1', 'm3', 'm12', 'e1', 'e2']}"
11,265,11,0.3670333333333326,23.530621016084403,127.2343647269236,21.202136610764228,40.07804351153467,31.84626953291629,36.34805893492631,37.75368746067001,122.5597830926354,82.48188793830724,70.2415290592221,84.28983487106643,56.19322324737766,32.779380227637034,51.51045464342951,14.04830581184433,16.38969011381846,18.87684373033496,19.30754957440434,18.73107441579259,37.46214883158507,77.26568196514427,81.78103782923851,"{'others': ['m1', 'm3', 'm12', 'e1', 'e2']}"
12,265,12,0.4003999999999992,27.976769631491173,125.76140360467598,23.349320826032844,39.56512704424262,30.9972786062892,38.317575134897005,39.76924771304861,130.62485265252909,91.0857627378912,76.67036054055609,88.28708183457968,62.73029498772769,36.01183601147329,54.59859008191109,17.425081941035387,17.4250819410355,19.1587875674486,22.04117893949601,19.7484261998402,39.49685239968039,76.67036054055598,78.89113772974616,"{'others': ['m1', 'm3', 'm12', 'e1', 'e2']}"
13,265,13,0.4337666666666658,28.139098665738047,128.78004636315714,23.4848001093787,39.79469496604126,31.177133477552665,38.53990441194579,39.99999999999995,131.38277454483512,91.61426778309944,77.11522339448209,88.7993481512218,63.094273686394445,36.22078674589318,54.91538635667666,17.52618713510958,17.52618713510958,18.8400850704224,22.169068018114952,21.03142456213152,37.38919922156708,77.11522339448209,79.93171146856227,"{'others': ['m1', 'm3', 'm12', 'e1', 'e2']}"
14,265,14,0.4671333333333324,32.196139713045,117.26338904226824,23.45267780845364,39.36493854862254,30.68214858665155,35.17901671268046,39.36493854862254,134.09581561891662,94.73635885003792,78.19062501739484,87.3895220782648,64.39227942608977,36.79558824347998,57.493106630437296,18.39779412173993,18.39779412174005,18.540969776200026,21.81710000533325,19.54765625434868,39.09531250869736,73.59117648695985,79.83058119365229,"{'others': ['m1', 'm3', 'm12', 'e1', 'e2']}"
15,265,15,0.5004999999999991,27.19225374894415,112.93226772415288,22.694566425292663,38.65405082367225,27.932314197728047,32.87979746107146,41.2081691846067,129.68403920875215,91.0307007293018,76.7785878701145,88.06955667454315,65.48761906568598,36.13110017417148,51.93845650037167,15.80735632620008,18.06555008708574,18.206140145860424,18.621542798485237,18.065550087085853,40.64748769594303,74.52039410922885,74.48617119394105,"{'others': ['m1', 'm3', 'm12', 'e1', 'e2']}"
16,265,16,0.5338666666666656,15.780596863049418,104.60524274307927,24.65008030704906,40.23278567041505,27.60477035411641,32.494237741195256,41.15076201005018,121.52084255426014,81.44989627441429,72.53068584471725,91.500249834874,71.41482913941388,41.28669809622352,39.054984685617,1.1158567053032584,21.201277400763388,18.403180236077645,20.57538100502501,18.96956399015687,40.17084139092037,73.64654255002051,77.46971292210569,"{'others': ['m1', 'm3', 'm12', 'e1', 'e2']}"
17,265,17,0.5672333333333321,11.854689556284352,98.275403542259,26.50789170000853,39.68559234553328,27.229326650157837,29.94174109145093,42.34401633259377,119.86807621527416,80.34212213421984,73.74557963562904,103.4639475484944,77.04762051483624,48.42993289503988,28.61768761979636,8.805442344552716,26.416327033658035,19.93416793539717,22.449561170345163,22.01360586138173,44.02721172276358,72.64489934255982,73.47401657215786,"{'others': ['m1', 'm3', 'm12', 'e1', 'e2']}"
18,265,18,0.6005999999999987,17.871038775271582,137.33983409463872,25.39951838820316,38.24569313315239,34.37562944233696,39.23496921998296,40.437544655495344,121.73312962582104,83.55546797303417,74.55672295856948,88.45712893389612,58.12897044227452,32.85550503259003,48.01958427840066,12.636732704842302,12.636732704842302,27.915454960536074,25.7739786600188,26.53713868016871,58.12897044227452,90.98447547486457,92.23949304289044,"{'others': ['m1', 'm3', 'm12', 'e1', 'e2']}"
19,265,19,0.6339666666666652,20.202245651764883,139.6916264426985,25.37875700844589,38.21443138452079,34.347531055338614,39.20289884434453,40.40449130352977,123.9704512293119,85.89667247320419,75.75842119411834,88.38482472647127,58.081456248824,32.82864918411781,50.505614129412265,15.151684238823693,12.626403532353038,27.892637072705597,31.23599726133809,29.040728124412,58.081456248824,90.91010543294192,92.16409715882664,"{'others': ['m1', 'm3', 'm12', 'e1', 'e2']}"
20,265,20,0.6673333333333318,13.249235444034678,140.64942270175902,26.11348474594772,39.06234967056909,34.66683112892736,39.74770633210404,44.24896763546908,122.23479562384638,83.18903308077032,76.6524710401876,90.94360970869718,62.36133237167803,32.479860610249034,45.47180485434865,9.09436097086973,11.692749819689652,28.700142898249656,29.050870489693857,27.28308291260919,57.164554674038186,88.34522085987726,92.27024782017226,"{'others': ['m1', 'm3', 'm12', 'e1', 'e2']}"
21,265,21,0.7006999999999983,15.724965816664197,141.97259372039235,25.980621439138368,38.86360358212207,34.49044908473817,40.13260672509674,41.443403065607534,121.6128748303653,82.76577398176774,74.96988521445769,87.89572749281251,62.04404293610298,33.607189923722444,46.53303220207727,7.7555053670129155,12.925842278354708,28.554118883130087,28.903062000841977,28.43685301238054,59.45887448043197,87.89572749281251,86.28423310103945,"{'others': ['m1', 'm3', 'm12', 'e1', 'e2']}"
22,265,22,0.7340666666666649,9.455943033120931,102.56410256410254,27.616229780176905,43.63496899729776,30.16500752790306,32.43361702736813,43.63496899729776,124.18306352956154,80.56343338115067,75.68230077691601,103.20313742306725,84.85591299229975,50.45486718461064,29.814239699997188,13.760418323075667,25.22743359230537,22.934030538459297,23.388213848187373,21.78732901153637,50.45486718461064,73.38889772306993,73.96002616336379,"{'others': ['m1', 'm3', 'm12', 'e1', 'e2']}"
23,265,23,0.7674333333333314,16.222942606967617,110.50670305852007,25.34104644766414,43.65147415427901,27.91100581873985,32.445885213935235,43.83197722954584,128.99024792955103,85.38262768949129,76.85806327885234,87.18228073422063,78.00519855167113,39.00259927583557,45.88541091274772,2.29427054563746,18.354164365098995,20.64843491073645,23.39706056333248,22.942705456373915,50.47395200402252,73.41665746039632,74.3074526953497,"{'others': ['m1', 'm3', 'm12', 'e1', 'e2']}"
24,265,24,0.800799999999998,25.495848609402334,125.69034121014349,23.197983930150585,41.80483158903156,30.096363046615,34.70114267581242,41.54914214710834,131.8958555092724,90.14143721907008,77.32757010711828,85.40656996905602,69.24857024518053,35.778427960009935,54.244713358724766,10.387285536777084,15.003856886455765,23.197983930150585,23.53998739790508,21.928713910973897,48.47399917162636,69.24857024518053,77.04281660822615,"{'others': ['m1', 'm3', 'm12', 'e1', 'e2']}"
25,265,25,0.8341666666666645,25.80741840214881,123.40156530027782,23.08285674839351,41.61321179526141,27.795440268449536,34.70114267581242,41.61321179526141,131.8958555092724,90.28908913984512,77.32757010711828,85.40656996905602,69.24857024518053,35.778427960009935,54.244713358724766,12.695571211616423,15.003856886455765,23.08285674839351,23.197983930150585,21.928713910973897,50.7822848464657,73.86514159485921,77.42225520644642,"{'others': ['m1', 'm3', 'm12', 'e1', 'e2']}"
26,265,26,0.867533333333331,25.913427556986942,144.3370707622123,23.460914963905797,40.1586177011212,40.15861770112118,42.48952413825159,38.19160257177721,127.46857241475476,87.31117484932317,73.90188213630313,77.42101938088899,58.65228740976431,30.49918945307752,58.652287409764426,18.768731971124566,11.73045748195284,21.244762069125784,21.629894851849723,22.287869215710543,46.92182992781147,72.72883638810788,80.62503091747689,"{'others': ['m1', 'm3', 'm12', 'e1', 'e2']}"
27,265,27,0.9008999999999976,21.47501198506923,156.34044712492002,21.47501198506925,38.01833125211407,40.93875402445584,43.27614880465002,36.81586509848493,117.38416929089074,79.54314347271577,67.58827286062422,73.51706872559123,47.43036691973634,24.900942632861643,55.73068113069007,17.786387594901043,10.671832556940783,21.47501198506925,22.498198458580696,21.343665113881343,45.05884857374952,73.51706872559123,79.54314347271587,"{'others': ['m1', 'm3', 'm12', 'e1', 'e2']}"
28,265,28,0.934266666666664,22.0563932269818,163.84638410380805,17.223149519760568,36.61691814991714,42.04706649821077,47.29315035526212,40.170942530980696,115.74161512957257,79.30133569402601,66.98233200346885,77.94307724040016,46.27870211148763,23.139351055743877,52.36800502089386,18.2679087282188,10.960745236931302,22.05639322698171,20.81081074573608,20.703629891981336,41.40725978396256,80.3787984041627,82.16724027670318,"{'others': ['m1', 'm3', 'm12', 'e1', 'e2']}"
29,265,29,0.9676333333333308,20.34861341454637,156.84513316787104,19.89468389425282,37.09664075171309,40.6972268290928,46.099167035864255,40.6972268290928,117.64679018174274,80.83142324060891,69.09369142367598,81.43185060647534,46.88500489463729,24.676318365598604,51.82026856775701,17.273422855918966,12.33815918279936,22.345356659178947,21.08345565363225,19.741054692478883,39.48210938495777,83.89948244303514,86.78910594973465,"{'others': ['m1', 'm3', 'm12', 'e1', 'e2']}"
30,265,30,1.0009999999999972,12.78933224320137,161.34534456839884,20.22170982057332,37.955868808890365,41.36620193687542,43.8037322190312,44.4453181913004,115.1039901888117,77.26704473308847,68.97534628970709,75.24583231604413,42.63930497909166,16.303263668476234,53.92617982649813,18.811458079011004,3.7622916158021553,20.2217098205734,20.683100968437643,21.31965248954577,37.62291615802212,82.77041554764855,85.79344884788405,"{'others': ['m1', 'm3', 'm12', 'e1', 'e2']}"
