,frame_seq,m1,m3,m4,m5,m6,m7,m8,m9,m10,m11,m12,m13,m14,m15,m16,m17,e1,e2,e3,b1,b2,b3
0,0,2.0,53.009433122794285,8.0,11.0,16.0,15.0,14.035668847618199,35.014282800023196,24.020824298928627,23.0,24.0,25.0,10.5,10.5,1.5,2.5,7.0710678118654755,7.0,7.5,24.0,19.0,19.026297590440446
1,1,2.0,53.009433122794285,8.0,11.0,16.0,15.0,14.035668847618199,35.014282800023196,24.020824298928627,23.0,24.0,25.0,10.5,10.5,1.5,2.5,7.0710678118654755,7.0,7.5,24.0,19.0,19.026297590440446
2,2,1.0,53.009433122794285,9.055385138137417,10.04987562112089,15.0,16.0,14.0,34.058772731852805,24.020824298928627,23.5,24.0,25.0,10.5,9.5,1.5,2.5,7.0710678118654755,7.0710678118654755,7.0,24.0,19.0,16.0312195418814
3,3,1.0,53.03772242470448,9.0,10.04987562112089,14.035668847618199,15.033296378372908,14.0,34.0147027033899,24.0,23.5,24.0,26.0,11.0,9.0,2.0,2.0,8.06225774829855,7.0,7.0,24.0,19.0,17.029386365926403
4,4,2.0,50.00999900019995,8.0,9.055385138137417,14.0,14.0,16.0312195418814,35.05709628591621,26.019223662515376,25.0,26.0,27.0,10.5,8.5,1.5,2.5,7.0,7.0,7.5,24.0,20.0,17.0
5,5,2.0,53.009433122794285,8.06225774829855,10.0,14.0,15.0,17.0,37.013511046643494,27.018512172212592,26.0,27.0,28.0,10.5,9.5,1.5,2.5,7.0,7.0710678118654755,7.5,25.0,20.0,20.024984394500787
6,6,2.0,51.03920062069938,7.0,11.045361017187261,14.0,14.0,18.027756377319946,38.05259518088089,27.018512172212592,26.0,27.0,29.0,10.0,10.0,2.0,3.0,8.06225774829855,8.0,8.0,25.0,18.0,19.1049731745428
7,7,3.0,51.088159097779204,7.0710678118654755,10.04987562112089,14.035668847618199,15.0,17.0,37.05401462729781,27.018512172212592,25.5,26.0,29.0,10.5,9.5,1.5,3.5,8.0,7.0,7.5,26.0,19.0,20.024984394500787
8,8,4.123105625617661,50.08991914547278,7.0,10.04987562112089,14.0,15.0,17.029386365926403,38.118237105091836,28.071337695236398,26.0,27.0,30.0,11.5,9.5,1.5,4.5,9.055385138137417,9.0,9.0,26.0,19.0,23.08679276123039
9,9,1.0,50.15974481593781,7.0710678118654755,10.04987562112089,15.033296378372908,14.035668847618199,18.027756377319946,36.124783736376884,26.076809620810597,25.5,27.0,31.0,11.0,7.0,4.0,4.0,8.06225774829855,8.0,8.0,26.0,19.0,21.02379604162864
10,10,1.4142135623730951,53.150729063673246,7.0,10.04987562112089,15.033296378372908,16.0312195418814,17.11724276862369,35.22782990761707,25.179356624028344,24.5,25.0,29.0,10.0,8.0,3.0,3.0,8.06225774829855,8.0,8.0,26.0,19.0,23.08679276123039
11,11,1.0,50.24937810560445,6.082762530298219,9.055385138137417,13.038404810405298,14.035668847618199,18.027756377319946,34.132096331752024,25.079872407968907,24.5,25.0,30.0,9.5,6.5,3.5,3.5,8.06225774829855,8.06225774829855,8.5,26.0,18.0,20.09975124224178
12,12,2.0,51.15662224971465,6.0,9.055385138137417,14.035668847618199,15.033296378372908,18.110770276274835,35.12833614050059,26.076809620810597,25.0,25.0,29.0,9.0,8.0,2.0,3.0,8.06225774829855,8.0,8.0,25.0,17.0,19.026297590440446
13,13,4.0,52.15361924162119,7.0,8.246211251235321,15.033296378372908,15.033296378372908,17.11724276862369,36.22154055254967,28.071337695236398,26.0,24.0,28.0,9.0,10.0,0.0,2.0,8.06225774829855,7.0,7.0,25.0,17.0,19.1049731745428
14,14,5.0990195135927845,52.15361924162119,6.0,9.055385138137417,14.035668847618199,15.033296378372908,17.11724276862369,37.21558813185679,28.160255680657446,25.5,24.0,28.0,9.0,11.0,1.0,3.0,7.0710678118654755,8.0,8.0,26.0,18.0,19.1049731745428
15,15,5.0,52.23983154643591,7.0710678118654755,9.055385138137417,15.033296378372908,15.033296378372908,16.0312195418814,37.12142238654117,28.071337695236398,25.5,23.0,28.0,9.5,11.5,1.5,2.5,8.246211251235321,7.0,7.0,26.0,17.0,19.235384061671343
16,16,6.0,53.150729063673246,7.0710678118654755,9.055385138137417,15.033296378372908,15.033296378372908,15.132745950421556,37.21558813185679,28.160255680657446,25.0,23.0,27.0,10.0,12.0,2.0,3.0,8.06225774829855,7.0710678118654755,7.0,26.0,18.0,19.1049731745428
17,17,6.0,52.23983154643591,7.0,10.198039027185569,15.033296378372908,15.0,15.132745950421556,38.2099463490856,28.071337695236398,25.0,22.0,27.0,9.5,13.5,2.5,2.5,7.0710678118654755,7.0,7.5,26.0,17.0,18.110770276274835
18,18,6.0,53.150729063673246,7.0,10.04987562112089,15.033296378372908,15.033296378372908,15.033296378372908,38.05259518088089,28.0178514522438,25.0,23.0,27.0,10.0,13.0,2.0,3.0,8.06225774829855,8.06225774829855,8.0,26.0,17.0,19.1049731745428
19,19,6.082762530298219,53.150729063673246,7.0,10.04987562112089,15.033296378372908,16.0,15.132745950421556,38.2099463490856,28.160255680657446,25.0,22.0,26.0,9.0,14.0,3.0,2.0,8.246211251235321,7.0710678118654755,7.5,26.0,16.0,16.1245154965971
20,20,6.082762530298219,53.150729063673246,7.0,10.04987562112089,15.033296378372908,16.0,15.132745950421556,38.2099463490856,28.160255680657446,25.0,22.0,26.0,9.0,14.0,3.0,2.0,8.246211251235321,7.0710678118654755,7.5,26.0,16.0,16.1245154965971
21,21,6.082762530298219,52.15361924162119,7.0,10.04987562112089,14.035668847618199,16.0312195418814,15.033296378372908,38.118237105091836,28.071337695236398,25.0,23.0,27.0,10.0,13.0,2.0,3.0,8.246211251235321,8.0,7.5,26.0,17.0,18.110770276274835
22,22,5.0,52.15361924162119,7.0710678118654755,10.04987562112089,14.035668847618199,15.033296378372908,15.033296378372908,37.12142238654117,27.073972741361768,24.5,22.0,26.0,9.0,13.0,2.0,2.0,8.06225774829855,7.0,7.5,26.0,17.0,17.11724276862369
23,23,5.0,52.15361924162119,6.0,10.04987562112089,14.035668847618199,15.033296378372908,15.033296378372908,36.05551275463989,26.019223662515376,23.5,21.0,25.0,8.0,13.0,2.0,2.0,7.0710678118654755,6.0,6.5,25.0,17.0,17.11724276862369
24,24,5.0,52.08646657242167,6.0,9.055385138137417,15.033296378372908,16.0,15.033296378372908,35.05709628591621,26.019223662515376,23.5,22.0,25.0,8.5,11.5,1.5,2.5,6.324555320336759,6.082762530298219,6.5,23.0,16.0,13.038404810405298
25,25,6.0,51.088159097779204,7.0,10.04987562112089,14.035668847618199,14.035668847618199,14.035668847618199,37.05401462729781,27.018512172212592,24.0,21.0,24.0,8.5,14.5,3.5,1.5,4.123105625617661,5.0990195135927845,4.5,25.0,17.0,18.110770276274835
26,26,5.0,50.039984012787215,7.0,10.04987562112089,15.033296378372908,15.0,13.0,35.014282800023196,25.0,22.5,20.0,22.0,8.0,14.0,3.0,1.0,4.123105625617661,4.0,3.5,25.0,18.0,15.132745950421556
27,27,5.0,51.0098029794274,7.0,10.0,14.0,14.035668847618199,13.038404810405298,35.014282800023196,25.019992006393608,22.5,21.0,22.0,8.5,13.5,2.5,1.5,5.0990195135927845,4.123105625617661,4.0,24.0,18.0,17.029386365926403
28,28,5.0,49.0,6.0,10.0,14.0,14.035668847618199,13.0,34.0,24.0,21.5,21.0,21.0,8.0,13.0,3.0,2.0,6.082762530298219,6.0,5.5,23.0,18.0,15.0
29,29,4.0,48.0,6.0,10.0,13.0,15.033296378372908,13.038404810405298,33.015148038438355,23.021728866442675,21.0,20.0,20.0,7.0,13.0,3.0,1.0,7.0710678118654755,7.0710678118654755,6.5,20.0,18.0,14.035668847618199
30,30,4.0,48.0,6.0,9.0,13.038404810405298,14.035668847618199,13.0,32.0,23.0,21.0,20.0,20.0,7.0,12.0,2.0,2.0,7.0710678118654755,7.0,7.0,21.0,19.0,18.0
31,31,4.0,48.010415536631214,6.0,9.0,13.0,14.0,13.038404810405298,32.01562118716424,23.021728866442675,21.0,20.0,19.0,6.5,12.5,2.5,1.5,7.0,7.0,7.0,20.0,19.0,16.0312195418814
32,32,4.0,48.010415536631214,6.0,9.0,14.035668847618199,14.035668847618199,13.0,32.0,23.0,21.0,20.0,19.0,6.5,12.5,3.5,1.5,7.0710678118654755,7.0710678118654755,7.0,19.0,18.0,13.0
33,33,4.0,46.010868281309364,6.0,9.0,14.035668847618199,14.035668847618199,12.0,31.0,22.0,20.0,20.0,19.0,7.5,11.5,2.5,2.5,7.0,6.0,6.5,18.0,17.0,12.0
34,34,4.0,47.01063709417264,7.0,8.0,13.038404810405298,14.0,12.041594578792296,31.016124838541646,23.021728866442675,21.0,20.0,19.0,7.5,11.5,2.5,1.5,7.0,7.0710678118654755,7.0,18.0,17.0,14.0
35,35,4.0,46.010868281309364,6.0,8.06225774829855,13.0,13.0,12.041594578792296,30.0,22.02271554554524,20.0,20.0,19.0,7.5,10.5,1.5,2.5,7.0710678118654755,6.082762530298219,6.5,18.0,17.0,12.0
36,36,4.0,44.01136216933077,6.0,9.0,12.041594578792296,13.038404810405298,12.041594578792296,31.016124838541646,22.02271554554524,20.0,20.0,19.0,7.5,11.5,2.5,2.5,7.0,7.0,7.0,19.0,18.0,14.035668847618199
37,37,3.1622776601683795,45.0111097397076,6.0,9.055385138137417,12.041594578792296,13.038404810405298,12.0,30.0,21.02379604162864,19.5,20.0,19.0,7.5,10.5,1.5,2.5,7.0710678118654755,6.0,6.0,18.0,17.0,12.0
38,38,4.0,45.044422518220834,7.0,9.055385138137417,12.0,13.038404810405298,11.0,31.016124838541646,22.0,20.0,21.0,19.0,9.0,11.0,2.0,3.0,7.0,7.0710678118654755,7.0,18.0,17.0,13.0
39,39,4.123105625617661,45.044422518220834,7.0,8.0,12.041594578792296,13.0,11.0,30.01666203960727,22.02271554554524,20.0,21.0,19.0,9.0,10.0,1.0,3.0,7.0,7.0,7.0,19.0,17.0,13.0
40,40,4.0,46.010868281309364,7.0,8.0,12.041594578792296,14.0,10.04987562112089,29.017236257093817,21.02379604162864,19.0,19.0,18.0,8.5,10.5,1.5,2.5,8.06225774829855,6.082762530298219,6.5,19.0,18.0,12.0
41,41,5.0990195135927845,45.044422518220834,6.0,8.0,13.0,14.035668847618199,11.0,30.01666203960727,22.02271554554524,19.5,21.0,19.0,9.0,10.0,2.0,3.0,8.06225774829855,7.0710678118654755,7.0,19.0,18.0,17.0
42,42,5.0990195135927845,46.010868281309364,6.0,8.0,13.038404810405298,14.035668847618199,11.0,30.01666203960727,22.02271554554524,19.5,20.0,19.0,8.5,10.5,1.5,3.5,7.0710678118654755,7.0,7.0,18.0,18.0,17.0
43,43,4.123105625617661,46.04345773288535,6.0,9.0,12.041594578792296,13.038404810405298,12.0,31.016124838541646,22.02271554554524,20.0,21.0,19.0,8.0,11.0,2.0,3.0,7.0710678118654755,6.082762530298219,6.5,18.0,17.0,14.0
44,44,4.123105625617661,45.044422518220834,6.0,8.0,13.038404810405298,14.035668847618199,12.041594578792296,30.066592756745816,22.090722034374522,20.0,21.0,19.0,8.0,10.0,2.0,3.0,7.0,6.082762530298219,6.5,18.0,19.0,17.029386365926403
45,45,5.0990195135927845,45.044422518220834,6.0,8.0,13.038404810405298,14.035668847618199,12.0,31.016124838541646,23.021728866442675,20.5,21.0,19.0,8.0,11.0,2.0,3.0,7.0,7.0710678118654755,7.0,18.0,19.0,17.029386365926403
46,46,4.123105625617661,45.044422518220834,6.0,8.0,13.038404810405298,13.038404810405298,12.041594578792296,30.066592756745816,22.090722034374522,20.0,21.0,19.0,8.0,10.0,1.0,3.0,7.0,7.0,7.0,19.0,19.0,18.0
47,47,4.0,45.044422518220834,6.0,9.055385138137417,13.038404810405298,13.038404810405298,12.041594578792296,31.064449134018133,22.02271554554524,20.0,21.0,19.0,8.0,11.0,2.0,3.0,7.0,7.0710678118654755,7.0,18.0,18.0,17.029386365926403
48,48,4.0,45.044422518220834,6.0,9.0,13.038404810405298,13.038404810405298,12.041594578792296,31.016124838541646,22.02271554554524,20.0,21.0,19.0,8.0,11.0,2.0,3.0,7.0,6.082762530298219,6.5,18.0,19.0,17.029386365926403
49,49,4.0,46.04345773288535,6.082762530298219,9.0,13.038404810405298,14.035668847618199,12.0,31.016124838541646,22.02271554554524,20.0,21.0,19.0,8.0,11.0,2.0,3.0,7.0710678118654755,7.0710678118654755,7.0,18.0,18.0,16.0
50,50,5.0,44.04543109109048,6.082762530298219,9.0,13.0,14.0,11.0,31.016124838541646,22.02271554554524,19.5,21.0,19.0,9.0,11.0,1.0,3.0,7.0,6.082762530298219,6.5,19.0,19.0,17.0
51,51,5.0,47.01063709417264,6.0,9.0,12.0,14.035668847618199,11.045361017187261,31.016124838541646,22.02271554554524,19.5,20.0,19.0,8.5,11.5,1.5,2.5,8.0,7.0710678118654755,7.0,19.0,19.0,17.0
52,52,5.0,45.0111097397076,6.0,9.0,13.0,14.0,11.045361017187261,31.016124838541646,22.02271554554524,19.5,20.0,19.0,8.5,11.5,1.5,2.5,7.0710678118654755,7.0710678118654755,7.0,19.0,18.0,11.045361017187261
53,53,5.0990195135927845,46.010868281309364,6.0,9.0,13.0,13.038404810405298,12.0,32.01562118716424,23.021728866442675,20.5,21.0,20.0,8.5,11.5,1.5,2.5,7.0,7.0710678118654755,7.0,19.0,17.0,13.038404810405298
54,54,4.0,45.0,7.0,9.0,12.0,14.0,11.045361017187261,31.016124838541646,22.02271554554524,20.0,20.0,20.0,9.0,11.0,1.0,3.0,7.0,7.0,7.0,20.0,18.0,12.041594578792296
55,55,5.0,45.0,6.0,10.04987562112089,13.0,14.035668847618199,12.0,33.015148038438355,23.0,20.5,21.0,21.0,9.0,12.0,2.0,3.0,8.06225774829855,7.0710678118654755,7.0,20.0,18.0,13.0
56,56,5.0990195135927845,43.01162633521314,7.0,11.045361017187261,13.0,13.0,11.0,34.0,23.021728866442675,20.5,22.0,21.0,10.5,12.5,1.5,3.5,8.06225774829855,7.0,7.0,21.0,18.0,14.0
57,57,5.0,42.01190307520001,7.0,10.0,13.0,14.0,12.041594578792296,34.0147027033899,24.020824298928627,21.5,21.0,22.0,9.5,12.5,1.5,3.5,8.06225774829855,7.0710678118654755,7.0,22.0,18.0,14.0
58,58,5.0,42.01190307520001,7.0,10.0,13.0,14.0,12.041594578792296,34.0147027033899,24.020824298928627,21.5,21.0,22.0,9.5,12.5,1.5,3.5,8.06225774829855,7.0710678118654755,7.0,22.0,18.0,14.0
59,59,4.0,43.01162633521314,7.0,11.0,13.0,14.0,12.0,34.0,23.0,21.0,21.0,22.0,9.5,12.5,0.5,3.5,8.06225774829855,7.0710678118654755,7.0,23.0,18.0,17.029386365926403
60,60,5.0,43.01162633521314,7.0,11.0,12.0,13.0,11.0,34.0,23.0,20.5,21.0,22.0,10.5,12.5,0.5,4.5,7.280109889280518,8.0,7.5,23.0,17.0,15.033296378372908
61,61,6.0,42.01190307520001,6.0,10.0,12.0,13.0,12.0,34.0,24.0,21.0,21.0,22.0,9.5,12.5,0.5,3.5,7.0710678118654755,8.0,7.5,23.0,17.0,16.1245154965971
62,62,4.0,44.01136216933077,7.0,11.0,13.0,15.0,11.0,33.0,22.0,20.0,20.0,21.0,9.5,12.5,0.5,2.5,7.0710678118654755,7.0,7.0,22.0,16.0,17.029386365926403
63,63,2.0,46.010868281309364,7.0,11.0,12.0,14.0,13.0,33.0,22.0,21.0,20.0,21.0,7.5,12.5,0.5,1.5,8.06225774829855,7.0,7.0,22.0,17.0,16.0312195418814
64,64,3.0,46.010868281309364,7.0,10.0,12.041594578792296,13.0,13.0,33.0,23.0,21.5,20.0,21.0,7.5,12.5,1.5,0.5,8.06225774829855,7.0,7.5,22.0,18.0,17.029386365926403
65,65,3.0,46.010868281309364,6.0,10.0,12.0,14.0,14.0,33.0,23.0,21.5,20.0,21.0,6.5,12.5,1.5,0.5,8.06225774829855,7.0,7.0,22.0,19.0,16.0
66,66,2.0,47.0,7.0,10.0,13.0,14.0,14.0,33.0,23.0,22.0,21.0,21.0,7.0,12.0,1.0,1.0,8.0,7.0,7.0,22.0,19.0,18.027756377319946
67,67,9.0,46.010868281309364,7.0,12.0,13.038404810405298,15.033296378372908,13.0,41.0,29.0,24.5,25.0,24.0,11.5,16.5,3.5,5.5,7.0710678118654755,7.0,7.5,21.0,19.0,16.0312195418814
68,68,13.0,45.0111097397076,7.0,13.0,14.035668847618199,16.0312195418814,13.038404810405298,46.010868281309364,33.015148038438355,26.5,27.0,26.0,13.5,19.5,5.5,7.5,8.06225774829855,7.0,7.0,21.0,20.0,18.0
69,69,13.038404810405298,45.0,7.0,13.038404810405298,14.0,16.0,13.0,46.0,33.015148038438355,26.5,26.0,26.0,13.0,20.0,6.0,7.0,8.06225774829855,8.06225774829855,8.0,21.0,19.0,19.026297590440446
70,70,13.0,45.0,7.0710678118654755,13.038404810405298,15.0,16.0,13.0,46.0,33.015148038438355,26.5,26.0,26.0,13.0,20.0,6.0,7.0,8.06225774829855,7.0,7.0,21.0,20.0,18.0
71,71,10.0,47.0,7.0,14.0,14.0,16.0,12.0,43.0,29.0,24.0,24.0,24.0,12.0,19.0,4.0,5.0,8.06225774829855,8.0,8.0,21.0,19.0,18.027756377319946
72,72,7.0,48.0,6.0,13.0,14.0,16.0,13.0,39.0,26.0,22.5,24.0,24.0,11.0,15.0,1.0,5.0,8.06225774829855,7.0710678118654755,7.5,21.0,18.0,17.029386365926403
73,73,7.0,49.0,6.0,12.0,16.0,16.0,13.0,38.0,26.0,22.5,23.0,23.0,10.0,15.0,2.0,4.0,8.06225774829855,8.0,8.0,21.0,18.0,16.0
74,74,5.0,49.0,7.0,13.0,15.0,16.0,12.041594578792296,37.013511046643494,24.020824298928627,21.5,21.0,21.0,9.0,16.0,2.0,3.0,7.0710678118654755,7.0,7.0,21.0,17.0,16.0
75,75,6.0,51.0098029794274,7.0,12.0,15.0,17.0,12.041594578792296,37.013511046643494,25.019992006393608,22.0,21.0,22.0,9.5,15.5,2.5,3.5,8.06225774829855,8.06225774829855,8.0,22.0,18.0,17.029386365926403
76,76,8.0,51.0098029794274,6.0,12.041594578792296,16.0,17.029386365926403,12.041594578792296,38.05259518088089,26.019223662515376,22.0,21.0,22.0,9.5,16.5,2.5,3.5,7.0710678118654755,7.0,7.5,23.0,17.0,18.0
77,77,5.0,50.00999900019995,7.0,13.0,15.033296378372908,16.0,12.041594578792296,37.013511046643494,24.020824298928627,21.5,21.0,22.0,9.5,15.5,1.5,2.5,8.06225774829855,8.0,8.0,23.0,17.0,17.11724276862369
78,78,6.0,50.039984012787215,7.0,12.041594578792296,15.0,17.0,12.041594578792296,37.05401462729781,25.019992006393608,22.0,20.0,22.0,9.0,16.0,3.0,3.0,8.06225774829855,8.0,8.0,24.0,18.0,16.0312195418814
79,79,6.0,50.039984012787215,7.0710678118654755,12.041594578792296,15.0,15.0,12.041594578792296,37.12142238654117,25.079872407968907,22.0,20.0,22.0,9.0,16.0,2.0,3.0,7.0710678118654755,7.0,7.0,24.0,18.0,16.1245154965971
80,80,8.06225774829855,50.00999900019995,6.0,12.0,15.0,17.0,12.041594578792296,38.05259518088089,26.076809620810597,22.0,20.0,21.0,8.5,17.5,4.5,3.5,6.082762530298219,6.0,6.0,24.0,17.0,16.0312195418814
81,81,7.0,51.0098029794274,6.0,12.041594578792296,16.0,17.029386365926403,12.041594578792296,37.05401462729781,25.019992006393608,21.5,20.0,21.0,8.5,16.5,3.5,3.5,4.123105625617661,4.123105625617661,4.0,26.0,18.0,15.033296378372908
82,82,7.0,52.08646657242167,6.082762530298219,11.045361017187261,15.0,16.0,13.038404810405298,37.12142238654117,26.076809620810597,22.5,19.0,22.0,7.5,16.5,4.5,2.5,4.123105625617661,4.123105625617661,4.0,25.0,17.0,15.033296378372908
83,83,6.0,51.03920062069938,7.0,11.045361017187261,15.0,16.0312195418814,12.165525060596439,36.124783736376884,25.079872407968907,22.0,19.0,21.0,8.0,16.0,4.0,2.0,5.0990195135927845,5.0990195135927845,4.5,26.0,17.0,17.11724276862369
84,84,5.0,51.088159097779204,7.0710678118654755,12.041594578792296,15.0,16.0,13.038404810405298,37.12142238654117,25.079872407968907,22.5,19.0,22.0,7.5,16.5,3.5,1.5,6.082762530298219,6.0,5.5,25.0,16.0,18.110770276274835
85,85,3.0,51.15662224971465,7.0,11.045361017187261,14.0,16.0312195418814,13.152946437965905,34.132096331752024,23.08679276123039,21.5,18.0,22.0,7.0,14.0,2.0,1.0,5.0990195135927845,5.0,5.5,25.0,15.0,18.110770276274835
86,86,2.0,50.24937810560445,7.0,9.219544457292887,14.035668847618199,14.035668847618199,14.142135623730951,32.2490309931942,23.08679276123039,22.0,17.0,22.0,5.5,12.5,1.5,0.5,7.0710678118654755,6.0,6.5,25.0,15.0,18.110770276274835
87,87,2.23606797749979,50.15974481593781,6.0,9.055385138137417,13.038404810405298,14.0,15.132745950421556,32.2490309931942,23.194827009486403,22.0,18.0,22.0,5.0,12.0,1.0,1.0,7.0710678118654755,6.082762530298219,6.0,25.0,14.0,18.110770276274835
88,88,1.0,50.24937810560445,7.0710678118654755,9.219544457292887,13.038404810405298,14.035668847618199,14.035668847618199,31.25699921617557,22.090722034374522,21.5,17.0,22.0,5.5,11.5,0.5,0.5,7.0710678118654755,7.0,7.0,26.0,15.0,17.11724276862369
89,89,1.4142135623730951,49.25444142409901,6.0,9.055385138137417,14.035668847618199,14.035668847618199,15.132745950421556,31.25699921617557,22.20360331117452,21.5,18.0,23.0,5.5,10.5,0.5,0.5,7.0710678118654755,7.0710678118654755,7.0,25.0,13.0,19.235384061671343
90,90,1.4142135623730951,49.36598018878993,6.0,8.06225774829855,13.038404810405298,14.035668847618199,15.132745950421556,30.265491900843113,22.20360331117452,21.5,17.0,23.0,5.0,10.0,0.0,0.0,7.0710678118654755,7.0710678118654755,6.5,26.0,14.0,17.11724276862369
91,91,1.4142135623730951,51.35172830587107,6.082762530298219,8.06225774829855,14.142135623730951,14.035668847618199,15.132745950421556,30.4138126514911,22.360679774997898,21.5,17.0,23.0,5.0,10.0,0.0,1.0,7.280109889280518,7.0710678118654755,7.0,25.0,13.0,16.1245154965971
92,92,1.0,50.48762224545735,6.082762530298219,9.219544457292887,13.038404810405298,14.142135623730951,14.142135623730951,30.4138126514911,21.213203435596427,20.5,16.0,23.0,5.5,10.5,0.5,0.5,7.280109889280518,7.0710678118654755,7.0,25.0,13.0,19.1049731745428
93,93,1.0,51.478150704935004,6.082762530298219,8.06225774829855,14.035668847618199,14.035668847618199,14.142135623730951,29.274562336608895,21.213203435596427,20.5,16.0,23.0,5.5,9.5,0.5,0.5,7.280109889280518,7.0710678118654755,7.0,26.0,14.0,18.110770276274835
94,94,1.4142135623730951,50.35871324805669,7.0,9.219544457292887,14.035668847618199,14.035668847618199,13.152946437965905,30.4138126514911,21.213203435596427,20.5,17.0,23.0,7.0,10.0,0.0,0.0,7.0710678118654755,7.0710678118654755,6.5,25.0,14.0,18.110770276274835
95,95,1.4142135623730951,50.35871324805669,7.0,9.055385138137417,13.038404810405298,14.035668847618199,14.142135623730951,31.25699921617557,22.20360331117452,21.5,18.0,24.0,7.0,10.0,1.0,0.0,8.246211251235321,7.0,7.0,25.0,13.0,17.11724276862369
96,96,2.23606797749979,50.35871324805669,6.0,9.055385138137417,14.035668847618199,14.035668847618199,14.142135623730951,31.25699921617557,22.20360331117452,21.0,17.0,23.0,6.0,11.0,0.0,0.0,7.280109889280518,7.0710678118654755,7.0,26.0,15.0,17.26267650163207
97,97,1.0,50.35871324805669,7.0,10.04987562112089,14.142135623730951,14.142135623730951,14.142135623730951,31.25699921617557,21.213203435596427,21.0,17.0,23.0,6.0,11.0,0.0,1.0,7.280109889280518,8.06225774829855,7.5,26.0,14.0,18.110770276274835
98,98,1.4142135623730951,50.24937810560445,7.0,9.055385138137417,14.035668847618199,14.035668847618199,14.142135623730951,31.25699921617557,22.20360331117452,21.5,18.0,23.0,6.5,10.5,0.5,0.5,8.06225774829855,7.0710678118654755,7.0,25.0,14.0,16.1245154965971
99,99,1.4142135623730951,50.24937810560445,7.0,10.04987562112089,13.038404810405298,14.035668847618199,13.038404810405298,31.144823004794873,21.095023109728988,20.5,17.0,22.0,6.5,11.5,0.5,0.5,8.246211251235321,8.0,7.5,25.0,14.0,16.1245154965971
100,100,1.0,51.24451190127583,7.0,10.04987562112089,14.035668847618199,14.0,13.038404810405298,31.064449134018133,21.02379604162864,20.5,17.0,22.0,6.5,11.5,0.5,0.5,7.0710678118654755,7.0,7.0,25.0,15.0,18.110770276274835
101,101,2.0,50.24937810560445,6.082762530298219,9.055385138137417,13.038404810405298,14.035668847618199,14.035668847618199,31.144823004794873,22.090722034374522,21.0,18.0,23.0,6.5,10.5,0.5,0.5,8.246211251235321,8.06225774829855,8.0,26.0,15.0,17.11724276862369
102,102,3.0,49.16299421312742,6.0,10.198039027185569,14.035668847618199,13.038404810405298,14.142135623730951,33.24154027718932,23.08679276123039,21.5,19.0,23.0,7.0,12.0,1.0,1.0,7.0710678118654755,8.0,7.5,25.0,15.0,17.11724276862369
103,103,3.1622776601683795,50.15974481593781,6.0,10.04987562112089,14.035668847618199,15.033296378372908,14.142135623730951,33.24154027718932,23.194827009486403,21.5,19.0,23.0,7.0,12.0,1.0,1.0,7.0710678118654755,8.06225774829855,8.0,25.0,15.0,15.132745950421556
104,104,4.0,48.25971404805462,6.082762530298219,9.219544457292887,14.035668847618199,14.035668847618199,14.035668847618199,33.24154027718932,24.08318915758459,22.0,19.0,24.0,7.5,11.5,0.5,1.5,8.06225774829855,7.0710678118654755,7.0,25.0,14.0,17.11724276862369
105,105,5.0,48.25971404805462,7.0710678118654755,9.055385138137417,13.038404810405298,15.033296378372908,12.041594578792296,33.13608305156178,24.08318915758459,21.5,19.0,24.0,9.5,11.5,0.5,2.5,7.280109889280518,7.0710678118654755,7.0,25.0,14.0,16.278820596099706
106,106,6.082762530298219,48.25971404805462,6.082762530298219,10.04987562112089,14.035668847618199,14.035668847618199,13.038404810405298,35.22782990761707,25.179356624028344,22.0,19.0,24.0,8.5,13.5,2.5,2.5,7.280109889280518,7.0710678118654755,7.5,24.0,13.0,16.278820596099706
107,107,7.0,48.373546489791295,6.082762530298219,10.198039027185569,14.142135623730951,14.142135623730951,12.041594578792296,35.22782990761707,25.079872407968907,21.5,18.0,24.0,9.0,14.0,2.0,2.0,8.246211251235321,8.06225774829855,7.5,25.0,13.0,16.1245154965971
108,108,6.082762530298219,49.25444142409901,6.0,10.04987562112089,14.142135623730951,14.035668847618199,13.038404810405298,35.12833614050059,25.079872407968907,22.0,19.0,24.0,8.5,13.5,2.5,2.5,7.280109889280518,7.0,7.0,25.0,13.0,16.278820596099706
109,109,6.082762530298219,48.25971404805462,6.082762530298219,10.04987562112089,13.038404810405298,14.035668847618199,12.041594578792296,34.23448553724738,24.186773244895647,21.0,19.0,24.0,9.5,12.5,1.5,3.5,7.280109889280518,8.06225774829855,8.0,25.0,13.0,15.297058540778355
110,110,7.0,49.25444142409901,6.082762530298219,9.219544457292887,14.035668847618199,15.033296378372908,13.038404810405298,35.22782990761707,26.076809620810597,22.5,19.0,24.0,8.5,13.5,2.5,2.5,8.246211251235321,8.06225774829855,7.5,25.0,13.0,14.317821063276353
111,111,7.0,47.265209192385896,6.082762530298219,9.055385138137417,13.038404810405298,14.035668847618199,12.041594578792296,34.132096331752024,25.079872407968907,21.5,19.0,24.0,9.5,12.5,1.5,3.5,7.0710678118654755,7.0710678118654755,7.0,25.0,14.0,14.142135623730951
112,112,6.0,48.25971404805462,6.082762530298219,10.04987562112089,13.038404810405298,13.038404810405298,12.041594578792296,34.132096331752024,24.08318915758459,21.0,19.0,24.0,9.5,12.5,1.5,3.5,7.280109889280518,7.0,7.0,25.0,15.0,14.035668847618199
113,113,5.0990195135927845,48.093658625644196,7.0,10.04987562112089,13.038404810405298,14.0,12.041594578792296,34.132096331752024,24.08318915758459,21.5,20.0,23.0,9.5,12.5,0.5,2.5,8.06225774829855,7.0,7.0,24.0,14.0,14.142135623730951
114,114,6.0,49.16299421312742,6.0,10.04987562112089,13.038404810405298,13.038404810405298,12.041594578792296,34.058772731852805,24.020824298928627,21.0,19.0,23.0,9.0,13.0,2.0,3.0,8.06225774829855,7.0710678118654755,7.0,24.0,15.0,15.132745950421556
115,115,6.0,49.16299421312742,6.0,10.04987562112089,13.038404810405298,13.038404810405298,12.041594578792296,34.058772731852805,24.020824298928627,21.0,19.0,23.0,9.0,13.0,2.0,3.0,8.06225774829855,7.0710678118654755,7.0,24.0,15.0,15.132745950421556
116,116,6.082762530298219,48.16637831516918,6.0,10.04987562112089,13.038404810405298,14.0,12.041594578792296,34.132096331752024,24.08318915758459,21.0,19.0,23.0,9.0,13.0,2.0,3.0,7.280109889280518,7.0710678118654755,7.0,23.0,14.0,14.142135623730951
117,117,6.0,48.093658625644196,6.0,9.055385138137417,13.0,14.035668847618199,12.0,33.015148038438355,24.0,21.0,20.0,23.0,9.5,11.5,1.5,3.5,8.246211251235321,7.0,7.0,23.0,15.0,15.132745950421556
118,118,6.0,49.040799340956916,6.082762530298219,9.0,13.0,15.0,12.0,33.015148038438355,24.020824298928627,21.0,20.0,22.0,9.0,12.0,2.0,3.0,8.06225774829855,7.0,7.0,22.0,15.0,15.132745950421556
119,119,5.0,48.041648597857254,6.0,10.04987562112089,13.038404810405298,14.0,13.0,34.0147027033899,24.0,21.5,21.0,23.0,9.0,12.0,2.0,3.0,7.0710678118654755,7.0,7.0,22.0,16.0,17.029386365926403
120,120,5.0,48.010415536631214,6.0,10.04987562112089,13.038404810405298,15.0,13.0,34.0147027033899,24.0,21.5,21.0,22.0,8.5,12.5,1.5,3.5,7.0710678118654755,6.0,6.5,22.0,17.0,17.029386365926403
121,121,6.0,49.01020301937138,6.0,9.0,13.0,14.0,12.0,33.0,24.0,21.0,22.0,21.0,9.5,11.5,1.5,3.5,7.0710678118654755,7.0,7.5,21.0,18.0,15.033296378372908
122,122,4.0,48.010415536631214,6.0,10.0,13.038404810405298,14.035668847618199,13.0,33.0,23.0,21.0,22.0,21.0,8.5,11.5,1.5,3.5,7.0,7.0710678118654755,7.5,21.0,19.0,17.0
123,123,4.0,48.010415536631214,7.0710678118654755,10.0,13.038404810405298,14.0,12.0,33.015148038438355,23.021728866442675,21.0,22.0,21.0,9.5,11.5,0.5,3.5,8.0,7.0,7.0,20.0,19.0,17.0
124,124,5.0,49.040799340956916,6.082762530298219,9.0,14.035668847618199,15.033296378372908,13.0,33.015148038438355,24.020824298928627,21.5,23.0,21.0,9.0,11.0,1.0,4.0,8.0,7.0,7.0,20.0,20.0,15.033296378372908
125,125,5.0990195135927845,48.093658625644196,6.0,9.0,13.038404810405298,15.033296378372908,13.0,33.015148038438355,24.020824298928627,21.5,23.0,20.0,8.5,11.5,1.5,3.5,7.0,7.0,7.0,19.0,20.0,15.0
126,126,5.0990195135927845,48.16637831516918,6.0,9.0,13.038404810405298,14.035668847618199,13.0,33.015148038438355,24.020824298928627,21.5,24.0,20.0,9.0,11.0,2.0,4.0,8.0,8.06225774829855,8.0,19.0,20.0,15.033296378372908
127,127,6.082762530298219,49.16299421312742,6.0,9.0,13.038404810405298,14.035668847618199,12.041594578792296,33.06055050963308,24.08318915758459,21.0,24.0,20.0,10.0,11.0,2.0,5.0,8.0,7.0710678118654755,7.0,19.0,21.0,16.0312195418814
128,128,6.082762530298219,48.16637831516918,6.0,9.0,14.035668847618199,14.035668847618199,12.041594578792296,33.06055050963308,24.08318915758459,21.0,24.0,20.0,10.0,11.0,2.0,5.0,8.0,7.0710678118654755,7.5,19.0,21.0,15.033296378372908
129,129,5.0,48.16637831516918,7.0710678118654755,9.055385138137417,14.035668847618199,14.035668847618199,12.0,33.06055050963308,24.020824298928627,21.5,24.0,20.0,10.0,11.0,2.0,4.0,8.0,7.0710678118654755,7.5,18.0,21.0,15.132745950421556
130,130,5.0990195135927845,48.16637831516918,7.0710678118654755,9.0,14.142135623730951,15.033296378372908,12.0,33.06055050963308,24.08318915758459,21.5,24.0,20.0,10.0,11.0,2.0,5.0,8.0,8.06225774829855,8.0,19.0,22.0,17.029386365926403
131,131,6.0,48.16637831516918,6.082762530298219,9.055385138137417,13.152946437965905,14.035668847618199,12.041594578792296,33.13608305156178,24.08318915758459,21.0,24.0,20.0,10.0,11.0,2.0,5.0,8.0,7.0710678118654755,7.0,18.0,21.0,16.1245154965971
132,132,5.0990195135927845,48.16637831516918,7.0,9.0,14.035668847618199,15.132745950421556,12.041594578792296,33.06055050963308,24.08318915758459,21.5,24.0,20.0,10.0,11.0,2.0,4.0,8.0,8.06225774829855,8.0,18.0,22.0,16.1245154965971
133,133,5.0990195135927845,49.16299421312742,7.0,9.055385138137417,14.035668847618199,15.033296378372908,12.041594578792296,33.13608305156178,24.08318915758459,21.5,24.0,20.0,10.0,11.0,2.0,4.0,8.0,8.06225774829855,8.0,18.0,22.0,16.1245154965971
134,134,5.0990195135927845,49.16299421312742,7.0,9.055385138137417,14.035668847618199,15.033296378372908,12.041594578792296,33.13608305156178,24.08318915758459,21.5,24.0,20.0,10.0,11.0,2.0,4.0,8.0,8.06225774829855,8.0,18.0,22.0,16.1245154965971
135,135,6.082762530298219,48.16637831516918,6.0,9.0,13.038404810405298,14.142135623730951,12.165525060596439,33.13608305156178,24.186773244895647,21.0,24.0,20.0,10.0,11.0,2.0,5.0,8.0,7.0710678118654755,7.0,18.0,22.0,17.11724276862369
136,136,6.0,48.16637831516918,6.082762530298219,9.055385138137417,14.035668847618199,14.142135623730951,12.041594578792296,33.13608305156178,24.08318915758459,21.0,24.0,20.0,10.0,11.0,2.0,5.0,8.0,7.0710678118654755,7.5,18.0,22.0,16.1245154965971
137,137,6.082762530298219,49.25444142409901,6.0,9.055385138137417,13.038404810405298,14.142135623730951,12.041594578792296,33.13608305156178,24.08318915758459,21.0,24.0,19.0,9.5,11.5,2.5,4.5,8.0,7.0710678118654755,7.0,18.0,21.0,16.278820596099706
138,138,6.0,49.16299421312742,6.082762530298219,9.055385138137417,14.035668847618199,15.132745950421556,12.041594578792296,33.13608305156178,24.08318915758459,21.0,24.0,20.0,10.0,11.0,2.0,5.0,8.0,8.06225774829855,8.0,18.0,22.0,16.1245154965971
139,139,6.0,49.16299421312742,6.082762530298219,9.055385138137417,14.035668847618199,14.142135623730951,13.038404810405298,34.132096331752024,25.079872407968907,22.0,25.0,21.0,10.0,11.0,2.0,5.0,8.06225774829855,8.06225774829855,7.5,19.0,22.0,16.1245154965971
140,140,6.0,49.16299421312742,6.082762530298219,9.055385138137417,14.035668847618199,14.142135623730951,13.038404810405298,34.132096331752024,25.079872407968907,22.0,25.0,21.0,10.0,11.0,2.0,5.0,7.0710678118654755,8.06225774829855,7.5,18.0,22.0,15.132745950421556
141,141,6.082762530298219,49.25444142409901,6.0,9.0,14.035668847618199,15.033296378372908,13.038404810405298,34.058772731852805,25.079872407968907,22.0,25.0,20.0,9.5,11.5,2.5,4.5,8.0,7.0710678118654755,7.5,18.0,22.0,16.0312195418814
142,142,6.0,49.25444142409901,6.082762530298219,9.055385138137417,14.035668847618199,14.142135623730951,13.038404810405298,34.132096331752024,25.079872407968907,22.0,25.0,20.0,9.5,11.5,2.5,4.5,8.06225774829855,8.0,7.5,18.0,22.0,16.0312195418814
143,143,11.0,50.15974481593781,6.082762530298219,10.0,14.035668847618199,15.132745950421556,12.041594578792296,39.05124837953327,29.068883707497267,23.5,26.0,22.0,12.0,15.0,5.0,7.0,7.0,7.0710678118654755,7.0,18.0,22.0,17.11724276862369
144,144,10.04987562112089,50.24937810560445,7.0,10.0,14.035668847618199,15.132745950421556,11.180339887498949,38.118237105091836,28.160255680657446,23.0,27.0,22.0,13.5,13.5,3.5,7.5,7.0710678118654755,7.0710678118654755,7.5,18.0,22.0,17.11724276862369
145,145,7.0,51.15662224971465,7.0710678118654755,9.055385138137417,14.142135623730951,15.033296378372908,13.038404810405298,36.124783736376884,27.073972741361768,23.5,26.0,22.0,11.0,12.0,2.0,5.0,8.0,7.0710678118654755,7.5,18.0,22.0,17.11724276862369
146,146,3.0,51.24451190127583,7.0710678118654755,9.055385138137417,14.142135623730951,14.142135623730951,13.038404810405298,32.14031735997639,23.08679276123039,21.5,25.0,20.0,9.5,9.5,0.5,3.5,7.0,7.0710678118654755,7.0,18.0,22.0,18.110770276274835
147,147,2.0,50.15974481593781,7.0710678118654755,9.055385138137417,13.038404810405298,14.035668847618199,13.038404810405298,31.144823004794873,22.090722034374522,21.0,24.0,20.0,9.0,9.0,0.0,3.0,7.0,7.0710678118654755,7.5,17.0,21.0,17.11724276862369
148,148,1.4142135623730951,50.15974481593781,7.0,10.0,13.038404810405298,14.142135623730951,14.035668847618199,32.0624390837628,22.090722034374522,21.5,24.0,20.0,8.0,10.0,0.0,2.0,7.0,7.0710678118654755,7.0,18.0,21.0,16.0312195418814
149,149,2.0,50.15974481593781,8.06225774829855,9.055385138137417,13.038404810405298,14.035668847618199,13.038404810405298,32.14031735997639,23.08679276123039,22.0,24.0,20.0,9.0,10.0,0.0,2.0,3.0,4.123105625617661,3.5,19.0,21.0,15.033296378372908
150,150,3.1622776601683795,51.15662224971465,7.0,11.0,13.152946437965905,15.033296378372908,14.142135623730951,35.12833614050059,24.186773244895647,22.5,25.0,21.0,9.0,12.0,1.0,3.0,3.0,3.0,3.5,19.0,21.0,15.033296378372908
151,151,6.0,50.039984012787215,8.06225774829855,11.0,15.033296378372908,15.033296378372908,12.041594578792296,37.05401462729781,26.076809620810597,23.0,24.0,22.0,11.0,14.0,2.0,4.0,4.0,3.1622776601683795,3.5,20.0,21.0,16.0312195418814
152,152,9.0,50.039984012787215,7.0,11.0,15.033296378372908,15.033296378372908,12.041594578792296,39.01281840626232,28.0178514522438,23.5,25.0,23.0,12.0,15.0,3.0,6.0,4.0,4.0,4.0,20.0,21.0,16.0312195418814
153,153,9.0,50.039984012787215,7.0,11.0,14.0,15.033296378372908,12.041594578792296,39.01281840626232,28.0178514522438,23.5,25.0,23.0,12.0,15.0,3.0,5.0,4.0,4.0,4.0,21.0,21.0,16.0312195418814
154,154,9.0,51.03920062069938,7.0710678118654755,12.0,15.033296378372908,16.0,11.0,39.01281840626232,27.018512172212592,22.5,24.0,22.0,12.0,16.0,3.0,5.0,4.0,5.0,5.0,20.0,20.0,17.029386365926403
155,155,9.055385138137417,50.00999900019995,7.0,11.0,15.033296378372908,16.0312195418814,12.0,39.01281840626232,28.0178514522438,23.5,24.0,23.0,11.5,15.5,3.5,5.5,5.0,5.0,4.5,21.0,20.0,18.0
156,156,8.0,51.03920062069938,7.0,11.0,15.033296378372908,16.0312195418814,12.0,38.0,27.0,23.0,25.0,23.0,12.0,14.0,2.0,6.0,6.082762530298219,5.0,5.5,21.0,20.0,17.0
157,157,8.06225774829855,51.0098029794274,7.0,11.045361017187261,15.033296378372908,15.033296378372908,11.0,37.0,26.019223662515376,22.0,23.0,22.0,11.5,14.5,3.5,5.5,7.0710678118654755,6.0,6.0,22.0,19.0,17.0
158,158,7.0,50.0,6.082762530298219,12.041594578792296,15.0,15.0,12.041594578792296,37.013511046643494,25.0,21.5,23.0,23.0,11.0,14.0,1.0,5.0,6.0,6.0,6.5,22.0,19.0,16.0
159,159,7.0710678118654755,49.040799340956916,6.082762530298219,10.04987562112089,15.033296378372908,16.0312195418814,12.0,35.014282800023196,25.0,21.5,21.0,23.0,10.0,13.0,2.0,4.0,6.0,6.0,6.0,22.0,18.0,16.0312195418814
160,160,7.0,48.093658625644196,7.0710678118654755,10.04987562112089,14.0,15.0,11.0,35.05709628591621,25.019992006393608,21.5,21.0,24.0,11.5,12.5,0.5,5.5,8.0,6.0,6.5,24.0,17.0,17.029386365926403
161,161,6.082762530298219,48.16637831516918,7.0,11.0,14.035668847618199,15.0,11.180339887498949,35.12833614050059,24.186773244895647,21.0,20.0,24.0,11.0,13.0,1.0,4.0,7.0710678118654755,7.0,7.0,24.0,15.0,17.11724276862369
162,162,6.0,46.52956049652737,7.0710678118654755,11.180339887498949,13.152946437965905,14.035668847618199,10.04987562112089,34.23448553724738,23.08679276123039,20.0,19.0,26.0,12.5,11.5,1.5,4.5,7.280109889280518,7.0,7.0,27.0,14.0,18.24828759089466
163,163,5.0990195135927845,45.70557952810576,7.0,11.180339887498949,13.152946437965905,14.142135623730951,11.180339887498949,34.36568055487916,23.194827009486403,20.5,18.0,26.0,11.0,12.0,1.0,3.0,8.246211251235321,7.0710678118654755,7.5,28.0,13.0,14.560219778561036
164,164,6.0,45.89117562233506,7.0710678118654755,11.180339887498949,14.142135623730951,15.132745950421556,11.40175425099138,35.510561809129406,24.331050121192877,21.0,19.0,28.0,12.5,11.5,0.5,4.5,7.0710678118654755,7.0710678118654755,7.0,28.0,12.0,17.26267650163207
165,165,7.0710678118654755,45.89117562233506,7.0710678118654755,11.180339887498949,13.152946437965905,14.142135623730951,10.198039027185569,35.510561809129406,24.331050121192877,20.5,18.0,27.0,12.5,12.5,0.5,4.5,7.280109889280518,8.246211251235321,8.0,28.0,11.0,15.524174696260024
166,166,8.06225774829855,46.87216658103186,7.0710678118654755,11.180339887498949,13.152946437965905,14.142135623730951,11.180339887498949,37.48332962798263,26.30589287593181,22.0,19.0,28.0,12.5,13.5,0.5,4.5,8.246211251235321,8.06225774829855,8.0,28.0,11.0,15.811388300841896
167,167,9.055385138137417,45.12205669071391,7.0710678118654755,11.180339887498949,13.341664064126334,14.142135623730951,10.198039027185569,37.48332962798263,26.30589287593181,21.5,18.0,28.0,13.0,14.0,1.0,5.0,7.280109889280518,7.0710678118654755,7.5,28.0,11.0,16.492422502470642
168,168,9.0,43.73785545725808,6.324555320336759,11.180339887498949,13.152946437965905,13.152946437965905,11.045361017187261,37.33630940518894,26.1725046566048,21.5,19.0,27.0,12.0,14.0,2.0,5.0,7.280109889280518,7.0710678118654755,7.0,29.0,11.0,17.72004514666935
169,169,3.1622776601683795,46.69047011971501,7.0710678118654755,10.04987562112089,12.041594578792296,13.152946437965905,13.152946437965905,33.37663853655727,23.345235059857504,21.5,18.0,26.0,9.0,11.0,0.0,2.0,8.246211251235321,8.246211251235321,7.5,28.0,11.0,16.492422502470642
170,170,3.1622776601683795,46.69047011971501,7.0710678118654755,9.219544457292887,12.041594578792296,13.038404810405298,14.142135623730951,33.54101966249684,24.331050121192877,22.5,18.0,26.0,8.0,11.0,0.0,1.0,7.280109889280518,7.0710678118654755,7.0,28.0,11.0,16.76305461424021
171,171,1.0,47.67598976424087,7.0710678118654755,10.198039027185569,12.165525060596439,13.152946437965905,15.132745950421556,33.37663853655727,23.194827009486403,22.5,19.0,27.0,8.0,10.0,2.0,1.0,7.615773105863909,7.0710678118654755,7.5,29.0,11.0,18.439088914585774
172,172,2.23606797749979,47.67598976424087,7.0710678118654755,10.198039027185569,12.165525060596439,13.152946437965905,14.142135623730951,33.54101966249684,23.345235059857504,22.0,18.0,26.0,8.0,11.0,0.0,1.0,7.280109889280518,7.0710678118654755,7.0,28.0,11.0,16.492422502470642
173,173,7.0710678118654755,48.662100242385755,6.082762530298219,10.198039027185569,14.142135623730951,15.132745950421556,15.132745950421556,38.47076812334269,28.284271247461902,24.5,19.0,27.0,8.0,15.0,3.0,1.0,7.280109889280518,7.280109889280518,7.5,29.0,11.0,17.46424919657298
174,174,8.06225774829855,50.80354318352215,8.06225774829855,13.152946437965905,15.132745950421556,16.1245154965971,13.152946437965905,42.42640687119285,29.274562336608895,25.0,20.0,29.0,11.5,17.5,2.5,2.5,8.246211251235321,8.06225774829855,8.0,28.0,11.0,17.72004514666935
175,175,7.0,51.78802950489621,8.246211251235321,13.341664064126334,15.132745950421556,16.1245154965971,13.152946437965905,41.593268686170845,28.284271247461902,24.5,19.0,28.0,10.5,17.5,2.5,1.5,8.246211251235321,7.0710678118654755,7.0,29.0,12.0,19.6468827043885
176,176,6.082762530298219,51.97114584074513,7.0710678118654755,12.165525060596439,15.132745950421556,16.278820596099706,13.341664064126334,38.63935817272331,26.476404589747453,23.0,19.0,29.0,11.0,14.0,0.0,3.0,7.280109889280518,7.0710678118654755,7.0,28.0,11.0,18.439088914585774
177,177,6.082762530298219,53.75872022286245,6.082762530298219,12.165525060596439,15.132745950421556,15.132745950421556,12.165525060596439,36.49657518178932,24.331050121192877,21.0,17.0,26.0,9.5,14.5,0.5,2.5,6.324555320336759,7.0710678118654755,7.0,28.0,11.0,17.46424919657298
178,178,7.0710678118654755,53.9351462406472,6.082762530298219,10.198039027185569,15.132745950421556,15.297058540778355,11.180339887498949,34.52535300326414,24.331050121192877,20.5,16.0,26.0,10.0,13.0,1.0,3.0,7.280109889280518,7.0710678118654755,7.0,28.0,11.0,18.681541692269406
179,179,5.0990195135927845,53.9351462406472,6.082762530298219,10.198039027185569,15.297058540778355,15.297058540778355,11.40175425099138,32.7566787083184,22.561028345356956,19.5,15.0,25.0,9.0,12.0,0.0,2.0,6.324555320336759,6.082762530298219,6.0,28.0,11.0,17.46424919657298
180,180,6.082762530298219,53.9351462406472,6.082762530298219,10.198039027185569,16.278820596099706,16.278820596099706,11.180339887498949,33.54101966249684,23.345235059857504,20.0,15.0,25.0,9.0,13.0,1.0,2.0,7.280109889280518,7.0710678118654755,7.0,28.0,11.0,17.46424919657298
181,181,9.055385138137417,51.78802950489621,7.0710678118654755,12.36931687685298,15.132745950421556,15.132745950421556,12.165525060596439,40.607881008493905,28.284271247461902,23.5,19.0,28.0,11.5,16.5,2.5,4.5,7.280109889280518,7.0710678118654755,7.0,28.0,11.0,18.439088914585774
182,182,12.165525060596439,49.8196748283246,8.06225774829855,12.165525060596439,15.297058540778355,16.1245154965971,11.180339887498949,43.56604182158393,31.400636936215164,25.0,20.0,29.0,13.5,18.5,3.5,4.5,7.280109889280518,7.0710678118654755,7.0,29.0,11.0,19.6468827043885
183,183,12.041594578792296,48.05205510693585,8.06225774829855,12.36931687685298,14.142135623730951,15.297058540778355,11.40175425099138,43.73785545725808,31.400636936215164,25.0,20.0,30.0,14.0,18.0,4.0,6.0,7.280109889280518,7.0710678118654755,7.5,29.0,11.0,18.681541692269406
184,184,14.035668847618199,45.12205669071391,7.0710678118654755,12.36931687685298,14.317821063276353,15.132745950421556,11.40175425099138,44.721359549995796,32.38826948140329,25.0,21.0,31.0,15.0,18.0,4.0,7.0,7.615773105863909,7.280109889280518,7.5,29.0,11.0,18.681541692269406
185,185,13.038404810405298,42.44997055358225,6.082762530298219,12.36931687685298,12.165525060596439,14.317821063276353,11.40175425099138,42.7551166528639,30.4138126514911,23.5,19.0,30.0,13.5,17.5,3.5,6.5,7.280109889280518,7.0710678118654755,7.0,29.0,10.0,17.72004514666935
186,186,11.045361017187261,42.20189569201838,6.082762530298219,10.44030650891055,12.36931687685298,13.341664064126334,12.36931687685298,39.81205847478876,29.427877939124322,23.5,19.0,29.0,12.0,15.0,3.0,5.0,7.615773105863909,7.280109889280518,7.0,29.0,10.0,16.76305461424021
187,187,9.055385138137417,43.68065933568311,7.0710678118654755,10.44030650891055,12.36931687685298,13.341664064126334,10.44030650891055,36.87817782917155,26.476404589747453,21.5,16.0,28.0,12.0,14.0,1.0,4.0,7.615773105863909,7.280109889280518,7.0,30.0,11.0,17.72004514666935
188,188,7.0710678118654755,42.720018726587654,7.0710678118654755,10.44030650891055,12.36931687685298,13.341664064126334,10.44030650891055,34.92849839314596,24.515301344262525,20.5,16.0,28.0,12.0,12.0,0.0,4.0,7.280109889280518,7.0710678118654755,7.0,30.0,10.0,19.6468827043885
189,189,6.082762530298219,43.68065933568311,7.0710678118654755,11.40175425099138,12.36931687685298,13.601470508735444,9.486832980505138,33.95585369269929,22.561028345356956,19.0,14.0,26.0,11.0,13.0,0.0,3.0,7.280109889280518,7.280109889280518,7.0,30.0,9.0,18.027756377319946
190,190,4.123105625617661,43.965895873961216,8.06225774829855,11.40175425099138,12.36931687685298,13.341664064126334,9.486832980505138,32.984845004941285,21.587033144922902,19.0,14.0,27.0,11.5,11.5,1.5,2.5,7.615773105863909,7.0710678118654755,7.5,30.0,10.0,18.681541692269406
191,191,4.123105625617661,43.41658669218482,8.06225774829855,11.40175425099138,12.36931687685298,13.341664064126334,9.486832980505138,32.984845004941285,21.587033144922902,19.0,15.0,26.0,11.5,11.5,1.5,2.5,7.280109889280518,7.280109889280518,7.0,29.0,10.0,17.46424919657298
192,192,4.123105625617661,44.64302857109943,8.246211251235321,11.180339887498949,13.341664064126334,14.317821063276353,9.219544457292887,32.7566787083184,21.587033144922902,19.0,14.0,26.0,11.0,12.0,1.0,2.0,6.324555320336759,7.280109889280518,7.0,30.0,9.0,17.46424919657298
193,193,4.123105625617661,45.35416188179427,7.0710678118654755,11.180339887498949,13.341664064126334,14.317821063276353,9.486832980505138,31.78049716414141,20.615528128088304,18.0,14.0,25.0,10.5,11.5,1.5,2.5,7.615773105863909,7.280109889280518,7.0,30.0,10.0,16.76305461424021
194,194,4.47213595499958,45.35416188179427,7.0710678118654755,11.180339887498949,13.152946437965905,14.317821063276353,9.219544457292887,31.78049716414141,20.615528128088304,18.0,14.0,25.0,10.5,11.5,1.5,2.5,7.280109889280518,7.0710678118654755,6.5,30.0,12.0,17.26267650163207
195,195,3.1622776601683795,45.89117562233506,7.0710678118654755,11.40175425099138,13.152946437965905,14.317821063276353,9.219544457292887,30.805843601498726,19.4164878389476,17.5,15.0,24.0,10.5,10.5,1.5,2.5,6.324555320336759,6.082762530298219,6.5,28.0,12.0,17.26267650163207
196,196,4.123105625617661,45.89117562233506,8.06225774829855,11.180339887498949,14.142135623730951,15.132745950421556,9.219544457292887,32.55764119219941,21.37755832643195,19.0,15.0,24.0,10.5,12.5,0.5,2.5,7.0710678118654755,6.082762530298219,6.0,27.0,11.0,17.26267650163207
197,197,4.123105625617661,46.69047011971501,7.0710678118654755,11.180339887498949,13.152946437965905,15.132745950421556,11.180339887498949,33.54101966249684,22.360679774997898,20.0,17.0,25.0,10.0,12.0,0.0,2.0,7.0710678118654755,7.0710678118654755,7.0,28.0,13.0,15.297058540778355
198,198,5.0990195135927845,49.64876634922564,7.0710678118654755,11.045361017187261,15.132745950421556,16.1245154965971,10.198039027185569,33.37663853655727,22.360679774997898,19.5,16.0,24.0,10.0,13.0,0.0,2.0,7.280109889280518,7.0710678118654755,7.0,27.0,13.0,16.492422502470642
199,199,4.0,48.373546489791295,7.0710678118654755,11.180339887498949,14.142135623730951,15.033296378372908,12.165525060596439,34.36568055487916,23.194827009486403,21.0,18.0,24.0,9.0,13.0,1.0,2.0,7.280109889280518,7.0710678118654755,7.0,27.0,13.0,17.26267650163207
200,200,5.0990195135927845,50.15974481593781,7.0,11.045361017187261,15.0,16.0,11.180339887498949,34.23448553724738,23.194827009486403,20.5,19.0,23.0,10.0,13.0,1.0,3.0,7.280109889280518,7.0710678118654755,7.5,27.0,15.0,17.11724276862369
201,201,5.0,50.15974481593781,7.0710678118654755,10.04987562112089,15.033296378372908,16.0312195418814,11.045361017187261,33.13608305156178,23.08679276123039,20.5,18.0,22.0,9.0,13.0,1.0,2.0,8.06225774829855,7.0,7.5,26.0,15.0,17.11724276862369
202,202,5.0990195135927845,50.039984012787215,7.0,11.045361017187261,14.035668847618199,15.033296378372908,11.045361017187261,34.132096331752024,23.08679276123039,20.5,19.0,21.0,9.0,14.0,2.0,2.0,7.0710678118654755,8.0,8.0,25.0,16.0,16.1245154965971
203,203,4.0,51.03920062069938,7.0,11.045361017187261,14.0,16.0,11.045361017187261,33.06055050963308,22.02271554554524,20.0,19.0,21.0,9.0,13.0,1.0,2.0,7.0710678118654755,7.0,7.0,25.0,17.0,16.1245154965971
204,204,3.0,50.00999900019995,7.0,10.04987562112089,15.0,15.0,12.041594578792296,32.0624390837628,22.02271554554524,20.5,19.0,20.0,7.5,12.5,1.5,1.5,8.06225774829855,7.0,7.0,23.0,17.0,16.1245154965971
205,205,4.0,51.0,7.0,11.0,15.0,16.0,12.041594578792296,34.0147027033899,23.021728866442675,21.0,21.0,21.0,9.0,13.0,1.0,3.0,8.06225774829855,8.0,7.5,22.0,18.0,16.0312195418814
206,206,4.0,50.0,7.0,11.0,15.033296378372908,16.0,12.041594578792296,34.0147027033899,23.021728866442675,21.0,21.0,21.0,9.0,13.0,1.0,3.0,8.06225774829855,8.06225774829855,7.5,22.0,17.0,15.0
207,207,4.0,50.00999900019995,7.0,11.0,14.0,16.0,11.0,33.0,22.0,20.0,20.0,19.0,8.5,13.5,2.5,1.5,7.0,8.0,7.5,22.0,18.0,15.033296378372908
208,208,5.0,50.00999900019995,7.0710678118654755,11.045361017187261,15.0,15.0,11.0,34.0,23.021728866442675,20.5,21.0,20.0,9.5,13.5,1.5,2.5,8.06225774829855,8.06225774829855,7.5,21.0,18.0,16.0
209,209,4.0,50.00999900019995,7.0710678118654755,11.0,15.033296378372908,15.033296378372908,12.041594578792296,34.0,23.0,21.0,21.0,20.0,8.5,13.5,2.5,2.5,8.06225774829855,7.0,7.5,21.0,19.0,16.0
210,210,4.123105625617661,50.00999900019995,7.0,11.045361017187261,15.033296378372908,15.033296378372908,12.041594578792296,34.0147027033899,23.0,21.0,21.0,20.0,8.5,13.5,2.5,2.5,8.06225774829855,7.0,7.5,21.0,19.0,16.0312195418814
211,211,4.0,50.039984012787215,7.0710678118654755,11.0,15.033296378372908,15.033296378372908,12.041594578792296,34.0,23.0,21.0,22.0,20.0,9.0,13.0,1.0,3.0,7.0710678118654755,7.0,7.5,21.0,19.0,16.0
212,212,4.0,50.00999900019995,7.0,11.0,14.035668847618199,16.0312195418814,12.0,34.0,23.0,21.0,21.0,20.0,8.5,13.5,1.5,2.5,7.0710678118654755,7.0710678118654755,7.5,21.0,19.0,16.0
213,213,4.123105625617661,50.039984012787215,7.0,11.0,15.033296378372908,15.033296378372908,12.0,34.0147027033899,23.021728866442675,21.0,22.0,20.0,9.0,13.0,2.0,3.0,8.0,7.0,7.5,21.0,19.0,15.0
214,214,4.0,50.00999900019995,7.0,11.0,15.033296378372908,15.033296378372908,12.0,34.0,23.0,21.0,21.0,20.0,8.5,13.5,2.5,2.5,7.0,7.0,7.0,21.0,19.0,15.0
215,215,4.0,49.040799340956916,7.0,11.0,15.033296378372908,15.033296378372908,12.041594578792296,34.0147027033899,23.021728866442675,21.0,22.0,20.0,9.0,13.0,2.0,3.0,7.0,7.0,7.5,21.0,19.0,16.0
216,216,4.0,50.039984012787215,7.0,11.0,14.035668847618199,16.0312195418814,12.0,34.0,23.0,21.0,22.0,20.0,9.0,13.0,2.0,3.0,7.0,7.0,7.0,20.0,19.0,16.0
217,217,4.0,51.03920062069938,7.0,12.0,14.035668847618199,16.0312195418814,12.0,35.0,23.0,21.0,22.0,20.0,9.0,14.0,2.0,3.0,7.0,7.0710678118654755,7.5,20.0,18.0,16.0
218,218,4.0,50.039984012787215,7.0,12.0,14.035668847618199,16.0312195418814,12.0,35.0,23.0,21.0,22.0,20.0,9.0,14.0,2.0,3.0,7.0,7.0,7.5,21.0,19.0,16.0
219,219,4.123105625617661,50.039984012787215,7.0,11.0,14.035668847618199,15.033296378372908,12.0,34.0147027033899,23.021728866442675,21.0,22.0,20.0,9.0,13.0,2.0,3.0,8.06225774829855,7.0,7.0,21.0,19.0,15.0
220,220,4.0,50.039984012787215,7.0,11.0,15.033296378372908,15.033296378372908,12.0,34.0,23.0,21.0,22.0,20.0,9.0,13.0,2.0,3.0,7.0,7.0,7.5,22.0,20.0,15.0
221,221,4.123105625617661,50.00999900019995,7.0,11.0,15.033296378372908,15.033296378372908,12.0,34.0147027033899,23.021728866442675,21.0,21.0,20.0,8.5,13.5,1.5,2.5,7.0,7.0,7.0,21.0,19.0,15.0
222,222,4.123105625617661,50.00999900019995,7.0,11.0,15.033296378372908,15.033296378372908,12.0,34.0147027033899,23.021728866442675,21.0,21.0,20.0,8.5,13.5,1.5,2.5,8.0,7.0,7.5,21.0,19.0,15.0
223,223,3.0,51.0098029794274,7.0710678118654755,11.0,15.0,16.0,12.0,33.015148038438355,22.02271554554524,20.5,21.0,20.0,8.5,12.5,0.5,1.5,7.0710678118654755,6.0,6.5,21.0,19.0,15.0
224,224,2.23606797749979,52.009614495783374,8.0,11.0,15.033296378372908,15.033296378372908,11.0,32.01562118716424,21.02379604162864,20.0,20.0,19.0,8.5,12.5,1.5,1.5,4.0,5.0,4.5,21.0,19.0,16.0
225,225,2.0,52.0,8.0,10.0,15.0,16.0312195418814,11.0,31.0,21.0,20.0,19.0,19.0,8.0,12.0,1.0,1.0,3.0,3.1622776601683795,3.5,21.0,19.0,16.0
226,226,2.0,51.0098029794274,7.0,11.045361017187261,14.035668847618199,15.0,11.045361017187261,31.064449134018133,20.024984394500787,19.0,19.0,18.0,7.5,12.5,1.5,1.5,4.0,5.0,4.5,22.0,20.0,17.0
227,227,1.0,52.009614495783374,8.0,10.04987562112089,16.0,17.029386365926403,11.045361017187261,30.066592756745816,20.024984394500787,19.5,19.0,18.0,7.5,11.5,0.5,0.5,5.0990195135927845,5.0,5.0,20.0,19.0,15.033296378372908
228,228,1.0,52.009614495783374,7.0,11.0,15.033296378372908,15.0,12.041594578792296,31.016124838541646,20.024984394500787,19.5,20.0,19.0,7.5,11.5,0.5,1.5,6.082762530298219,6.0,5.5,20.0,18.0,17.0
229,229,2.23606797749979,52.009614495783374,7.0,10.0,15.033296378372908,15.033296378372908,12.0,31.016124838541646,21.02379604162864,20.0,20.0,19.0,7.5,11.5,0.5,1.5,5.0,6.0,5.5,20.0,19.0,17.0
230,230,2.0,52.009614495783374,7.0,10.04987562112089,15.033296378372908,15.0,12.041594578792296,31.064449134018133,21.02379604162864,20.0,20.0,19.0,7.5,11.5,0.5,1.5,6.0,5.0990195135927845,5.5,20.0,19.0,15.0
231,231,1.4142135623730951,51.03920062069938,7.0,11.0,14.035668847618199,15.033296378372908,12.041594578792296,31.064449134018133,20.09975124224178,19.5,20.0,18.0,7.0,12.0,1.0,1.0,7.0,6.082762530298219,6.5,20.0,19.0,17.029386365926403
232,232,1.4142135623730951,50.039984012787215,7.0,11.0,15.033296378372908,15.0,12.041594578792296,31.064449134018133,20.09975124224178,19.5,20.0,18.0,7.0,12.0,1.0,1.0,7.0710678118654755,7.0710678118654755,6.5,20.0,19.0,16.0
233,233,2.23606797749979,52.03844732503075,7.0,10.0,15.033296378372908,15.033296378372908,13.0,32.01562118716424,22.02271554554524,21.0,21.0,19.0,7.0,12.0,1.0,1.0,7.0710678118654755,6.0,6.0,20.0,19.0,15.0
234,234,5.0,52.03844732503075,7.0,11.0,16.0312195418814,16.0312195418814,13.0,36.0,25.0,22.5,22.0,20.0,8.0,15.0,3.0,2.0,7.0710678118654755,7.0710678118654755,7.0,20.0,19.0,16.0
235,235,12.0,52.03844732503075,8.0,12.0,17.029386365926403,17.0,12.041594578792296,44.01136216933077,32.01562118716424,26.0,24.0,22.0,11.0,21.0,8.0,4.0,7.0710678118654755,7.0,7.0,21.0,20.0,17.0
236,236,15.0,54.037024344425184,8.0,13.0,16.0312195418814,18.027756377319946,11.0,47.0,34.0,26.5,24.0,22.0,12.0,24.0,10.0,5.0,7.0,7.0,7.0,20.0,19.0,17.0
237,237,16.0,55.00909015790027,7.0,13.0,16.0,18.027756377319946,11.045361017187261,47.01063709417264,34.0147027033899,26.0,24.0,23.0,12.5,23.5,9.5,6.5,7.0,6.082762530298219,6.5,19.0,18.0,16.0
238,238,15.0,56.08029957123981,5.0990195135927845,10.0,16.0312195418814,18.027756377319946,11.0,41.012193308819754,31.016124838541646,23.5,23.0,20.0,10.5,19.5,8.5,6.5,7.0,6.0,6.0,19.0,18.0,16.0312195418814
239,239,15.033296378372908,55.08175741568164,6.0,10.0,16.0312195418814,18.027756377319946,10.04987562112089,41.048751503547585,31.064449134018133,23.5,23.0,20.0,11.5,19.5,8.5,6.5,7.0,6.082762530298219,6.0,18.0,19.0,17.0
240,240,15.033296378372908,55.14526271584895,6.0,11.0,16.0312195418814,18.027756377319946,10.04987562112089,42.04759208325728,31.064449134018133,23.5,24.0,20.0,12.0,20.0,8.0,7.0,7.0,6.082762530298219,6.0,19.0,19.0,17.0
241,241,15.0,53.03772242470448,7.0710678118654755,12.0,16.0312195418814,18.027756377319946,9.0,43.01162633521314,31.016124838541646,23.5,24.0,22.0,14.0,20.0,7.0,8.0,6.0,7.0710678118654755,7.0,19.0,19.0,16.0
242,242,12.041594578792296,51.03920062069938,6.0,11.0,16.0,17.029386365926403,12.041594578792296,41.048751503547585,30.066592756745816,24.0,25.0,23.0,12.0,17.0,5.0,6.0,6.0,6.082762530298219,6.5,18.0,20.0,16.0312195418814
243,243,5.0,52.03844732503075,7.0,11.0,14.035668847618199,15.0,13.0,36.0,25.0,22.5,23.0,21.0,9.0,14.0,3.0,3.0,7.0,6.082762530298219,6.0,18.0,21.0,16.1245154965971
244,244,3.0,48.093658625644196,7.0710678118654755,10.0,13.038404810405298,14.035668847618199,13.0,33.015148038438355,23.021728866442675,21.5,24.0,21.0,9.5,10.5,0.5,3.5,7.0,6.0,6.0,18.0,21.0,17.029386365926403
245,245,4.123105625617661,50.039984012787215,7.0,10.0,15.033296378372908,15.033296378372908,13.038404810405298,34.058772731852805,24.08318915758459,22.0,23.0,21.0,9.0,12.0,1.0,3.0,6.0,7.0,7.0,17.0,20.0,14.035668847618199
246,246,6.0,51.088159097779204,7.0710678118654755,11.0,15.033296378372908,16.0312195418814,12.0,36.013886210738214,25.019992006393608,22.0,23.0,20.0,9.5,14.5,3.5,3.5,7.0,7.0710678118654755,7.0,17.0,20.0,15.033296378372908
247,247,8.0,52.08646657242167,7.0,12.041594578792296,15.033296378372908,17.029386365926403,12.041594578792296,39.05124837953327,27.018512172212592,23.0,24.0,21.0,10.5,16.5,3.5,4.5,6.082762530298219,7.0710678118654755,7.0,17.0,20.0,16.0312195418814
248,248,8.0,52.08646657242167,7.0,12.041594578792296,15.033296378372908,17.029386365926403,12.041594578792296,39.05124837953327,27.018512172212592,23.0,24.0,21.0,10.5,16.5,3.5,4.5,6.082762530298219,7.0710678118654755,7.0,17.0,20.0,16.0312195418814
249,249,9.0,52.03844732503075,7.0710678118654755,12.0,16.0312195418814,17.0,11.0,39.01281840626232,27.018512172212592,22.5,24.0,22.0,12.0,16.0,3.0,6.0,7.0,7.0710678118654755,7.0,17.0,20.0,16.0312195418814
250,250,11.0,54.037024344425184,6.0,11.0,17.029386365926403,17.029386365926403,11.045361017187261,39.01281840626232,28.0178514522438,22.5,23.0,21.0,11.0,17.0,5.0,6.0,6.0,6.082762530298219,6.0,17.0,20.0,16.1245154965971
251,251,11.0,53.03772242470448,6.082762530298219,11.0,16.0,17.029386365926403,10.0,38.01315561749642,27.018512172212592,21.5,22.0,20.0,11.0,17.0,5.0,5.0,7.0,7.0710678118654755,7.0,18.0,21.0,15.033296378372908
252,252,10.04987562112089,54.037024344425184,7.0,11.0,17.0,18.027756377319946,10.0,38.01315561749642,27.018512172212592,22.0,22.0,20.0,11.0,17.0,5.0,5.0,6.0,7.0710678118654755,7.0,18.0,20.0,15.033296378372908
253,253,11.0,53.009433122794285,6.0,11.0,16.0,17.029386365926403,10.0,38.0,27.0,21.5,21.0,20.0,10.5,17.5,5.5,4.5,7.0,7.0710678118654755,7.0,18.0,20.0,16.0312195418814
254,254,10.0,54.00925846556311,6.0,11.0,17.0,17.029386365926403,11.0,38.0,27.0,22.0,22.0,21.0,10.5,16.5,4.5,5.5,6.082762530298219,6.082762530298219,6.5,17.0,19.0,15.0
255,255,10.0,53.0,6.0,10.0,16.0,17.029386365926403,10.0,36.0,26.0,21.0,20.0,20.0,10.0,16.0,4.0,5.0,7.0,6.082762530298219,6.0,19.0,20.0,14.035668847618199
256,256,10.0,54.0,6.0,11.0,17.0,18.0,10.0,37.0,26.0,21.0,21.0,21.0,11.0,16.0,4.0,5.0,7.0,7.0710678118654755,7.0,18.0,18.0,15.0
257,257,9.0,54.0,6.0,11.0,17.0,17.0,10.0,36.0,25.0,20.5,20.0,20.0,10.0,16.0,4.0,4.0,7.0710678118654755,6.0,6.0,20.0,19.0,17.0
258,258,9.0,53.0,6.0,10.0,16.0,18.0,10.0,35.0,25.0,20.5,20.0,20.0,10.0,15.0,4.0,4.0,6.0,6.082762530298219,6.5,20.0,18.0,16.0312195418814
259,259,9.0,54.00925846556311,6.082762530298219,10.04987562112089,17.0,17.0,10.04987562112089,35.014282800023196,25.0,20.5,19.0,20.0,9.5,15.5,3.5,4.5,6.082762530298219,6.0,6.5,20.0,18.0,16.0312195418814
260,260,8.06225774829855,54.00925846556311,6.0,11.0,17.0,18.0,10.0,35.014282800023196,24.020824298928627,20.0,19.0,20.0,9.5,15.5,3.5,3.5,6.082762530298219,6.0,6.0,20.0,17.0,17.029386365926403
261,261,7.0710678118654755,54.00925846556311,6.0,11.0,16.0,17.0,11.045361017187261,35.05709628591621,24.08318915758459,20.5,19.0,20.0,8.5,15.5,3.5,3.5,6.082762530298219,6.0,6.5,21.0,18.0,17.029386365926403
262,262,8.0,53.03772242470448,6.0,10.04987562112089,16.0,17.0,11.0,35.014282800023196,25.0,21.0,19.0,21.0,9.0,15.0,3.0,4.0,6.082762530298219,6.0,6.0,21.0,16.0,17.029386365926403
263,263,8.0,53.009433122794285,6.0,10.04987562112089,16.0,17.0,11.0,35.014282800023196,25.0,21.0,20.0,21.0,9.5,14.5,2.5,4.5,7.0710678118654755,7.0,6.5,22.0,16.0,18.027756377319946
264,264,7.0710678118654755,54.08326913195984,7.0,10.0,16.0,17.0,11.0,35.014282800023196,25.019992006393608,21.5,19.0,22.0,9.5,14.5,2.5,3.5,7.0710678118654755,7.0,7.0,22.0,16.0,17.0
265,265,7.0,53.08483775994799,7.0,11.045361017187261,16.0312195418814,17.029386365926403,10.04987562112089,35.05709628591621,24.020824298928627,20.5,19.0,22.0,10.5,14.5,2.5,3.5,6.082762530298219,6.0,6.0,22.0,15.0,17.029386365926403
266,266,7.0,52.08646657242167,6.082762530298219,11.045361017187261,16.0312195418814,17.029386365926403,11.045361017187261,35.12833614050059,24.08318915758459,20.5,19.0,22.0,9.5,14.5,2.5,3.5,6.082762530298219,7.0,6.5,21.0,15.0,17.029386365926403
267,267,7.0,52.08646657242167,6.082762530298219,11.045361017187261,16.0312195418814,17.029386365926403,11.045361017187261,35.12833614050059,24.08318915758459,20.5,19.0,22.0,9.5,14.5,2.5,3.5,6.082762530298219,7.0,6.5,21.0,15.0,17.029386365926403
268,268,7.0,53.150729063673246,7.0,10.04987562112089,16.0312195418814,17.029386365926403,11.045361017187261,35.05709628591621,25.019992006393608,21.5,18.0,22.0,9.0,15.0,3.0,2.0,7.0710678118654755,7.0710678118654755,6.5,22.0,16.0,18.027756377319946
269,269,7.0710678118654755,52.08646657242167,6.0,10.0,16.0312195418814,17.029386365926403,11.045361017187261,34.058772731852805,24.08318915758459,20.5,18.0,21.0,8.5,14.5,2.5,2.5,7.0710678118654755,7.0,7.0,23.0,15.0,18.027756377319946
270,270,7.0,53.150729063673246,6.0,10.04987562112089,16.0312195418814,16.0312195418814,12.165525060596439,35.12833614050059,25.079872407968907,21.5,19.0,23.0,9.0,14.0,3.0,3.0,7.0710678118654755,7.0,7.0,22.0,15.0,17.029386365926403
271,271,7.0,52.15361924162119,6.0,10.04987562112089,15.033296378372908,16.0312195418814,11.180339887498949,34.132096331752024,24.08318915758459,20.5,18.0,22.0,9.0,14.0,2.0,3.0,7.0710678118654755,7.0,7.0,23.0,15.0,17.029386365926403
272,272,7.0,53.08483775994799,6.0,10.04987562112089,15.0,16.0312195418814,12.165525060596439,35.12833614050059,25.079872407968907,21.5,19.0,22.0,8.5,14.5,2.5,2.5,7.0710678118654755,7.0,7.0,24.0,16.0,18.027756377319946
273,273,7.0,52.08646657242167,6.082762530298219,10.04987562112089,15.033296378372908,17.029386365926403,11.045361017187261,34.132096331752024,24.08318915758459,20.5,18.0,21.0,8.5,14.5,2.5,2.5,7.0710678118654755,7.0,7.0,23.0,16.0,18.110770276274835
274,274,7.0,53.08483775994799,6.0,10.04987562112089,15.033296378372908,16.0312195418814,11.045361017187261,34.058772731852805,24.020824298928627,20.5,18.0,21.0,8.5,14.5,2.5,2.5,6.082762530298219,6.0,6.0,23.0,15.0,17.029386365926403
275,275,7.0,52.08646657242167,6.082762530298219,10.04987562112089,15.033296378372908,17.029386365926403,12.041594578792296,35.12833614050059,25.079872407968907,21.5,19.0,22.0,8.5,14.5,2.5,2.5,6.082762530298219,6.0,6.0,23.0,16.0,17.029386365926403
276,276,7.0,53.08483775994799,6.0,10.04987562112089,16.0312195418814,16.0312195418814,12.041594578792296,35.05709628591621,25.019992006393608,21.5,19.0,22.0,8.5,14.5,2.5,2.5,7.0710678118654755,6.0,6.0,23.0,15.0,17.029386365926403
277,277,7.0,53.08483775994799,6.0,10.04987562112089,16.0312195418814,16.0,12.041594578792296,35.05709628591621,25.019992006393608,21.5,19.0,22.0,8.5,14.5,2.5,2.5,7.0710678118654755,7.0,6.5,24.0,16.0,18.027756377319946
278,278,7.0,53.08483775994799,6.082762530298219,10.04987562112089,16.0312195418814,17.029386365926403,12.041594578792296,35.12833614050059,25.079872407968907,21.5,19.0,22.0,8.5,14.5,2.5,2.5,7.0710678118654755,7.0,7.0,23.0,16.0,16.0312195418814
279,279,7.0,52.08646657242167,6.0,10.04987562112089,15.033296378372908,17.029386365926403,12.165525060596439,35.12833614050059,25.079872407968907,21.5,19.0,22.0,8.5,14.5,2.5,2.5,7.0710678118654755,7.0,7.0,23.0,16.0,17.11724276862369
280,280,6.0,52.08646657242167,7.0710678118654755,11.045361017187261,15.033296378372908,17.029386365926403,11.045361017187261,35.12833614050059,24.08318915758459,21.0,19.0,22.0,9.5,14.5,2.5,2.5,7.0710678118654755,7.0,7.0,23.0,16.0,17.11724276862369
281,281,6.0,53.08483775994799,7.0710678118654755,11.045361017187261,15.033296378372908,17.0,11.045361017187261,35.12833614050059,24.08318915758459,21.0,19.0,22.0,9.5,14.5,2.5,2.5,7.0710678118654755,7.0,7.0,24.0,16.0,17.029386365926403
282,282,4.0,52.08646657242167,7.0,12.041594578792296,15.033296378372908,16.0312195418814,12.165525060596439,35.12833614050059,23.08679276123039,21.0,19.0,22.0,8.5,14.5,1.5,1.5,7.0710678118654755,7.0,7.0,24.0,16.0,18.110770276274835
283,283,2.0,50.08991914547278,7.0,10.04987562112089,14.035668847618199,16.0312195418814,13.152946437965905,32.14031735997639,22.090722034374522,21.0,19.0,22.0,7.5,11.5,0.5,0.5,7.0710678118654755,7.0,7.0,23.0,15.0,16.0312195418814
284,284,2.0,51.088159097779204,7.0,10.04987562112089,15.033296378372908,15.033296378372908,13.152946437965905,32.14031735997639,22.090722034374522,21.0,19.0,22.0,7.5,11.5,0.5,0.5,7.0710678118654755,7.0,6.5,22.0,15.0,18.027756377319946
285,285,3.0,51.088159097779204,7.0,12.041594578792296,14.0,16.0312195418814,14.035668847618199,36.05551275463989,24.020824298928627,22.5,20.0,23.0,7.5,14.5,1.5,1.5,7.0710678118654755,8.0,7.5,23.0,16.0,17.0
286,286,4.0,51.088159097779204,8.0,11.045361017187261,14.0,16.0,13.038404810405298,36.05551275463989,25.019992006393608,23.0,20.0,23.0,8.5,14.5,1.5,1.5,7.0710678118654755,7.0,7.0,23.0,17.0,17.029386365926403
287,287,7.0,51.03920062069938,7.0,12.041594578792296,15.0,16.0312195418814,14.035668847618199,40.049968789001575,28.0178514522438,24.5,22.0,24.0,9.0,17.0,4.0,2.0,7.0710678118654755,8.0,7.5,23.0,16.0,19.026297590440446
288,288,8.0,52.03844732503075,8.0,13.038404810405298,15.0,16.0312195418814,12.165525060596439,41.10960958218893,28.071337695236398,24.0,22.0,24.0,11.0,18.0,4.0,3.0,7.0710678118654755,7.0,6.5,22.0,16.0,17.029386365926403
289,289,9.0,51.03920062069938,7.0710678118654755,13.038404810405298,15.033296378372908,17.029386365926403,12.041594578792296,41.10960958218893,28.071337695236398,23.5,22.0,24.0,11.0,18.0,3.0,4.0,7.0710678118654755,7.0,7.0,24.0,17.0,18.110770276274835
290,290,8.06225774829855,51.03920062069938,6.0,12.041594578792296,15.0,17.029386365926403,11.045361017187261,37.12142238654117,25.079872407968907,21.0,21.0,23.0,11.0,15.0,2.0,5.0,7.0710678118654755,7.0,7.0,23.0,17.0,17.029386365926403
291,291,7.0710678118654755,51.088159097779204,7.0,11.0,16.0312195418814,16.0312195418814,11.045361017187261,36.05551275463989,25.079872407968907,21.5,20.0,23.0,10.5,14.5,1.5,3.5,6.082762530298219,7.0,7.0,22.0,16.0,17.029386365926403
292,292,8.0,51.03920062069938,7.0710678118654755,11.045361017187261,15.033296378372908,17.029386365926403,10.0,36.05551275463989,25.019992006393608,21.0,20.0,22.0,11.0,15.0,3.0,4.0,8.06225774829855,7.0,7.0,23.0,17.0,16.0312195418814
293,293,7.0,51.03920062069938,6.082762530298219,11.045361017187261,15.033296378372908,17.0,11.0,35.05709628591621,24.020824298928627,20.5,20.0,22.0,10.0,14.0,2.0,4.0,7.0710678118654755,7.0710678118654755,6.5,22.0,17.0,17.029386365926403
294,294,6.0,48.041648597857254,6.0,11.045361017187261,14.0,16.0,11.045361017187261,34.058772731852805,23.021728866442675,20.0,20.0,22.0,10.0,13.0,1.0,5.0,6.082762530298219,7.0,6.5,22.0,17.0,16.0312195418814
295,295,6.0,46.09772228646444,7.0,11.045361017187261,14.0,14.0,10.04987562112089,34.058772731852805,23.021728866442675,20.0,20.0,23.0,11.5,12.5,0.5,4.5,7.0710678118654755,7.0,7.5,22.0,17.0,17.029386365926403
296,296,6.0,45.044422518220834,7.0,12.041594578792296,14.0,15.033296378372908,11.045361017187261,36.05551275463989,24.020824298928627,21.0,21.0,23.0,11.0,14.0,1.0,4.0,8.06225774829855,7.0,7.5,23.0,18.0,18.027756377319946
297,297,6.0,45.044422518220834,7.0,11.045361017187261,14.035668847618199,16.0312195418814,11.045361017187261,35.05709628591621,24.020824298928627,21.0,21.0,23.0,11.0,13.0,1.0,4.0,7.0710678118654755,7.0,7.0,22.0,17.0,17.029386365926403
298,298,6.0,46.04345773288535,7.0,11.045361017187261,14.035668847618199,15.033296378372908,10.04987562112089,34.058772731852805,23.021728866442675,20.0,20.0,22.0,11.0,13.0,1.0,4.0,8.06225774829855,7.0,7.5,23.0,17.0,16.0312195418814
299,299,6.0,47.042533945356304,7.0,11.045361017187261,14.0,16.0,10.04987562112089,34.058772731852805,23.021728866442675,20.0,19.0,21.0,10.0,14.0,1.0,4.0,7.0710678118654755,7.0,7.0,22.0,16.0,17.11724276862369
300,300,6.0,50.08991914547278,6.0,11.045361017187261,14.035668847618199,16.0312195418814,11.180339887498949,34.132096331752024,23.08679276123039,20.0,19.0,22.0,9.5,13.5,1.5,3.5,7.0,7.0,7.5,23.0,16.0,15.033296378372908
301,301,5.0,50.08991914547278,7.0710678118654755,12.041594578792296,15.033296378372908,16.0,11.045361017187261,35.12833614050059,23.08679276123039,20.5,19.0,22.0,9.5,14.5,1.5,2.5,7.0710678118654755,7.0710678118654755,7.0,22.0,15.0,15.132745950421556
302,302,6.082762530298219,50.08991914547278,7.0,12.041594578792296,15.0,16.0312195418814,11.180339887498949,36.22154055254967,24.186773244895647,21.0,19.0,22.0,9.5,15.5,2.5,3.5,7.0710678118654755,7.0,7.0,24.0,16.0,18.110770276274835
303,303,6.082762530298219,50.08991914547278,7.0,12.041594578792296,15.033296378372908,16.0312195418814,10.04987562112089,35.12833614050059,23.08679276123039,20.0,19.0,22.0,10.5,14.5,0.5,3.5,7.0710678118654755,7.0,7.0,23.0,16.0,16.1245154965971
304,304,7.0710678118654755,51.15662224971465,6.082762530298219,12.041594578792296,15.033296378372908,17.029386365926403,11.045361017187261,36.22154055254967,24.186773244895647,20.5,19.0,23.0,10.0,15.0,1.0,4.0,7.0710678118654755,6.0,6.5,23.0,15.0,17.26267650163207
305,305,7.0710678118654755,51.15662224971465,6.082762530298219,12.041594578792296,15.033296378372908,17.029386365926403,11.045361017187261,36.22154055254967,24.186773244895647,20.5,19.0,23.0,10.0,15.0,1.0,4.0,7.0710678118654755,6.0,6.5,23.0,15.0,17.26267650163207
306,306,7.0,50.08991914547278,6.082762530298219,11.180339887498949,15.033296378372908,17.029386365926403,12.041594578792296,36.22154055254967,25.079872407968907,21.5,19.0,22.0,8.5,15.5,2.5,2.5,7.0710678118654755,6.082762530298219,6.5,22.0,14.0,16.278820596099706
307,307,10.04987562112089,53.150729063673246,7.0,11.045361017187261,16.0,17.029386365926403,11.180339887498949,39.20459156782532,28.160255680657446,23.0,19.0,23.0,10.0,18.0,5.0,4.0,7.0710678118654755,7.0,7.0,23.0,15.0,17.26267650163207
308,308,9.0,53.150729063673246,6.082762530298219,11.045361017187261,15.033296378372908,16.0312195418814,12.041594578792296,38.118237105091836,27.073972741361768,22.5,19.0,23.0,9.0,17.0,4.0,3.0,7.0710678118654755,7.0,7.0,23.0,14.0,18.24828759089466
309,309,6.082762530298219,52.08646657242167,6.0,12.041594578792296,15.0,17.029386365926403,11.045361017187261,35.12833614050059,23.08679276123039,20.0,18.0,21.0,8.5,15.5,2.5,2.5,7.0710678118654755,7.0,7.0,23.0,16.0,16.0312195418814
310,310,5.0,52.08646657242167,6.082762530298219,12.041594578792296,15.033296378372908,16.0312195418814,12.041594578792296,35.12833614050059,23.08679276123039,20.5,18.0,21.0,7.5,15.5,2.5,1.5,7.0710678118654755,7.0,7.0,23.0,16.0,15.033296378372908
311,311,6.0,52.03844732503075,6.082762530298219,10.04987562112089,15.033296378372908,15.033296378372908,12.041594578792296,34.132096331752024,24.08318915758459,21.0,19.0,21.0,8.0,14.0,3.0,2.0,8.246211251235321,7.0,7.0,23.0,16.0,18.110770276274835
312,312,5.0,52.08646657242167,6.0,11.045361017187261,15.033296378372908,16.0,12.041594578792296,34.058772731852805,23.021728866442675,20.5,18.0,21.0,7.5,14.5,2.5,1.5,7.0710678118654755,7.0710678118654755,7.0,23.0,16.0,18.027756377319946
313,313,6.0,53.08483775994799,6.0,10.04987562112089,15.033296378372908,16.0312195418814,12.041594578792296,34.058772731852805,24.020824298928627,21.0,18.0,21.0,7.5,14.5,3.5,1.5,7.0710678118654755,7.0,7.0,22.0,15.0,17.11724276862369
314,314,5.0,53.03772242470448,7.0,11.045361017187261,15.0,16.0,12.041594578792296,35.05709628591621,24.020824298928627,21.5,19.0,21.0,8.0,15.0,3.0,2.0,8.06225774829855,8.0,7.5,23.0,17.0,17.029386365926403
315,315,6.0,52.08646657242167,7.0,10.04987562112089,15.0,16.0,11.045361017187261,34.058772731852805,24.020824298928627,21.0,18.0,21.0,8.5,14.5,2.5,2.5,7.0710678118654755,7.0,7.0,22.0,17.0,17.0
316,316,6.0,51.03920062069938,6.082762530298219,11.045361017187261,15.0,15.033296378372908,12.0,35.05709628591621,24.020824298928627,21.0,19.0,21.0,8.0,15.0,3.0,2.0,8.06225774829855,7.0,7.0,23.0,17.0,15.132745950421556
317,317,6.0,52.08646657242167,6.0,10.04987562112089,15.0,15.033296378372908,12.041594578792296,34.058772731852805,24.020824298928627,21.0,18.0,21.0,7.5,14.5,3.5,1.5,7.0710678118654755,7.0,7.0,22.0,17.0,19.0
318,318,6.0,52.08646657242167,6.0,11.045361017187261,15.033296378372908,15.033296378372908,12.041594578792296,35.05709628591621,24.020824298928627,21.0,18.0,21.0,7.5,15.5,3.5,1.5,8.06225774829855,8.0,7.5,23.0,16.0,19.026297590440446
319,319,5.0,53.08483775994799,6.0,11.045361017187261,15.033296378372908,16.0312195418814,12.041594578792296,34.058772731852805,23.021728866442675,20.5,18.0,21.0,7.5,14.5,2.5,1.5,7.0710678118654755,7.0710678118654755,7.0,22.0,16.0,14.035668847618199
320,320,6.0,52.03844732503075,7.0,10.04987562112089,15.0,16.0,12.041594578792296,35.05709628591621,25.019992006393608,22.0,19.0,21.0,8.0,15.0,4.0,2.0,7.0710678118654755,8.0,8.0,23.0,17.0,15.132745950421556
321,321,6.0,53.08483775994799,6.082762530298219,10.0,15.0,15.033296378372908,12.041594578792296,34.058772731852805,24.08318915758459,21.0,18.0,21.0,7.5,14.5,3.5,1.5,7.0710678118654755,7.0,7.0,22.0,17.0,15.033296378372908
322,322,5.0,52.03844732503075,7.0,10.04987562112089,15.0,16.0,12.041594578792296,34.058772731852805,24.020824298928627,21.5,19.0,21.0,8.0,14.0,3.0,2.0,7.0710678118654755,7.0,7.0,23.0,17.0,16.1245154965971
323,323,5.0,52.08646657242167,6.0,11.045361017187261,15.033296378372908,16.0,13.038404810405298,35.05709628591621,24.020824298928627,21.5,19.0,22.0,7.5,14.5,2.5,1.5,7.0710678118654755,6.0,6.5,23.0,17.0,15.132745950421556
324,324,5.0,52.08646657242167,6.0,11.045361017187261,15.033296378372908,16.0,13.038404810405298,35.05709628591621,24.020824298928627,21.5,19.0,22.0,7.5,14.5,2.5,1.5,7.0710678118654755,6.0,6.5,23.0,17.0,15.132745950421556
325,325,5.0,51.03920062069938,7.0,11.045361017187261,15.0,16.0,13.0,36.013886210738214,25.0,22.5,20.0,22.0,8.0,15.0,3.0,2.0,7.0710678118654755,7.0,7.0,22.0,16.0,14.142135623730951
326,326,4.0,51.03920062069938,7.0,11.045361017187261,14.0,15.0,13.038404810405298,35.05709628591621,24.020824298928627,22.0,20.0,22.0,8.0,14.0,2.0,1.0,7.0710678118654755,7.0,7.0,23.0,17.0,15.033296378372908
327,327,4.0,50.039984012787215,7.0,10.04987562112089,14.035668847618199,14.0,13.038404810405298,34.058772731852805,24.020824298928627,22.0,20.0,22.0,8.0,13.0,2.0,1.0,8.06225774829855,7.0,7.5,23.0,17.0,15.033296378372908
328,328,3.0,50.039984012787215,7.0710678118654755,10.0,13.0,14.0,13.038404810405298,33.06055050963308,23.08679276123039,21.5,20.0,22.0,8.0,12.0,1.0,1.0,7.0710678118654755,7.0,7.0,23.0,16.0,15.132745950421556
329,329,2.0,50.039984012787215,7.0,10.04987562112089,14.035668847618199,14.035668847618199,13.038404810405298,32.0624390837628,22.02271554554524,21.0,20.0,22.0,8.0,11.0,0.0,1.0,8.06225774829855,7.0,7.0,23.0,17.0,15.132745950421556
330,330,1.0,50.039984012787215,7.0,10.04987562112089,14.035668847618199,14.035668847618199,13.038404810405298,31.064449134018133,21.02379604162864,20.5,19.0,21.0,7.0,11.0,0.0,0.0,7.0710678118654755,7.0,7.0,22.0,16.0,16.1245154965971
331,331,2.0,50.08991914547278,7.0,10.04987562112089,14.035668847618199,15.0,13.152946437965905,32.14031735997639,22.090722034374522,21.0,19.0,22.0,7.5,11.5,0.5,0.5,8.06225774829855,7.0,7.0,23.0,16.0,15.033296378372908
332,332,1.0,50.08991914547278,7.0710678118654755,10.0,14.0,15.033296378372908,13.038404810405298,31.064449134018133,21.095023109728988,20.5,19.0,22.0,7.5,10.5,0.5,1.5,7.0710678118654755,7.0,7.0,23.0,16.0,15.132745950421556
333,333,1.0,49.09175083453431,8.0,10.04987562112089,13.0,14.0,13.152946437965905,32.14031735997639,22.090722034374522,21.5,20.0,23.0,8.5,10.5,0.5,1.5,7.0710678118654755,7.0710678118654755,7.0,23.0,15.0,16.0312195418814
334,334,1.4142135623730951,50.08991914547278,8.0,11.045361017187261,14.0,15.033296378372908,13.038404810405298,33.13608305156178,22.090722034374522,21.5,20.0,23.0,8.5,11.5,0.5,1.5,7.280109889280518,6.0,6.0,24.0,15.0,15.033296378372908
335,335,10.0,50.08991914547278,7.0710678118654755,10.04987562112089,14.035668847618199,16.0312195418814,13.038404810405298,40.11234224026316,30.066592756745816,25.0,22.0,25.0,10.5,16.5,4.5,3.5,8.246211251235321,7.0,7.0,23.0,15.0,15.132745950421556
336,336,13.0,51.15662224971465,7.0,12.165525060596439,14.0,17.029386365926403,13.152946437965905,45.17742799230607,33.06055050963308,26.5,24.0,28.0,13.0,19.0,6.0,6.0,7.280109889280518,7.0710678118654755,7.0,24.0,15.0,18.110770276274835
337,337,13.038404810405298,52.23983154643591,8.0,12.041594578792296,16.0312195418814,17.029386365926403,12.165525060596439,45.17742799230607,33.13608305156178,26.5,23.0,28.0,13.5,19.5,5.5,5.5,7.0710678118654755,7.0,7.0,24.0,15.0,17.11724276862369
338,338,11.045361017187261,51.15662224971465,6.0,11.045361017187261,15.132745950421556,16.1245154965971,12.041594578792296,40.11234224026316,29.068883707497267,23.5,22.0,26.0,12.0,16.0,4.0,5.0,8.06225774829855,7.0710678118654755,7.0,22.0,14.0,17.26267650163207
339,339,10.04987562112089,54.08326913195984,6.0,10.0,16.0312195418814,17.029386365926403,11.180339887498949,37.12142238654117,27.16615541441225,22.0,20.0,23.0,10.5,15.5,3.5,4.5,7.280109889280518,7.0,7.0,22.0,15.0,15.132745950421556
340,340,9.0,53.08483775994799,6.0,9.055385138137417,14.035668847618199,16.0312195418814,11.180339887498949,35.12833614050059,26.076809620810597,21.5,19.0,22.0,9.5,14.5,4.5,3.5,7.0710678118654755,7.0,7.0,22.0,15.0,16.1245154965971
341,341,8.0,53.08483775994799,6.0,10.04987562112089,15.033296378372908,16.0312195418814,12.041594578792296,36.05551275463989,26.019223662515376,22.0,20.0,23.0,9.5,14.5,3.5,3.5,7.0710678118654755,7.0,7.0,22.0,16.0,16.1245154965971
342,342,8.0,53.08483775994799,7.0,11.045361017187261,16.0312195418814,16.0,11.045361017187261,37.05401462729781,26.019223662515376,22.0,20.0,23.0,10.5,15.5,3.5,3.5,6.082762530298219,6.0,6.5,22.0,17.0,15.033296378372908
343,343,9.0,53.08483775994799,6.082762530298219,11.045361017187261,15.033296378372908,16.0312195418814,12.0,38.05259518088089,27.018512172212592,22.5,20.0,23.0,9.5,16.5,4.5,3.5,7.0710678118654755,6.0,6.5,22.0,17.0,16.0312195418814
344,344,7.0710678118654755,51.0098029794274,6.0,11.0,15.033296378372908,16.0,12.0,36.013886210738214,25.019992006393608,21.5,21.0,22.0,9.5,14.5,2.5,3.5,7.0710678118654755,7.0,7.0,21.0,17.0,15.033296378372908
345,345,7.0,52.009614495783374,7.0,10.04987562112089,15.0,16.0,11.045361017187261,35.05709628591621,25.019992006393608,21.5,21.0,22.0,10.5,13.5,1.5,4.5,7.0710678118654755,7.0710678118654755,7.0,20.0,17.0,17.029386365926403
346,346,6.0,51.0,6.0,11.045361017187261,15.0,16.0,11.0,34.0147027033899,23.0,20.0,21.0,21.0,10.0,13.0,2.0,4.0,7.0,6.0,6.5,20.0,17.0,16.0
347,347,7.0,52.0,6.0,9.0,15.0,16.0312195418814,11.0,33.0,24.0,20.5,20.0,20.0,9.0,13.0,3.0,3.0,7.0,7.0,7.0,19.0,17.0,14.035668847618199
348,348,7.0710678118654755,51.0098029794274,7.0,10.04987562112089,14.0,16.0312195418814,10.0,34.0,24.020824298928627,20.5,21.0,20.0,10.5,13.5,2.5,4.5,7.0710678118654755,7.0,7.0,19.0,18.0,15.0
349,349,10.0,51.0098029794274,7.0,11.0,14.0,16.0312195418814,10.0,38.0,27.0,22.0,22.0,21.0,11.5,16.5,4.5,5.5,6.0,6.0,6.0,19.0,19.0,18.0
350,350,12.0,50.039984012787215,7.0,11.045361017187261,15.033296378372908,16.0,10.04987562112089,40.049968789001575,29.017236257093817,23.0,24.0,22.0,13.0,17.0,5.0,7.0,7.0,6.0,6.5,18.0,18.0,16.0312195418814
351,351,8.0,49.01020301937138,7.0,10.0,14.035668847618199,15.033296378372908,11.045361017187261,36.013886210738214,26.019223662515376,22.0,22.0,21.0,10.5,14.5,3.5,4.5,6.0,7.0,7.0,18.0,19.0,13.038404810405298
352,352,2.0,48.041648597857254,7.0,9.055385138137417,14.035668847618199,14.035668847618199,13.038404810405298,31.064449134018133,22.02271554554524,21.0,22.0,20.0,8.0,10.0,0.0,2.0,7.0,7.0710678118654755,7.0,17.0,19.0,13.038404810405298
353,353,2.23606797749979,48.041648597857254,7.0,9.0,14.0,14.035668847618199,13.038404810405298,31.064449134018133,22.090722034374522,21.0,23.0,21.0,9.0,9.0,1.0,3.0,7.0,7.0710678118654755,7.0,18.0,19.0,14.035668847618199
354,354,4.0,48.041648597857254,8.06225774829855,11.0,13.038404810405298,14.035668847618199,11.045361017187261,34.058772731852805,23.08679276123039,21.0,23.0,21.0,11.0,12.0,1.0,4.0,8.0,7.0,7.0,17.0,19.0,15.033296378372908
355,355,6.0,48.010415536631214,7.0710678118654755,11.0,14.035668847618199,15.0,11.0,35.014282800023196,24.020824298928627,21.0,23.0,22.0,11.5,12.5,0.5,5.5,7.0,7.0710678118654755,7.0,16.0,18.0,13.038404810405298
356,356,7.0,48.041648597857254,7.0,11.045361017187261,14.035668847618199,15.0,10.04987562112089,35.05709628591621,24.020824298928627,20.5,23.0,21.0,12.0,13.0,2.0,6.0,7.0,7.0710678118654755,7.0,16.0,19.0,13.038404810405298
357,357,7.0,49.040799340956916,7.0,10.0,14.035668847618199,15.033296378372908,10.04987562112089,34.0147027033899,24.020824298928627,20.5,23.0,21.0,12.0,12.0,2.0,6.0,7.0,7.0710678118654755,7.0,17.0,19.0,13.038404810405298
358,358,8.0,48.093658625644196,6.0,10.04987562112089,15.033296378372908,16.0312195418814,10.04987562112089,34.058772731852805,24.020824298928627,20.0,23.0,20.0,11.5,12.5,2.5,6.5,7.0,7.0,7.0,16.0,19.0,13.038404810405298
359,359,9.0,49.09175083453431,6.082762530298219,10.0,14.035668847618199,15.033296378372908,10.0,35.014282800023196,25.019992006393608,20.5,23.0,20.0,11.5,13.5,2.5,6.5,7.0,6.082762530298219,6.5,17.0,19.0,14.035668847618199
360,360,7.0,49.09175083453431,6.0,10.0,14.035668847618199,15.033296378372908,10.04987562112089,33.015148038438355,23.021728866442675,19.5,23.0,20.0,11.5,11.5,0.5,6.5,6.0,7.0710678118654755,7.0,17.0,20.0,13.038404810405298
361,361,7.0,49.09175083453431,6.0,10.0,15.033296378372908,16.0312195418814,10.04987562112089,33.015148038438355,23.021728866442675,19.5,23.0,20.0,11.5,11.5,1.5,6.5,8.0,8.06225774829855,7.5,17.0,20.0,13.038404810405298
362,362,7.0,49.09175083453431,6.0,10.0,15.033296378372908,16.0312195418814,10.04987562112089,33.015148038438355,23.021728866442675,19.5,23.0,20.0,11.5,11.5,1.5,6.5,8.0,8.06225774829855,7.5,17.0,20.0,13.038404810405298
363,363,7.0,49.09175083453431,5.0,9.055385138137417,15.033296378372908,16.0312195418814,11.045361017187261,32.0624390837628,23.021728866442675,19.5,23.0,20.0,10.5,10.5,1.5,5.5,8.0,7.0710678118654755,7.5,17.0,20.0,13.038404810405298
364,364,6.082762530298219,49.09175083453431,6.0,9.0,15.033296378372908,16.0312195418814,10.04987562112089,31.064449134018133,22.090722034374522,19.0,23.0,20.0,11.5,9.5,0.5,6.5,8.0,7.0,7.0,16.0,18.0,12.041594578792296
365,365,6.0,49.09175083453431,6.0,10.04987562112089,15.033296378372908,15.033296378372908,10.04987562112089,32.0624390837628,22.02271554554524,19.0,23.0,20.0,11.5,10.5,0.5,6.5,8.0,7.0710678118654755,7.5,18.0,20.0,13.038404810405298
366,366,6.082762530298219,49.040799340956916,5.0,9.0,15.132745950421556,16.0312195418814,11.0,31.016124838541646,22.02271554554524,19.0,22.0,20.0,10.0,10.0,1.0,6.0,7.0,7.0,7.0,17.0,19.0,14.035668847618199
367,367,6.082762530298219,50.039984012787215,6.0,8.0,15.033296378372908,16.0312195418814,10.04987562112089,30.066592756745816,22.090722034374522,19.0,21.0,19.0,10.0,10.0,1.0,5.0,6.082762530298219,6.0,6.0,17.0,20.0,13.038404810405298
368,368,6.082762530298219,50.08991914547278,6.0,9.0,15.033296378372908,16.0312195418814,11.0,32.01562118716424,23.021728866442675,20.0,23.0,20.0,10.5,10.5,0.5,5.5,5.0,4.123105625617661,4.0,19.0,21.0,15.033296378372908
369,369,5.0,49.09175083453431,7.0710678118654755,9.0,15.033296378372908,16.0312195418814,10.0,31.016124838541646,22.02271554554524,19.5,22.0,19.0,10.5,10.5,0.5,4.5,5.0,5.0,5.0,19.0,21.0,13.038404810405298
370,370,6.0,50.08991914547278,6.082762530298219,9.0,14.0,15.033296378372908,10.0,31.016124838541646,22.02271554554524,19.0,22.0,19.0,10.5,10.5,1.5,4.5,5.0,5.0990195135927845,4.5,19.0,20.0,13.038404810405298
371,371,5.0990195135927845,51.03920062069938,6.0,9.0,15.033296378372908,16.0312195418814,11.045361017187261,31.064449134018133,22.090722034374522,19.5,21.0,19.0,9.0,11.0,2.0,4.0,7.0,6.082762530298219,6.0,18.0,20.0,13.038404810405298
372,372,5.0,50.039984012787215,6.0,9.0,14.035668847618199,15.033296378372908,11.045361017187261,31.016124838541646,22.02271554554524,19.5,22.0,20.0,10.0,10.0,1.0,5.0,8.0,7.0710678118654755,7.0,19.0,20.0,13.038404810405298
373,373,3.1622776601683795,49.040799340956916,6.0,9.0,14.035668847618199,14.035668847618199,11.0,29.017236257093817,20.024984394500787,18.5,20.0,18.0,8.0,10.0,1.0,3.0,7.0,7.0710678118654755,7.0,18.0,19.0,13.038404810405298
374,374,1.4142135623730951,50.039984012787215,7.0,10.0,15.033296378372908,15.0,11.045361017187261,29.068883707497267,19.1049731745428,18.5,21.0,19.0,9.0,9.0,1.0,3.0,7.0,7.0710678118654755,7.0,18.0,20.0,14.0
375,375,2.0,48.041648597857254,7.0,9.055385138137417,14.035668847618199,15.033296378372908,11.045361017187261,29.068883707497267,20.024984394500787,19.0,21.0,19.0,9.0,9.0,1.0,3.0,7.0,7.0,7.0,18.0,19.0,14.0
376,376,2.0,49.040799340956916,7.0,9.055385138137417,15.033296378372908,15.033296378372908,11.045361017187261,29.068883707497267,20.024984394500787,19.0,21.0,19.0,9.0,9.0,1.0,3.0,7.0,7.0710678118654755,7.0,18.0,19.0,13.038404810405298
377,377,2.23606797749979,49.040799340956916,7.0,9.0,14.035668847618199,14.035668847618199,11.0,29.017236257093817,20.024984394500787,19.0,21.0,19.0,9.0,9.0,0.0,3.0,7.0,7.0710678118654755,7.0,18.0,20.0,14.0
378,378,2.0,49.01020301937138,7.0,9.0,13.038404810405298,15.033296378372908,11.045361017187261,29.017236257093817,20.024984394500787,19.0,20.0,19.0,8.5,9.5,0.5,2.5,7.0,7.0,7.0,19.0,20.0,13.0
379,379,2.0,49.040799340956916,7.0,9.0,14.0,15.0,11.045361017187261,29.017236257093817,20.024984394500787,19.0,21.0,19.0,9.0,9.0,1.0,2.0,8.0,7.0710678118654755,7.0,18.0,20.0,14.035668847618199
380,380,2.0,49.040799340956916,7.0,9.0,14.035668847618199,15.033296378372908,11.045361017187261,29.017236257093817,20.024984394500787,19.0,21.0,19.0,9.0,9.0,1.0,3.0,8.0,7.0,7.0,19.0,20.0,13.038404810405298
381,381,2.0,49.040799340956916,7.0,9.0,14.035668847618199,15.033296378372908,11.045361017187261,29.017236257093817,20.024984394500787,19.0,21.0,19.0,9.0,9.0,0.0,3.0,8.0,6.082762530298219,6.5,18.0,20.0,13.038404810405298
382,382,3.0,49.040799340956916,7.0,9.055385138137417,15.033296378372908,15.033296378372908,11.0,30.01666203960727,21.0,19.5,21.0,19.0,9.0,10.0,0.0,3.0,7.0,7.0710678118654755,7.0,18.0,19.0,13.038404810405298
383,383,2.0,50.039984012787215,7.0,9.0,15.033296378372908,15.033296378372908,11.045361017187261,29.017236257093817,20.024984394500787,19.0,21.0,19.0,9.0,9.0,1.0,3.0,7.0,7.0,7.0,19.0,19.0,15.033296378372908
384,384,2.0,49.01020301937138,7.0,10.0,14.035668847618199,15.0,11.045361017187261,30.01666203960727,20.024984394500787,19.0,20.0,19.0,8.5,10.5,0.5,2.5,7.0710678118654755,7.0710678118654755,7.0,19.0,20.0,14.0
385,385,2.0,50.039984012787215,7.0710678118654755,10.0,14.035668847618199,15.033296378372908,11.0,30.01666203960727,20.024984394500787,19.0,21.0,19.0,9.0,10.0,0.0,3.0,6.0,7.0,7.0,19.0,19.0,14.035668847618199
386,386,2.23606797749979,49.01020301937138,7.0,10.0,14.035668847618199,15.0,11.0,30.01666203960727,20.024984394500787,19.0,20.0,19.0,8.5,10.5,0.5,2.5,7.0710678118654755,7.0,7.0,19.0,19.0,14.035668847618199
387,387,2.0,49.01020301937138,8.0,9.055385138137417,15.0,15.033296378372908,11.045361017187261,30.066592756745816,21.02379604162864,20.0,21.0,20.0,9.5,9.5,0.5,2.5,6.0,6.0,6.0,19.0,18.0,15.0
388,388,2.23606797749979,49.01020301937138,7.0,10.0,15.0,15.033296378372908,12.0,31.016124838541646,21.02379604162864,20.0,21.0,20.0,8.5,10.5,0.5,2.5,7.0,7.0710678118654755,7.0,20.0,18.0,18.0
389,389,3.0,49.0,7.0,10.0,15.033296378372908,15.033296378372908,11.045361017187261,31.016124838541646,21.02379604162864,19.5,20.0,20.0,9.0,11.0,0.0,3.0,7.0710678118654755,7.0,7.0,20.0,19.0,15.0
390,390,4.0,48.0,7.0710678118654755,10.04987562112089,14.035668847618199,15.0,12.0,33.0,23.021728866442675,21.0,21.0,21.0,9.0,12.0,1.0,3.0,8.06225774829855,6.0,6.5,21.0,18.0,14.035668847618199
391,391,5.0,49.01020301937138,7.0,9.0,14.0,15.0,12.0,33.0,24.0,21.5,21.0,22.0,9.5,11.5,1.5,2.5,7.0710678118654755,7.0,7.0,21.0,17.0,15.033296378372908
392,392,4.0,48.041648597857254,7.0,10.04987562112089,14.0,14.0,12.0,33.015148038438355,23.0,21.0,20.0,22.0,9.0,12.0,0.0,2.0,7.0710678118654755,6.0,6.5,21.0,17.0,16.0312195418814
393,393,2.23606797749979,47.042533945356304,8.06225774829855,11.045361017187261,13.038404810405298,14.0,11.0,32.01562118716424,21.0,20.0,19.0,21.0,9.0,12.0,0.0,1.0,8.06225774829855,7.0,7.5,22.0,16.0,16.1245154965971
394,394,2.0,46.09772228646444,8.0,10.04987562112089,13.038404810405298,14.035668847618199,11.045361017187261,31.064449134018133,21.02379604162864,20.0,19.0,22.0,9.5,10.5,0.5,1.5,8.06225774829855,7.0,7.5,22.0,16.0,14.142135623730951
395,395,2.0,46.09772228646444,8.06225774829855,10.0,13.038404810405298,13.038404810405298,11.045361017187261,31.064449134018133,21.095023109728988,20.0,19.0,22.0,9.5,10.5,0.5,1.5,7.280109889280518,7.0,7.5,23.0,15.0,15.132745950421556
396,396,2.0,46.09772228646444,7.0,10.04987562112089,13.038404810405298,14.035668847618199,12.041594578792296,31.064449134018133,21.02379604162864,20.0,19.0,22.0,8.5,10.5,0.5,1.5,7.0710678118654755,6.0,6.5,23.0,16.0,16.1245154965971
397,397,2.23606797749979,46.09772228646444,7.0,10.04987562112089,13.0,13.038404810405298,12.041594578792296,31.144823004794873,21.095023109728988,20.0,19.0,22.0,8.5,10.5,0.5,1.5,7.0710678118654755,7.0,7.0,23.0,15.0,14.142135623730951
398,398,2.0,45.17742799230607,7.0,10.198039027185569,13.0,13.038404810405298,11.045361017187261,30.14962686336267,20.024984394500787,19.0,18.0,22.0,9.0,10.0,1.0,2.0,7.0710678118654755,6.082762530298219,6.5,24.0,15.0,16.1245154965971
399,399,2.0,46.17358552246078,7.0,11.045361017187261,12.0,14.0,11.045361017187261,31.064449134018133,20.024984394500787,19.0,18.0,22.0,9.0,11.0,1.0,2.0,8.06225774829855,6.0,7.0,24.0,15.0,15.132745950421556
400,400,2.0,46.17358552246078,7.0,11.045361017187261,12.0,14.0,11.045361017187261,31.064449134018133,20.024984394500787,19.0,18.0,22.0,9.0,11.0,1.0,2.0,8.06225774829855,6.0,7.0,24.0,15.0,15.132745950421556
401,401,2.0,45.17742799230607,7.0,10.04987562112089,12.0,14.035668847618199,11.045361017187261,30.066592756745816,20.024984394500787,19.0,18.0,22.0,9.0,10.0,1.0,2.0,7.280109889280518,8.0,7.5,23.0,15.0,16.0312195418814
402,402,2.0,45.17742799230607,8.0,10.04987562112089,12.041594578792296,14.035668847618199,11.045361017187261,31.064449134018133,21.02379604162864,20.0,19.0,23.0,10.0,10.0,1.0,2.0,8.246211251235321,7.0,7.0,24.0,15.0,17.029386365926403
403,403,2.0,45.17742799230607,8.06225774829855,11.045361017187261,13.038404810405298,14.035668847618199,11.045361017187261,32.14031735997639,21.095023109728988,20.0,19.0,23.0,10.0,11.0,1.0,2.0,7.0710678118654755,7.0710678118654755,7.0,23.0,14.0,17.11724276862369
404,404,3.0,44.10215414239989,8.06225774829855,11.045361017187261,13.038404810405298,14.035668847618199,11.0,33.06055050963308,22.02271554554524,20.5,19.0,22.0,9.5,12.5,0.5,1.5,8.246211251235321,7.0710678118654755,7.5,24.0,14.0,16.1245154965971
405,405,4.0,43.18564576337837,8.06225774829855,11.045361017187261,13.038404810405298,14.035668847618199,10.04987562112089,33.13608305156178,22.090722034374522,20.0,18.0,22.0,10.0,13.0,0.0,2.0,8.246211251235321,8.0,8.0,25.0,15.0,15.132745950421556
406,406,4.0,43.18564576337837,7.0710678118654755,11.180339887498949,13.038404810405298,14.035668847618199,12.041594578792296,34.23448553724738,23.08679276123039,21.0,19.0,23.0,9.0,13.0,0.0,2.0,7.0710678118654755,6.082762530298219,6.5,24.0,14.0,17.029386365926403
407,407,4.0,41.30375285612676,8.06225774829855,11.045361017187261,13.038404810405298,14.035668847618199,10.04987562112089,33.13608305156178,22.090722034374522,20.0,18.0,23.0,10.5,12.5,0.5,2.5,7.280109889280518,7.0,7.0,24.0,14.0,18.110770276274835
408,408,6.0,41.30375285612676,7.0710678118654755,10.04987562112089,12.041594578792296,13.038404810405298,10.04987562112089,33.13608305156178,23.08679276123039,20.0,18.0,23.0,10.5,12.5,0.5,3.5,8.06225774829855,7.0,7.0,25.0,15.0,18.110770276274835
409,409,5.0990195135927845,43.18564576337837,8.0,11.045361017187261,12.041594578792296,13.038404810405298,10.04987562112089,34.132096331752024,23.08679276123039,20.5,19.0,23.0,11.0,13.0,0.0,3.0,7.0710678118654755,7.0,6.5,25.0,15.0,18.110770276274835
410,410,4.0,43.289721643826724,7.0,12.165525060596439,12.041594578792296,13.038404810405298,11.045361017187261,34.132096331752024,22.02271554554524,20.0,18.0,23.0,9.5,13.5,0.5,2.5,8.06225774829855,7.0,7.0,26.0,16.0,19.1049731745428
411,411,3.0,42.2965719651132,8.06225774829855,11.045361017187261,12.041594578792296,13.038404810405298,11.045361017187261,33.13608305156178,22.090722034374522,20.5,18.0,23.0,9.5,12.5,0.5,2.5,7.0710678118654755,7.0,7.0,24.0,15.0,17.26267650163207
412,412,1.0,43.289721643826724,8.0,12.165525060596439,12.041594578792296,13.038404810405298,12.041594578792296,33.13608305156178,21.02379604162864,20.5,19.0,24.0,9.5,11.5,1.5,1.5,7.0710678118654755,7.0,7.0,25.0,15.0,19.1049731745428
413,413,2.0,44.28317965096906,7.0710678118654755,11.045361017187261,12.041594578792296,12.041594578792296,12.041594578792296,32.14031735997639,21.095023109728988,20.0,18.0,23.0,8.5,11.5,0.5,1.5,8.246211251235321,7.0,7.0,25.0,15.0,20.09975124224178
414,414,2.0,45.27692569068709,7.0710678118654755,11.045361017187261,13.038404810405298,14.0,11.045361017187261,31.144823004794873,20.09975124224178,19.0,18.0,23.0,9.5,10.5,1.5,2.5,8.246211251235321,7.0710678118654755,7.5,25.0,15.0,16.1245154965971
415,415,2.0,45.27692569068709,7.0710678118654755,11.045361017187261,13.038404810405298,14.035668847618199,11.045361017187261,31.144823004794873,20.09975124224178,19.0,17.0,22.0,8.5,11.5,0.5,1.5,6.324555320336759,7.0710678118654755,6.5,24.0,14.0,15.132745950421556
416,416,2.0,46.2709412050371,7.0710678118654755,10.04987562112089,13.038404810405298,14.035668847618199,11.045361017187261,30.14962686336267,20.09975124224178,19.0,17.0,22.0,8.5,10.5,0.5,1.5,7.0710678118654755,8.06225774829855,7.5,25.0,14.0,15.132745950421556
417,417,2.0,47.265209192385896,7.0710678118654755,10.198039027185569,13.038404810405298,13.038404810405298,12.165525060596439,31.400636936215164,21.213203435596427,20.0,18.0,23.0,8.5,10.5,0.5,1.5,7.280109889280518,7.0,7.0,24.0,14.0,15.033296378372908
418,418,1.4142135623730951,48.507731342539614,7.0,11.045361017187261,13.038404810405298,14.035668847618199,13.152946437965905,32.2490309931942,21.213203435596427,20.5,17.0,24.0,7.5,11.5,0.5,0.5,7.280109889280518,7.0710678118654755,7.0,25.0,14.0,18.24828759089466
419,419,1.4142135623730951,48.373546489791295,7.0,10.04987562112089,13.152946437965905,14.035668847618199,13.152946437965905,31.25699921617557,21.213203435596427,20.5,17.0,23.0,7.0,11.0,0.0,0.0,7.280109889280518,7.0710678118654755,7.0,25.0,14.0,18.24828759089466
420,420,1.4142135623730951,48.373546489791295,7.0,10.04987562112089,13.038404810405298,14.035668847618199,13.152946437965905,31.25699921617557,21.213203435596427,20.5,17.0,23.0,7.0,11.0,0.0,0.0,7.280109889280518,7.0710678118654755,6.5,25.0,13.0,18.24828759089466
421,421,1.4142135623730951,48.507731342539614,7.0,10.04987562112089,14.142135623730951,14.035668847618199,13.152946437965905,31.25699921617557,21.213203435596427,20.5,16.0,23.0,6.5,11.5,0.5,0.5,7.0710678118654755,7.0710678118654755,7.0,26.0,14.0,18.110770276274835
422,422,1.0,48.373546489791295,7.0710678118654755,10.198039027185569,14.035668847618199,15.132745950421556,13.152946437965905,31.400636936215164,21.213203435596427,20.5,17.0,23.0,7.0,11.0,0.0,0.0,7.280109889280518,7.0710678118654755,7.0,26.0,14.0,18.24828759089466
423,423,1.0,49.49747468305833,7.0710678118654755,10.198039027185569,14.142135623730951,14.142135623730951,13.152946437965905,31.400636936215164,21.213203435596427,20.5,16.0,23.0,6.5,11.5,0.5,0.5,7.280109889280518,7.0,6.5,25.0,13.0,19.235384061671343
424,424,2.0,49.36598018878993,6.082762530298219,10.198039027185569,14.035668847618199,15.033296378372908,13.152946437965905,31.400636936215164,21.213203435596427,20.0,16.0,22.0,6.0,12.0,0.0,0.0,7.280109889280518,7.0710678118654755,7.0,26.0,14.0,18.24828759089466
425,425,1.0,49.36598018878993,7.0710678118654755,10.04987562112089,14.035668847618199,15.033296378372908,13.152946437965905,31.25699921617557,21.213203435596427,20.5,16.0,22.0,6.0,12.0,0.0,0.0,7.0710678118654755,7.0,7.0,25.0,13.0,18.24828759089466
426,426,2.23606797749979,50.35871324805669,6.082762530298219,9.055385138137417,14.035668847618199,14.035668847618199,13.038404810405298,30.265491900843113,21.213203435596427,20.0,16.0,22.0,6.0,11.0,0.0,0.0,7.280109889280518,7.0710678118654755,7.0,25.0,13.0,18.24828759089466
427,427,2.0,49.36598018878993,7.0710678118654755,10.04987562112089,13.152946437965905,14.035668847618199,12.165525060596439,31.25699921617557,21.213203435596427,20.0,16.0,22.0,7.0,12.0,0.0,0.0,7.0710678118654755,7.0,7.0,25.0,14.0,16.1245154965971
428,428,2.23606797749979,50.24937810560445,6.0,10.04987562112089,14.035668847618199,14.035668847618199,13.152946437965905,31.25699921617557,21.213203435596427,20.0,17.0,22.0,6.5,11.5,0.5,0.5,7.0710678118654755,6.0,6.5,24.0,14.0,14.142135623730951
429,429,1.0,50.24937810560445,7.0710678118654755,9.219544457292887,14.142135623730951,15.033296378372908,13.038404810405298,30.265491900843113,21.095023109728988,20.5,17.0,22.0,6.5,10.5,0.5,0.5,7.0710678118654755,7.0,7.0,23.0,13.0,16.1245154965971
430,430,2.0,49.36598018878993,7.0,9.219544457292887,14.035668847618199,15.033296378372908,12.165525060596439,30.265491900843113,21.095023109728988,20.0,16.0,22.0,7.0,11.0,0.0,0.0,7.280109889280518,6.0,6.5,24.0,14.0,14.142135623730951
431,431,2.23606797749979,49.25444142409901,6.0,9.055385138137417,14.035668847618199,15.033296378372908,13.152946437965905,30.265491900843113,21.213203435596427,20.0,17.0,22.0,6.5,10.5,0.5,0.5,8.246211251235321,7.0710678118654755,7.0,23.0,14.0,16.1245154965971
432,432,1.4142135623730951,50.15974481593781,7.0,10.04987562112089,14.035668847618199,15.033296378372908,13.038404810405298,31.144823004794873,21.095023109728988,20.5,18.0,22.0,7.0,11.0,0.0,0.0,8.246211251235321,7.0710678118654755,7.5,23.0,14.0,16.1245154965971
433,433,2.0,50.15974481593781,7.0710678118654755,10.04987562112089,14.0,14.0,12.041594578792296,31.144823004794873,21.095023109728988,20.0,18.0,22.0,8.0,11.0,0.0,2.0,8.06225774829855,7.0710678118654755,7.5,23.0,14.0,14.142135623730951
434,434,3.0,51.088159097779204,7.0710678118654755,10.04987562112089,13.038404810405298,15.0,12.041594578792296,32.14031735997639,22.090722034374522,20.5,19.0,22.0,8.5,11.5,0.5,1.5,8.06225774829855,8.0,8.0,23.0,15.0,15.132745950421556
435,435,2.0,50.15974481593781,7.0710678118654755,10.04987562112089,14.0,15.033296378372908,12.041594578792296,31.144823004794873,21.095023109728988,20.0,18.0,22.0,8.0,11.0,0.0,2.0,8.06225774829855,7.0,7.5,23.0,15.0,15.132745950421556
436,436,6.0,50.039984012787215,6.0,9.055385138137417,14.035668847618199,14.0,12.0,33.015148038438355,24.0,21.0,20.0,22.0,9.0,12.0,2.0,3.0,8.06225774829855,7.0,7.0,22.0,14.0,15.132745950421556
437,437,7.0,49.040799340956916,7.0,9.055385138137417,13.038404810405298,14.0,11.045361017187261,34.058772731852805,25.019992006393608,21.5,21.0,23.0,11.0,12.0,2.0,4.0,8.246211251235321,7.0,7.0,22.0,16.0,14.035668847618199
438,438,7.0,49.040799340956916,6.0,9.055385138137417,14.035668847618199,14.0,12.041594578792296,34.058772731852805,25.019992006393608,21.5,21.0,23.0,10.0,12.0,2.0,4.0,8.246211251235321,8.0,8.0,22.0,16.0,15.033296378372908
439,439,8.0,50.08991914547278,6.0,9.055385138137417,14.0,15.033296378372908,11.045361017187261,34.058772731852805,25.019992006393608,21.0,20.0,23.0,10.5,12.5,2.5,4.5,9.219544457292887,8.0,8.0,23.0,16.0,15.033296378372908
440,440,8.0,50.039984012787215,6.0,10.04987562112089,14.0,16.0,11.0,35.014282800023196,25.0,21.0,21.0,23.0,11.0,13.0,2.0,5.0,9.0,8.0,8.0,21.0,16.0,14.0
441,441,8.0,50.039984012787215,6.0,9.055385138137417,15.0,16.0,12.0,35.014282800023196,26.0,22.0,22.0,24.0,11.0,12.0,2.0,5.0,9.055385138137417,7.0,7.0,21.0,15.0,16.0312195418814
442,442,9.0,50.00999900019995,6.0,10.04987562112089,15.0,15.0,11.0,36.013886210738214,26.0,21.5,22.0,23.0,11.5,13.5,2.5,5.5,8.06225774829855,8.0,8.0,21.0,16.0,14.035668847618199
443,443,10.0,50.00999900019995,6.0,10.0,14.0,15.0,11.045361017187261,37.013511046643494,27.018512172212592,22.0,22.0,23.0,11.5,14.5,3.5,5.5,8.06225774829855,8.0,8.0,22.0,17.0,16.0312195418814
444,444,10.04987562112089,50.00999900019995,7.0,9.055385138137417,15.033296378372908,16.0,10.0,36.0,27.018512172212592,22.0,22.0,23.0,12.5,13.5,3.5,6.5,8.06225774829855,7.0,7.5,21.0,17.0,15.0
445,445,10.0,49.0,6.0,10.0,13.0,15.0,11.045361017187261,37.013511046643494,27.018512172212592,22.0,23.0,23.0,12.0,14.0,4.0,6.0,8.06225774829855,7.0,7.5,21.0,18.0,15.0
446,446,11.0,50.00999900019995,6.0,9.0,15.0,16.0312195418814,11.045361017187261,37.013511046643494,28.0178514522438,22.5,23.0,24.0,12.5,13.5,3.5,6.5,8.06225774829855,7.0,7.5,21.0,17.0,16.0312195418814
447,447,11.0,49.01020301937138,6.0,8.06225774829855,15.0,16.0312195418814,10.0,35.014282800023196,27.0,21.5,23.0,24.0,13.5,11.5,2.5,7.5,8.0,8.0,8.0,20.0,17.0,16.0
448,448,10.0,49.040799340956916,6.0,9.055385138137417,14.0,15.033296378372908,11.0,36.013886210738214,27.0,22.0,23.0,25.0,13.0,12.0,3.0,7.0,8.06225774829855,8.0,8.0,19.0,15.0,15.132745950421556
449,449,10.0,49.040799340956916,6.0,9.055385138137417,14.0,15.0,12.0,37.013511046643494,28.0,23.0,23.0,25.0,12.0,13.0,3.0,6.0,8.06225774829855,8.0,8.0,20.0,15.0,14.035668847618199
450,450,10.04987562112089,48.093658625644196,6.0,9.0,14.0,15.0,11.0,36.013886210738214,27.018512172212592,22.0,23.0,26.0,13.5,11.5,2.5,7.5,8.06225774829855,7.0,7.5,20.0,15.0,15.033296378372908
451,451,10.0,48.093658625644196,6.082762530298219,9.055385138137417,14.0,16.0,11.0,36.05551275463989,27.018512172212592,22.0,22.0,25.0,12.5,12.5,2.5,6.5,8.06225774829855,8.0,8.0,22.0,15.0,15.132745950421556
452,452,11.0,47.16990566028302,6.082762530298219,8.06225774829855,14.035668847618199,16.0,11.0,36.05551275463989,28.0178514522438,22.5,22.0,26.0,13.0,12.0,3.0,7.0,8.06225774829855,7.0,7.0,21.0,14.0,15.033296378372908
453,453,11.045361017187261,47.16990566028302,7.0,8.06225774829855,14.035668847618199,15.0,10.04987562112089,36.124783736376884,28.071337695236398,22.5,22.0,26.0,14.0,12.0,3.0,7.0,7.0710678118654755,7.0,7.5,21.0,13.0,15.132745950421556
454,454,11.0,49.16299421312742,6.0,9.055385138137417,14.0,15.0,10.04987562112089,36.05551275463989,27.018512172212592,21.5,21.0,25.0,13.0,13.0,3.0,7.0,8.06225774829855,8.06225774829855,8.0,22.0,13.0,15.132745950421556
455,455,10.0,49.16299421312742,7.0,9.219544457292887,14.035668847618199,15.033296378372908,10.04987562112089,36.124783736376884,27.018512172212592,22.0,21.0,25.0,13.0,13.0,3.0,6.0,7.0710678118654755,8.0,8.0,22.0,13.0,14.317821063276353
456,456,10.04987562112089,49.09175083453431,7.0,9.055385138137417,14.035668847618199,15.033296378372908,10.04987562112089,36.124783736376884,27.073972741361768,22.0,22.0,25.0,13.5,12.5,2.5,6.5,8.06225774829855,8.0,8.0,23.0,14.0,15.132745950421556
457,457,10.04987562112089,47.16990566028302,6.0,9.055385138137417,14.035668847618199,15.0,11.045361017187261,36.124783736376884,27.073972741361768,22.0,21.0,25.0,12.0,13.0,3.0,6.0,8.06225774829855,8.0,8.0,22.0,13.0,15.132745950421556
458,458,12.0,49.16299421312742,6.082762530298219,9.055385138137417,14.035668847618199,15.033296378372908,10.0,37.05401462729781,28.0178514522438,22.0,22.0,26.0,14.0,13.0,3.0,7.0,9.055385138137417,8.06225774829855,8.0,23.0,14.0,14.142135623730951
459,459,16.0,49.16299421312742,7.0710678118654755,9.219544457292887,14.035668847618199,16.0312195418814,10.04987562112089,42.190046219457976,33.06055050963308,25.0,24.0,28.0,16.0,16.0,6.0,9.0,8.06225774829855,8.06225774829855,8.0,22.0,13.0,17.26267650163207
460,460,18.0,49.16299421312742,6.082762530298219,9.219544457292887,15.033296378372908,16.0312195418814,11.045361017187261,44.181444068749045,35.05709628591621,26.0,25.0,29.0,16.0,17.0,7.0,9.0,8.06225774829855,8.0,8.0,22.0,13.0,17.11724276862369
461,461,19.026297590440446,51.088159097779204,6.0,9.055385138137417,15.033296378372908,16.0312195418814,11.045361017187261,45.09988913511872,36.05551275463989,26.5,25.0,28.0,15.5,18.5,7.5,8.5,8.06225774829855,8.0,8.0,22.0,14.0,18.110770276274835
462,462,17.0,52.08646657242167,7.0710678118654755,10.04987562112089,15.033296378372908,16.0312195418814,10.04987562112089,44.10215414239989,34.058772731852805,25.5,25.0,28.0,16.5,17.5,6.5,8.5,8.246211251235321,8.0,8.0,22.0,15.0,18.110770276274835
463,463,15.0,51.088159097779204,7.0,9.055385138137417,16.0312195418814,16.0,9.055385138137417,40.049968789001575,31.016124838541646,23.5,23.0,26.0,15.5,15.5,5.5,8.5,4.0,4.0,4.0,22.0,15.0,14.142135623730951
464,464,13.038404810405298,51.088159097779204,6.0,9.055385138137417,15.0,15.033296378372908,10.04987562112089,38.118237105091836,29.068883707497267,22.5,22.0,25.0,13.5,14.5,4.5,7.5,3.0,3.1622776601683795,3.0,23.0,17.0,17.029386365926403
465,465,11.0,52.03844732503075,7.0710678118654755,10.04987562112089,15.033296378372908,15.0,10.0,38.05259518088089,28.0178514522438,22.5,23.0,25.0,14.0,14.0,3.0,7.0,3.1622776601683795,3.1622776601683795,3.0,22.0,17.0,16.0312195418814
466,466,10.0,50.039984012787215,6.0,10.04987562112089,14.0,16.0,11.045361017187261,37.05401462729781,27.018512172212592,22.0,23.0,25.0,13.0,13.0,2.0,7.0,5.0990195135927845,5.0990195135927845,5.0,21.0,16.0,16.0312195418814
467,467,12.0,51.088159097779204,6.0,9.055385138137417,15.0,16.0,10.0,37.013511046643494,28.0,22.0,22.0,25.0,13.5,13.5,2.5,7.5,5.0990195135927845,5.0990195135927845,5.0,22.0,16.0,16.0312195418814
468,468,11.0,51.088159097779204,6.0,10.04987562112089,14.0,16.0312195418814,11.0,38.01315561749642,28.0,22.5,23.0,26.0,13.5,13.5,2.5,7.5,5.0990195135927845,6.082762530298219,5.5,22.0,16.0,16.1245154965971
469,469,11.0,51.15662224971465,7.0,10.04987562112089,15.033296378372908,16.0312195418814,10.04987562112089,38.05259518088089,28.0178514522438,22.5,22.0,26.0,14.0,14.0,3.0,7.0,5.0990195135927845,5.0,5.0,23.0,16.0,16.0312195418814
470,470,10.0,49.09175083453431,6.0,11.045361017187261,16.0312195418814,16.0,10.04987562112089,37.05401462729781,26.019223662515376,21.0,22.0,25.0,13.5,13.5,1.5,6.5,6.082762530298219,6.082762530298219,6.0,22.0,15.0,15.132745950421556
471,471,10.0,50.15974481593781,6.0,9.219544457292887,15.0,16.0,10.04987562112089,35.12833614050059,26.019223662515376,21.0,21.0,25.0,13.0,12.0,1.0,7.0,5.0990195135927845,5.0990195135927845,5.0,23.0,15.0,13.152946437965905
472,472,8.0,49.09175083453431,6.0,8.06225774829855,14.035668847618199,15.033296378372908,11.045361017187261,33.06055050963308,25.019992006393608,21.0,21.0,24.0,11.5,10.5,1.5,5.5,6.082762530298219,6.082762530298219,6.0,23.0,14.0,14.142135623730951
473,473,6.0,49.25444142409901,6.082762530298219,9.055385138137417,14.035668847618199,15.033296378372908,10.04987562112089,31.144823004794873,22.090722034374522,19.0,19.0,24.0,11.5,9.5,0.5,4.5,6.324555320336759,6.082762530298219,6.0,24.0,14.0,14.317821063276353
474,474,5.0,47.265209192385896,6.082762530298219,8.06225774829855,14.035668847618199,14.035668847618199,10.04987562112089,29.154759474226502,21.095023109728988,18.5,18.0,23.0,10.5,8.5,0.5,4.5,6.324555320336759,6.082762530298219,6.0,23.0,13.0,14.142135623730951
475,475,5.0,47.265209192385896,6.082762530298219,8.06225774829855,14.035668847618199,14.035668847618199,10.04987562112089,29.154759474226502,21.095023109728988,18.5,18.0,23.0,10.5,8.5,0.5,4.5,6.324555320336759,6.082762530298219,6.0,23.0,13.0,14.142135623730951
476,476,6.082762530298219,47.265209192385896,6.0,8.06225774829855,13.038404810405298,14.035668847618199,10.198039027185569,30.265491900843113,22.20360331117452,19.0,18.0,23.0,10.5,9.5,0.5,4.5,6.324555320336759,7.0710678118654755,6.5,24.0,12.0,14.317821063276353
477,477,6.082762530298219,48.373546489791295,6.0,9.055385138137417,13.152946437965905,14.035668847618199,11.180339887498949,32.2490309931942,23.194827009486403,20.0,19.0,25.0,11.0,10.0,0.0,4.0,6.324555320336759,7.0,6.5,25.0,13.0,17.26267650163207
478,478,7.0710678118654755,48.507731342539614,6.0,9.055385138137417,14.142135623730951,15.132745950421556,11.180339887498949,33.24154027718932,24.186773244895647,20.5,18.0,25.0,10.5,11.5,1.5,3.5,6.324555320336759,6.082762530298219,6.0,25.0,12.0,17.46424919657298
479,479,9.0,46.52956049652737,6.082762530298219,9.219544457292887,14.035668847618199,15.132745950421556,10.198039027185569,34.36568055487916,25.179356624028344,20.5,17.0,24.0,10.5,13.5,2.5,4.5,6.082762530298219,6.082762530298219,6.0,25.0,12.0,16.278820596099706
480,480,8.06225774829855,47.67598976424087,6.082762530298219,11.180339887498949,14.142135623730951,15.132745950421556,11.180339887498949,36.49657518178932,25.317977802344327,21.0,19.0,27.0,12.0,13.0,1.0,5.0,6.324555320336759,6.082762530298219,6.0,26.0,11.0,16.278820596099706
481,481,8.06225774829855,47.67598976424087,6.082762530298219,10.198039027185569,14.317821063276353,15.132745950421556,11.40175425099138,35.6931365951495,25.495097567963924,21.0,18.0,26.0,11.0,13.0,1.0,4.0,6.082762530298219,6.082762530298219,6.0,26.0,11.0,15.524174696260024
482,482,8.06225774829855,47.67598976424087,6.082762530298219,11.180339887498949,14.142135623730951,14.142135623730951,11.40175425099138,36.6742416417845,25.495097567963924,21.0,18.0,26.0,11.0,14.0,2.0,4.0,6.082762530298219,7.280109889280518,7.0,27.0,11.0,16.278820596099706
483,483,7.0710678118654755,47.853944456021594,7.0710678118654755,10.198039027185569,14.317821063276353,14.142135623730951,10.198039027185569,34.52535300326414,24.331050121192877,20.5,17.0,26.0,11.5,12.5,0.5,3.5,7.0710678118654755,7.0710678118654755,6.5,27.0,11.0,15.297058540778355
484,484,7.0,48.662100242385755,7.0710678118654755,10.198039027185569,14.142135623730951,15.297058540778355,11.045361017187261,35.22782990761707,25.079872407968907,21.5,18.0,26.0,11.0,13.0,1.0,4.0,7.280109889280518,6.082762530298219,6.5,27.0,10.0,15.811388300841896
485,485,7.0,48.507731342539614,6.082762530298219,10.198039027185569,14.142135623730951,15.297058540778355,11.180339887498949,34.36568055487916,24.186773244895647,20.5,18.0,25.0,10.5,12.5,0.5,3.5,6.324555320336759,6.082762530298219,6.0,27.0,11.0,16.492422502470642
486,486,7.0,49.49747468305833,6.082762530298219,10.198039027185569,14.142135623730951,15.132745950421556,11.045361017187261,34.23448553724738,24.08318915758459,20.5,18.0,25.0,10.5,12.5,0.5,3.5,6.324555320336759,7.0710678118654755,7.0,26.0,11.0,15.524174696260024
487,487,7.0710678118654755,49.49747468305833,6.0,10.198039027185569,14.142135623730951,15.132745950421556,10.198039027185569,33.37663853655727,23.194827009486403,19.5,17.0,24.0,10.5,12.5,1.5,3.5,7.0710678118654755,6.082762530298219,6.5,27.0,12.0,17.46424919657298
488,488,6.0,49.49747468305833,6.082762530298219,10.198039027185569,15.132745950421556,15.132745950421556,12.165525060596439,34.36568055487916,24.186773244895647,21.0,18.0,25.0,9.5,12.5,1.5,3.5,7.280109889280518,7.0710678118654755,6.5,26.0,12.0,17.46424919657298
489,489,6.082762530298219,50.48762224545735,6.0,9.219544457292887,14.142135623730951,15.033296378372908,11.180339887498949,32.38826948140329,23.194827009486403,20.0,17.0,24.0,9.5,11.5,0.5,2.5,7.0710678118654755,6.082762530298219,6.0,26.0,11.0,16.1245154965971
490,490,6.082762530298219,47.51841748206689,6.082762530298219,10.04987562112089,14.035668847618199,14.142135623730951,12.041594578792296,34.23448553724738,24.186773244895647,21.0,18.0,25.0,9.5,12.5,1.5,3.5,6.082762530298219,6.082762530298219,6.0,26.0,12.0,13.341664064126334
491,491,7.0710678118654755,45.5411901469428,6.0,10.04987562112089,14.142135623730951,14.142135623730951,10.198039027185569,33.24154027718932,23.194827009486403,19.5,17.0,24.0,10.5,12.5,0.5,3.5,6.324555320336759,7.0710678118654755,6.5,26.0,12.0,14.560219778561036
492,492,6.082762530298219,43.73785545725808,7.0,11.045361017187261,12.165525060596439,14.142135623730951,9.219544457292887,33.24154027718932,22.20360331117452,19.0,17.0,25.0,12.0,12.0,0.0,4.0,6.082762530298219,7.0710678118654755,7.0,27.0,13.0,14.317821063276353
493,493,7.0,42.579337712087536,7.0,10.198039027185569,12.041594578792296,14.142135623730951,9.219544457292887,33.24154027718932,23.08679276123039,19.5,18.0,25.0,12.5,11.5,0.5,5.5,7.280109889280518,7.0710678118654755,6.5,27.0,13.0,17.26267650163207
494,494,7.0,42.579337712087536,7.0,10.198039027185569,12.041594578792296,14.142135623730951,9.219544457292887,33.24154027718932,23.08679276123039,19.5,18.0,25.0,12.5,11.5,0.5,5.5,7.280109889280518,7.0710678118654755,6.5,27.0,13.0,17.26267650163207
495,495,5.0,40.607881008493905,8.0,11.180339887498949,12.041594578792296,13.152946437965905,9.219544457292887,33.24154027718932,22.090722034374522,19.5,19.0,26.0,13.5,10.5,1.5,5.5,7.0710678118654755,7.0710678118654755,7.0,26.0,13.0,15.297058540778355
496,496,4.123105625617661,41.43669871020132,7.0,10.04987562112089,12.165525060596439,12.041594578792296,10.04987562112089,31.144823004794873,21.095023109728988,19.0,18.0,24.0,11.0,10.0,2.0,3.0,7.0710678118654755,7.0710678118654755,7.0,25.0,13.0,14.317821063276353
497,497,3.0,41.30375285612676,8.0,11.180339887498949,12.041594578792296,13.152946437965905,9.055385138137417,31.144823004794873,20.024984394500787,18.5,18.0,23.0,11.5,10.5,1.5,3.5,7.0710678118654755,7.0710678118654755,7.5,24.0,14.0,14.317821063276353
498,498,7.0,40.44749683231337,7.0710678118654755,10.198039027185569,11.180339887498949,13.152946437965905,11.045361017187261,35.22782990761707,25.079872407968907,21.5,20.0,26.0,12.0,12.0,0.0,4.0,7.0710678118654755,8.0,8.0,24.0,14.0,16.278820596099706
499,499,10.0,39.11521443121589,8.0,11.045361017187261,12.041594578792296,13.038404810405298,10.198039027185569,39.11521443121589,28.071337695236398,23.0,23.0,26.0,14.5,14.5,2.5,6.5,8.06225774829855,8.0,8.0,23.0,15.0,16.1245154965971
500,500,12.0,41.10960958218893,8.06225774829855,11.045361017187261,13.038404810405298,14.0,9.055385138137417,40.11234224026316,29.068883707497267,23.0,23.0,26.0,15.5,15.5,3.5,7.5,8.06225774829855,8.0,8.0,22.0,16.0,15.033296378372908
501,501,12.0,42.04759208325728,7.0,11.045361017187261,13.0,14.0,9.055385138137417,39.05124837953327,28.0178514522438,22.0,23.0,25.0,15.0,15.0,3.0,8.0,8.06225774829855,8.06225774829855,8.5,23.0,17.0,15.033296378372908
502,502,10.0,45.0,7.0,11.0,14.0,15.0,10.0,38.0,27.0,22.0,24.0,24.0,14.0,14.0,2.0,7.0,9.0,7.0710678118654755,7.5,22.0,18.0,14.035668847618199
503,503,12.0,45.0,7.0,10.0,14.0,15.0,10.0,39.0,29.0,23.0,24.0,24.0,14.0,15.0,4.0,7.0,9.0,8.06225774829855,8.5,20.0,18.0,16.0
504,504,14.0,50.039984012787215,8.0,11.0,15.0,17.0,11.045361017187261,44.01136216933077,33.015148038438355,26.0,28.0,26.0,16.0,17.0,5.0,8.0,8.06225774829855,8.0,8.0,20.0,19.0,18.0
505,505,13.0,51.0,8.0,11.0,16.0,17.029386365926403,9.0,41.0,30.0,23.5,25.0,25.0,16.0,16.0,5.0,8.0,9.0,8.06225774829855,8.0,20.0,20.0,17.029386365926403
506,506,9.0,51.0098029794274,7.0,10.0,15.0,16.0,9.055385138137417,35.014282800023196,25.019992006393608,20.5,23.0,22.0,13.5,12.5,1.5,6.5,9.0,8.06225774829855,8.5,19.0,19.0,15.033296378372908
507,507,9.055385138137417,51.03920062069938,6.0,9.0,14.0,16.0312195418814,9.0,33.015148038438355,24.020824298928627,19.5,23.0,21.0,13.0,11.0,1.0,7.0,9.0,8.06225774829855,8.5,19.0,19.0,15.0
508,508,8.06225774829855,53.03772242470448,7.0,9.0,15.033296378372908,16.0312195418814,10.0,34.0147027033899,25.019992006393608,21.0,24.0,22.0,13.0,11.0,1.0,7.0,9.055385138137417,8.06225774829855,8.0,19.0,20.0,18.027756377319946
509,509,8.06225774829855,52.08646657242167,6.0,9.0,15.0,16.0,10.0,33.015148038438355,24.020824298928627,20.0,24.0,21.0,12.5,10.5,0.5,6.5,9.0,8.0,8.0,18.0,20.0,18.027756377319946
510,510,7.0,52.03844732503075,6.0,10.04987562112089,15.033296378372908,16.0,10.0,33.015148038438355,23.0,19.5,23.0,21.0,12.0,11.0,1.0,7.0,9.0,8.06225774829855,8.0,18.0,19.0,16.0312195418814
511,511,9.0,52.03844732503075,7.0,9.0,15.033296378372908,16.0312195418814,9.0,34.0,25.0,20.5,23.0,21.0,13.0,12.0,2.0,7.0,9.0,8.06225774829855,8.0,18.0,19.0,16.0
512,512,10.0,51.0098029794274,7.0,11.0,15.033296378372908,16.0312195418814,10.0,38.0,27.0,22.0,25.0,24.0,14.5,13.5,1.5,8.5,9.0,9.055385138137417,9.0,19.0,19.0,16.0
513,513,10.0,51.03920062069938,7.0710678118654755,11.0,15.033296378372908,16.0312195418814,9.0,37.013511046643494,26.019223662515376,21.0,24.0,22.0,14.0,14.0,2.0,8.0,9.0,9.0,9.0,19.0,20.0,16.0
514,514,14.035668847618199,51.0,7.0710678118654755,11.0,15.0,17.029386365926403,11.0,43.0,32.0,25.0,26.0,26.0,15.0,17.0,5.0,8.0,8.0,8.06225774829855,8.0,20.0,20.0,16.0312195418814
515,515,17.0,50.00999900019995,7.0,11.0,15.0,16.0,10.0,45.0,34.0,25.5,27.0,26.0,16.5,18.5,6.5,9.5,9.055385138137417,9.055385138137417,9.0,19.0,19.0,17.0
516,516,17.0,51.0098029794274,7.0,11.0,16.0312195418814,17.0,11.0,46.0,35.0,26.5,26.0,27.0,15.5,19.5,7.5,8.5,7.0710678118654755,6.082762530298219,6.5,20.0,18.0,17.0
517,517,17.029386365926403,52.009614495783374,7.0,11.0,15.0,17.0,10.0,45.0111097397076,34.0147027033899,25.5,26.0,27.0,16.5,18.5,6.5,9.5,6.0,6.0,5.5,20.0,18.0,18.0
518,518,13.0,53.009433122794285,7.0,11.045361017187261,16.0,17.0,10.0,41.012193308819754,30.0,23.5,24.0,25.0,14.5,16.5,4.5,7.5,5.0990195135927845,6.0,6.0,19.0,16.0,16.0312195418814
519,519,11.0,51.03920062069938,6.0,11.045361017187261,16.0312195418814,17.0,10.04987562112089,38.05259518088089,27.018512172212592,21.5,22.0,24.0,13.0,15.0,3.0,7.0,7.0,6.0,6.5,20.0,16.0,15.033296378372908
520,520,10.0,51.03920062069938,6.082762530298219,10.0,15.033296378372908,16.0312195418814,9.0,35.014282800023196,25.019992006393608,20.0,21.0,23.0,13.0,13.0,2.0,6.0,8.06225774829855,7.0,7.5,20.0,15.0,14.035668847618199
521,521,10.0,52.08646657242167,6.082762530298219,10.04987562112089,15.0,15.033296378372908,10.0,36.05551275463989,26.019223662515376,21.0,21.0,24.0,12.5,13.5,1.5,6.5,8.06225774829855,8.0,8.0,23.0,17.0,17.029386365926403
522,522,8.06225774829855,51.15662224971465,6.0,11.045361017187261,14.035668847618199,15.033296378372908,11.045361017187261,36.124783736376884,25.079872407968907,21.0,21.0,25.0,12.0,13.0,1.0,6.0,8.06225774829855,8.0,8.0,22.0,15.0,17.029386365926403
523,523,9.055385138137417,50.15974481593781,6.0,10.04987562112089,14.142135623730951,15.033296378372908,10.04987562112089,35.12833614050059,25.079872407968907,20.5,20.0,24.0,12.0,13.0,1.0,5.0,8.06225774829855,8.0,8.0,22.0,13.0,14.317821063276353
524,524,8.0,51.24451190127583,6.0,11.180339887498949,15.132745950421556,16.0312195418814,10.04987562112089,35.12833614050059,24.020824298928627,20.0,19.0,24.0,11.5,13.5,1.5,4.5,8.06225774829855,8.0,8.0,22.0,12.0,13.341664064126334
525,525,8.0,51.35172830587107,6.082762530298219,10.198039027185569,14.035668847618199,15.132745950421556,11.045361017187261,35.22782990761707,25.079872407968907,21.0,19.0,25.0,11.0,13.0,1.0,5.0,8.06225774829855,8.06225774829855,8.0,24.0,14.0,18.24828759089466
526,526,8.0,50.35871324805669,6.082762530298219,10.198039027185569,15.033296378372908,15.033296378372908,11.045361017187261,35.22782990761707,25.079872407968907,21.0,19.0,25.0,11.0,13.0,2.0,5.0,8.06225774829855,8.0,8.0,25.0,14.0,18.24828759089466
527,527,7.0,51.35172830587107,6.082762530298219,10.198039027185569,14.035668847618199,16.0312195418814,11.045361017187261,34.23448553724738,24.08318915758459,20.5,19.0,25.0,11.0,12.0,0.0,5.0,9.219544457292887,8.0,8.5,23.0,12.0,13.341664064126334
528,528,8.0,50.24937810560445,7.0710678118654755,10.04987562112089,14.142135623730951,15.132745950421556,11.045361017187261,36.124783736376884,26.076809620810597,22.0,20.0,25.0,11.5,13.5,1.5,4.5,8.246211251235321,9.055385138137417,8.5,24.0,13.0,14.317821063276353
529,529,7.0710678118654755,50.35871324805669,6.0,10.04987562112089,15.033296378372908,15.033296378372908,12.165525060596439,35.22782990761707,25.179356624028344,21.5,19.0,25.0,10.0,13.0,1.0,4.0,9.055385138137417,8.0,8.0,24.0,13.0,14.317821063276353
530,530,7.0710678118654755,50.35871324805669,6.0,10.04987562112089,14.035668847618199,15.132745950421556,11.045361017187261,34.132096331752024,24.08318915758459,20.5,18.0,24.0,10.0,13.0,1.0,4.0,8.246211251235321,8.06225774829855,8.0,24.0,13.0,14.317821063276353
531,531,6.0,49.25444142409901,7.0710678118654755,9.055385138137417,13.038404810405298,14.035668847618199,11.045361017187261,33.13608305156178,24.08318915758459,21.0,18.0,23.0,9.5,12.5,1.5,2.5,9.219544457292887,7.0,7.5,24.0,13.0,14.317821063276353
532,532,6.0,49.25444142409901,7.0710678118654755,9.055385138137417,13.038404810405298,14.035668847618199,11.045361017187261,33.13608305156178,24.08318915758459,21.0,18.0,23.0,9.5,12.5,1.5,2.5,9.219544457292887,7.0,7.5,24.0,13.0,14.317821063276353
533,533,3.0,50.24937810560445,7.0,9.219544457292887,14.035668847618199,15.033296378372908,12.165525060596439,31.25699921617557,22.090722034374522,20.5,18.0,23.0,8.5,10.5,0.5,1.5,9.219544457292887,8.0,8.5,24.0,14.0,15.132745950421556
534,534,2.0,50.24937810560445,7.0,9.055385138137417,14.035668847618199,14.035668847618199,13.152946437965905,31.144823004794873,22.090722034374522,21.0,19.0,24.0,8.5,9.5,0.5,1.5,9.055385138137417,8.0,8.0,23.0,13.0,13.341664064126334
535,535,1.0,49.25444142409901,7.0,9.219544457292887,13.038404810405298,13.038404810405298,13.152946437965905,30.265491900843113,21.095023109728988,20.5,18.0,23.0,7.5,9.5,0.5,0.5,9.219544457292887,9.0,9.0,25.0,14.0,14.142135623730951
536,536,2.0,50.24937810560445,7.0710678118654755,8.06225774829855,13.038404810405298,14.035668847618199,12.041594578792296,29.154759474226502,21.095023109728988,20.0,18.0,23.0,8.5,8.5,1.5,1.5,8.06225774829855,8.0,8.5,24.0,14.0,14.142135623730951
537,537,1.0,49.16299421312742,7.0,9.055385138137417,13.038404810405298,14.035668847618199,13.152946437965905,30.14962686336267,21.095023109728988,20.5,19.0,23.0,8.0,9.0,1.0,1.0,9.219544457292887,9.0,9.0,23.0,14.0,13.038404810405298
538,538,3.0,49.16299421312742,7.0,9.055385138137417,13.0,14.0,12.165525060596439,31.144823004794873,22.090722034374522,20.5,19.0,23.0,9.0,10.0,1.0,2.0,9.219544457292887,9.0,8.5,24.0,15.0,13.038404810405298
539,539,3.0,49.09175083453431,8.0,10.04987562112089,13.038404810405298,14.0,11.045361017187261,32.0624390837628,22.02271554554524,20.5,19.0,22.0,9.5,11.5,0.5,1.5,9.055385138137417,8.0,8.5,22.0,15.0,14.142135623730951
