,frame_seq,m1,m3,m4,m5,m6,m7,m8,m9,m10,m11,m12,m13,m14,m15,m16,m17,e1,e2,e3,b1,b2,b3
0,0,38.05259518088089,123.3288287465668,11.045361017187261,23.08679276123039,34.132096331752024,37.05401462729781,27.073972741361768,99.24716620639605,76.16429609731846,57.0,39.0,48.0,16.5,55.5,28.5,5.5,7.280109889280518,7.280109889280518,7.0,58.0,40.0,50.48762224545735
1,1,39.05124837953327,122.2620137246234,12.041594578792296,24.08318915758459,33.06055050963308,36.05551275463989,27.073972741361768,102.23991392797629,78.16009211867653,58.5,41.0,49.0,18.0,57.0,30.0,7.0,7.280109889280518,7.280109889280518,7.0,59.0,40.0,47.38143096192854
2,2,29.017236257093817,119.15116449284078,12.041594578792296,25.079872407968907,33.015148038438355,36.013886210738214,30.01666203960727,96.13012014972206,71.06335201775947,56.5,43.0,49.0,16.0,50.0,22.0,5.0,7.280109889280518,7.280109889280518,7.0,59.0,40.0,47.67598976424087
3,3,16.0312195418814,105.23307464861035,13.038404810405298,28.160255680657446,25.019992006393608,30.01666203960727,32.0624390837628,89.27485648266257,61.1310068623117,53.0,43.0,50.0,14.5,42.5,12.5,2.5,7.0710678118654755,6.708203932499369,6.0,58.0,38.0,52.61178575186362
4,4,10.04987562112089,96.13012014972206,14.035668847618199,25.179356624028344,24.020824298928627,27.0,35.014282800023196,84.2140130857092,59.07622195096772,54.0,47.0,52.0,14.5,34.5,8.5,1.5,6.082762530298219,5.385164807134504,5.0,61.0,40.0,51.78802950489621
5,5,2.8284271247461903,103.12128781197411,16.0312195418814,24.08318915758459,27.073972741361768,29.017236257093817,35.014282800023196,77.23341245859851,53.150729063673246,52.0,49.0,54.0,16.5,25.5,1.5,1.5,5.0,6.324555320336759,5.5,59.0,41.0,44.14748010928823
6,6,13.152946437965905,106.1178590059185,14.142135623730951,23.021728866442675,28.0178514522438,30.066592756745816,33.0,83.15046602394962,60.13318551349163,53.5,52.0,57.0,21.5,28.5,2.5,7.5,4.123105625617661,5.385164807134504,5.0,59.0,42.0,49.03060268852505
7,7,34.058772731852805,115.52488909321661,12.041594578792296,24.186773244895647,31.144823004794873,35.12833614050059,32.0,102.17631819555841,78.05767098754612,61.0,50.0,61.0,23.5,46.5,19.5,10.5,7.0,7.280109889280518,6.5,62.0,44.0,50.635955604688654
8,8,41.048751503547585,121.69634341261039,14.035668847618199,26.076809620810597,34.132096331752024,39.11521443121589,29.017236257093817,110.07270324653611,84.02380615040002,63.5,49.0,62.0,26.5,54.5,24.5,11.5,7.0710678118654755,7.0710678118654755,6.5,61.0,44.0,52.61178575186362
9,9,37.013511046643494,124.57929201917949,14.142135623730951,26.1725046566048,35.22782990761707,39.11521443121589,28.0178514522438,105.11898020814318,79.02531240052139,60.5,47.0,59.0,25.0,52.0,22.0,10.0,6.0,6.082762530298219,5.5,61.0,44.0,51.97114584074513
10,10,39.05124837953327,124.57929201917949,12.041594578792296,25.079872407968907,35.22782990761707,40.11234224026316,29.017236257093817,105.07616285342742,80.02499609497022,60.5,47.0,59.0,24.0,52.0,23.0,11.0,6.0,7.0710678118654755,6.5,60.0,43.0,49.64876634922564
11,11,39.01281840626232,123.68508398347798,13.152946437965905,26.076809620810597,35.12833614050059,38.2099463490856,28.0,106.1178590059185,80.05623023850174,60.5,47.0,60.0,25.5,52.5,22.5,11.5,7.0,6.082762530298219,5.5,61.0,43.0,51.78802950489621
12,12,40.049968789001575,121.59358535712317,14.035668847618199,26.076809620810597,35.12833614050059,39.11521443121589,26.019223662515376,106.16967551989597,80.09993757800315,60.0,49.0,61.0,29.0,51.0,21.0,14.0,5.0,6.324555320336759,5.5,62.0,43.0,52.773099207835045
13,13,33.06055050963308,116.52038448271615,15.033296378372908,22.090722034374522,32.2490309931942,35.12833614050059,26.076809620810597,96.25487000666512,74.16872656315464,57.5,53.0,64.0,32.5,37.5,12.5,16.5,6.082762530298219,7.615773105863909,6.5,60.0,44.0,45.70557952810576
14,14,32.0624390837628,114.6298390472568,15.033296378372908,22.090722034374522,33.13608305156178,36.124783736376884,25.079872407968907,94.26027795418386,72.17340230306452,56.0,51.0,63.0,32.0,37.0,12.0,16.0,8.0,7.615773105863909,7.0,60.0,44.0,47.67598976424087
15,15,32.0624390837628,114.5294721894762,16.0312195418814,24.08318915758459,32.14031735997639,36.124783736376884,25.079872407968907,97.25224933131366,73.17103251970687,57.0,53.0,64.0,33.5,38.5,11.5,16.5,7.0710678118654755,8.54400374531753,7.5,59.0,40.0,47.51841748206689
16,16,34.0147027033899,116.43023662262307,14.035668847618199,22.090722034374522,33.06055050963308,36.05551275463989,28.0178514522438,98.12746812182611,76.05918747922567,59.0,52.0,62.0,29.0,41.0,16.0,15.0,8.0,8.54400374531753,8.0,59.0,39.0,50.635955604688654
17,17,36.013886210738214,115.43396380615195,13.152946437965905,24.08318915758459,33.13608305156178,37.05401462729781,30.0,103.12128781197411,79.05694150420949,61.0,52.0,62.0,27.0,46.0,18.0,13.0,12.041594578792296,11.180339887498949,11.0,58.0,36.0,56.71860364994893
18,18,19.1049731745428,114.35471131527551,14.035668847618199,20.09975124224178,28.071337695236398,31.064449134018133,31.016124838541646,84.2140130857092,64.1248781675256,54.5,49.0,58.0,22.5,30.5,7.5,8.5,16.1245154965971,14.035668847618199,14.0,63.0,40.0,52.773099207835045
19,19,16.0312195418814,110.2905254316979,13.038404810405298,20.09975124224178,29.017236257093817,31.016124838541646,32.0624390837628,81.2219182240853,61.1310068623117,53.0,47.0,55.0,19.0,30.0,7.0,6.0,18.110770276274835,15.132745950421556,15.5,63.0,38.0,54.91812087098393
20,20,18.0,114.28035701729323,13.038404810405298,20.09975124224178,29.017236257093817,32.01562118716424,31.064449134018133,82.15229759416349,62.07253821135398,53.0,47.0,55.0,20.0,31.0,8.0,7.0,17.26267650163207,16.1245154965971,16.0,62.0,39.0,52.952809179494906
21,21,20.09975124224178,110.54863183232979,14.035668847618199,25.079872407968907,27.073972741361768,31.144823004794873,28.071337695236398,87.28115489611719,62.20128616033595,52.0,42.0,53.0,19.5,39.5,11.5,5.5,17.11724276862369,16.1245154965971,16.0,62.0,37.0,54.12947441089743
22,22,34.058772731852805,119.60351165413162,14.142135623730951,25.079872407968907,30.14962686336267,35.12833614050059,27.018512172212592,100.24470060806208,75.16648189186454,58.0,43.0,55.0,22.0,51.0,23.0,7.0,16.1245154965971,15.033296378372908,15.0,62.0,37.0,55.90169943749474
23,23,36.05551275463989,124.78781991845197,14.142135623730951,25.079872407968907,33.24154027718932,38.118237105091836,26.076809620810597,101.31633629380802,76.23647421018367,58.0,41.0,55.0,22.0,53.0,25.0,7.0,16.278820596099706,15.033296378372908,15.0,62.0,38.0,53.75872022286245
24,24,37.05401462729781,125.67418191498204,14.035668847618199,25.179356624028344,35.12833614050059,39.20459156782532,26.076809620810597,102.3132444994293,77.1621668954417,58.5,41.0,54.0,21.5,54.5,25.5,7.5,17.11724276862369,15.033296378372908,15.0,63.0,36.0,56.88585061331157
25,25,37.05401462729781,122.6906679417795,14.035668847618199,25.179356624028344,34.132096331752024,38.118237105091836,26.1725046566048,102.39628899525607,77.23341245859851,58.5,41.0,54.0,21.5,54.5,25.5,7.5,17.26267650163207,16.0,16.0,64.0,37.0,56.089214649520635
26,26,37.013511046643494,125.78155667664477,13.152946437965905,26.1725046566048,36.124783736376884,40.19950248448356,26.0,102.17631819555841,76.05918747922567,57.5,39.0,53.0,20.0,56.0,26.0,7.0,17.26267650163207,15.0,15.0,63.0,37.0,54.91812087098393
27,27,39.05124837953327,117.72000679578642,12.041594578792296,25.179356624028344,30.14962686336267,35.05709628591621,27.018512172212592,103.23759005323593,78.10249675906654,58.5,41.0,54.0,20.5,55.5,26.5,8.5,16.278820596099706,15.033296378372908,15.0,63.0,36.0,53.9351462406472
28,28,31.064449134018133,107.46627377926528,12.041594578792296,26.1725046566048,27.073972741361768,31.064449134018133,30.0,99.18165152889924,73.06161783043132,57.5,46.0,56.0,21.0,48.0,19.0,9.0,16.278820596099706,15.033296378372908,15.0,65.0,38.0,53.75872022286245
29,29,13.038404810405298,105.57461816175325,15.132745950421556,31.144823004794873,27.16615541441225,31.144823004794873,33.13608305156178,92.43916918709297,61.29437168288782,54.5,45.0,56.0,17.5,41.5,7.5,1.5,18.24828759089466,17.029386365926403,17.0,66.0,36.0,57.0701322935211
30,30,9.055385138137417,97.62171889492625,16.1245154965971,28.160255680657446,26.076809620810597,29.068883707497267,37.05401462729781,90.35485598461214,62.20128616033595,57.5,47.0,58.0,15.5,37.5,6.5,0.5,19.4164878389476,17.029386365926403,17.5,68.0,38.0,56.88585061331157
31,31,11.0,104.58011283222064,18.027756377319946,28.160255680657446,26.076809620810597,30.14962686336267,32.0624390837628,89.20201791439474,61.07372593840988,55.5,46.0,57.0,19.5,37.5,6.5,1.5,18.439088914585774,17.11724276862369,17.0,65.0,38.0,54.91812087098393
32,32,8.06225774829855,100.60318086422517,15.132745950421556,26.1725046566048,26.076809620810597,30.066592756745816,37.0,86.20904824900923,60.07495318350236,56.0,44.0,55.0,12.5,36.5,7.5,1.5,18.439088914585774,16.0312195418814,16.5,65.0,37.0,53.75872022286245
33,33,7.0710678118654755,102.48902380255166,15.033296378372908,27.16615541441225,26.076809620810597,29.154759474226502,36.013886210738214,85.21150157109074,58.077534382926416,54.5,43.0,53.0,12.0,37.0,7.0,3.0,19.4164878389476,17.029386365926403,17.0,64.0,36.0,52.952809179494906
34,34,2.8284271247461903,103.4842983258813,14.035668847618199,26.1725046566048,27.16615541441225,29.068883707497267,35.014282800023196,77.31752712031083,51.15662224971465,50.0,41.0,51.0,11.0,31.0,2.0,3.0,17.72004514666935,16.1245154965971,16.0,63.0,37.0,55.10898293381942
35,35,10.198039027185569,107.67079455451233,14.035668847618199,23.194827009486403,26.1725046566048,29.154759474226502,31.064449134018133,78.40918313565064,55.226805085936306,50.0,37.0,49.0,12.0,35.0,8.0,2.0,17.46424919657298,14.142135623730951,14.5,61.0,35.0,54.12947441089743
36,36,19.1049731745428,110.76551810017412,13.152946437965905,25.179356624028344,27.16615541441225,29.274562336608895,29.017236257093817,86.37129152675674,61.204574992397426,51.5,37.0,50.0,14.5,42.5,13.5,1.5,17.46424919657298,16.1245154965971,16.0,64.0,34.0,53.150729063673246
37,37,30.066592756745816,119.82069938036582,13.152946437965905,26.30589287593181,30.265491900843113,33.13608305156178,28.0,97.32933781753577,71.11258679024411,56.0,37.0,51.0,16.0,53.0,23.0,2.0,17.46424919657298,16.1245154965971,16.0,68.0,35.0,54.57105459856901
38,38,42.1070065428546,126.43575443678897,14.142135623730951,25.317977802344327,32.38826948140329,36.345563690772494,27.018512172212592,108.46197490364999,83.21658488546619,62.0,34.0,53.0,16.5,64.5,34.5,1.5,18.439088914585774,16.0312195418814,16.0,69.0,34.0,56.753854494650845
39,39,44.04543109109048,129.55307792561317,13.341664064126334,24.331050121192877,33.37663853655727,38.3275357934736,27.018512172212592,108.46197490364999,84.2140130857092,62.0,34.0,54.0,17.0,64.0,34.0,3.0,18.681541692269406,16.0312195418814,16.5,69.0,33.0,56.753854494650845
40,40,42.04759208325728,133.5065541462291,13.152946437965905,25.317977802344327,34.36568055487916,38.3275357934736,27.018512172212592,107.37783756436893,82.15229759416349,61.0,32.0,52.0,15.0,65.0,35.0,2.0,18.681541692269406,16.0312195418814,16.0,69.0,34.0,58.463663928973865
41,41,35.05709628591621,127.57742747053649,14.317821063276353,26.476404589747453,34.36568055487916,38.3275357934736,25.019992006393608,100.60318086422517,74.24284477308234,56.5,32.0,52.0,17.0,58.0,27.0,2.0,18.439088914585774,17.11724276862369,17.0,69.0,33.0,55.78530272392541
42,42,37.12142238654117,127.27922061357856,13.152946437965905,25.317977802344327,34.23448553724738,38.3275357934736,26.019223662515376,101.49384217774002,76.23647421018367,57.5,33.0,51.0,16.0,59.0,29.0,3.0,17.46424919657298,16.0312195418814,16.5,69.0,32.0,57.723478758647246
43,43,28.160255680657446,123.17873193047572,20.09975124224178,29.154759474226502,32.38826948140329,36.22154055254967,21.095023109728988,98.50888284819801,69.35416353759881,55.0,36.0,53.0,23.5,53.5,19.5,2.5,18.439088914585774,18.24828759089466,18.0,73.0,38.0,62.0966987850401
44,44,3.1622776601683795,104.93807697875924,19.026297590440446,27.16615541441225,27.294688127912362,30.265491900843113,29.427877939124322,78.63841300535,51.478150704935004,49.5,40.0,54.0,18.0,31.0,0.0,2.0,19.6468827043885,18.110770276274835,18.5,71.0,40.0,64.13267497929586
45,45,2.23606797749979,102.82509421342633,14.142135623730951,22.090722034374522,25.317977802344327,28.160255680657446,35.014282800023196,73.24616030891995,51.15662224971465,50.0,38.0,51.0,9.5,28.5,2.5,5.5,19.4164878389476,17.11724276862369,17.5,73.0,41.0,65.5133574166368
46,46,3.0,105.80170130957252,14.142135623730951,21.213203435596427,26.1725046566048,28.160255680657446,36.013886210738214,74.24284477308234,53.08483775994799,51.5,39.0,52.0,9.5,28.5,2.5,4.5,17.46424919657298,16.1245154965971,16.5,71.0,40.0,64.53681120105021
47,47,18.027756377319946,109.89540481748998,14.142135623730951,26.076809620810597,26.30589287593181,30.265491900843113,32.14031735997639,90.35485598461214,64.28063471995279,55.0,40.0,54.0,15.0,43.0,13.0,0.0,16.278820596099706,16.1245154965971,16.0,71.0,40.0,63.34824385884742
48,48,31.016124838541646,115.84903970253703,14.142135623730951,26.1725046566048,30.265491900843113,34.23448553724738,27.018512172212592,98.2496819333274,72.11102550927978,56.5,38.0,52.0,18.0,53.0,23.0,4.0,16.278820596099706,16.0312195418814,16.0,69.0,40.0,65.11528238439882
49,49,33.015148038438355,117.72000679578642,12.165525060596439,26.30589287593181,33.24154027718932,36.124783736376884,25.0,96.25487000666512,70.06425622241343,53.5,39.0,52.0,20.5,50.5,20.5,7.5,17.46424919657298,16.0312195418814,15.5,68.0,41.0,67.08203932499369
50,50,38.01315561749642,121.69634341261039,11.180339887498949,27.16615541441225,32.14031735997639,36.124783736376884,25.019992006393608,101.24228365658294,74.10802925459562,55.0,38.0,51.0,19.5,56.5,24.5,7.5,16.278820596099706,15.132745950421556,15.0,68.0,39.0,65.30696746902278
51,51,36.05551275463989,118.71394189394942,13.152946437965905,26.1725046566048,32.2490309931942,36.124783736376884,25.0,100.24470060806208,74.10802925459562,56.0,39.0,52.0,20.5,54.5,24.5,6.5,16.278820596099706,15.132745950421556,15.5,68.0,41.0,64.32728814430156
52,52,36.05551275463989,124.90396310766124,13.152946437965905,26.30589287593181,33.24154027718932,37.12142238654117,25.0,100.31948963187563,74.10802925459562,56.0,36.0,51.0,18.5,56.5,26.5,5.5,17.26267650163207,16.0312195418814,16.5,69.0,41.0,66.2872536767062
53,53,49.09175083453431,131.85598204101322,14.142135623730951,27.16615541441225,35.22782990761707,40.11234224026316,25.0,115.27792503337315,88.14193099768123,63.5,37.0,52.0,19.5,70.5,37.5,4.5,16.278820596099706,15.033296378372908,15.5,71.0,41.0,62.16912416947821
54,54,51.15662224971465,134.8369385591352,13.152946437965905,27.073972741361768,34.23448553724738,39.11521443121589,26.019223662515376,117.34564329364768,90.27181176868004,64.5,34.0,49.0,15.5,75.5,43.5,2.5,17.26267650163207,16.1245154965971,16.0,72.0,43.0,63.150613615387776
55,55,42.1070065428546,131.54847015454038,12.165525060596439,25.317977802344327,35.12833614050059,38.118237105091836,27.0,106.38138934982942,81.15417426109393,60.0,35.0,47.0,14.0,65.0,36.0,2.0,18.24828759089466,16.0312195418814,15.5,69.0,40.0,64.32728814430156
56,56,27.018512172212592,126.4792473095883,19.1049731745428,30.14962686336267,31.064449134018133,36.05551275463989,23.021728866442675,99.24716620639605,69.1158447825099,55.5,38.0,49.0,20.5,55.5,21.5,1.5,18.439088914585774,16.0312195418814,16.0,71.0,40.0,61.61168720299745
57,57,19.026297590440446,117.51595636338071,16.1245154965971,28.160255680657446,29.154759474226502,32.0624390837628,26.019223662515376,89.27485648266257,61.1310068623117,51.5,37.0,48.0,16.5,46.5,15.5,0.5,18.439088914585774,16.1245154965971,16.0,71.0,41.0,62.16912416947821
58,58,2.23606797749979,111.36426715962351,15.132745950421556,24.186773244895647,26.076809620810597,29.154759474226502,33.06055050963308,74.43117626371358,50.24937810560445,49.0,38.0,47.0,9.5,31.5,4.5,5.5,18.439088914585774,17.11724276862369,17.0,68.0,39.0,61.39218191268331
59,59,1.4142135623730951,108.55873986004075,14.142135623730951,23.194827009486403,26.1725046566048,28.160255680657446,35.014282800023196,73.33484846919642,50.15974481593781,49.5,35.0,46.0,5.5,32.5,6.5,8.5,18.439088914585774,16.1245154965971,16.5,69.0,39.0,60.01666435249463
60,60,2.23606797749979,107.46627377926528,13.038404810405298,21.213203435596427,27.16615541441225,29.154759474226502,37.013511046643494,70.34912934784623,49.16299421312742,49.5,35.0,45.0,3.0,30.0,6.0,9.0,17.72004514666935,16.0312195418814,16.0,69.0,38.0,65.30696746902278
61,61,2.23606797749979,109.65856099730654,12.165525060596439,18.24828759089466,25.317977802344327,27.294688127912362,35.12833614050059,67.60177512462228,49.36598018878993,48.0,33.0,45.0,4.0,28.0,6.0,9.0,19.6468827043885,17.11724276862369,17.0,70.0,37.0,64.13267497929586
62,62,2.23606797749979,110.65260954898443,13.152946437965905,23.194827009486403,28.160255680657446,29.154759474226502,33.015148038438355,71.34423592694787,48.16637831516918,47.0,31.0,43.0,4.0,34.0,8.0,9.0,18.681541692269406,17.029386365926403,17.0,69.0,36.0,63.953107821277925
63,63,26.076809620810597,123.9112585683803,12.165525060596439,27.16615541441225,30.265491900843113,34.132096331752024,30.14962686336267,95.524865872714,68.3593446428504,55.0,27.0,42.0,4.5,60.5,29.5,7.5,18.681541692269406,18.027756377319946,18.0,71.0,39.0,63.150613615387776
64,64,34.132096331752024,126.28935030318273,12.165525060596439,25.179356624028344,32.55764119219941,36.345563690772494,26.1725046566048,97.62171889492625,72.44308110509934,55.0,23.0,41.0,6.0,65.0,34.0,7.0,17.46424919657298,17.11724276862369,17.0,71.0,37.0,61.0
65,65,39.20459156782532,133.6600164596728,11.180339887498949,24.331050121192877,35.35533905932738,39.6232255123179,23.194827009486403,97.86725703727473,73.55270219373317,53.5,20.0,41.0,7.5,66.5,36.5,4.5,17.72004514666935,17.029386365926403,17.0,70.0,36.0,64.32728814430156
66,66,44.181444068749045,138.75518008348374,11.180339887498949,24.331050121192877,35.510561809129406,38.47076812334269,22.20360331117452,101.83319694480774,77.52418977325722,55.0,18.0,40.0,7.0,72.0,42.0,5.0,17.46424919657298,17.029386365926403,17.0,71.0,36.0,61.39218191268331
67,67,45.09988913511872,140.73023839957068,12.36931687685298,27.294688127912362,35.510561809129406,40.44749683231337,22.02271554554524,106.56922632730333,79.30952023559341,56.5,17.0,39.0,6.0,78.0,45.0,7.0,18.681541692269406,17.11724276862369,17.0,73.0,37.0,67.26812023536856
68,68,47.095647357266465,139.26234236145822,11.40175425099138,24.515301344262525,36.6742416417845,40.607881008493905,21.095023109728988,103.81714694596457,79.40403012442127,55.5,17.0,42.0,8.5,73.5,43.5,4.5,18.681541692269406,17.11724276862369,17.0,70.0,33.0,66.70832032063167
69,69,43.104524124504614,138.91724155050014,12.36931687685298,25.317977802344327,35.510561809129406,40.44749683231337,21.095023109728988,101.71037311896953,76.4198926981712,54.5,18.0,41.0,8.5,71.5,40.5,5.5,18.439088914585774,16.1245154965971,16.0,69.0,35.0,61.39218191268331
70,70,39.20459156782532,136.7808466123821,12.165525060596439,26.30589287593181,38.47076812334269,42.579337712087536,23.021728866442675,100.60318086422517,74.33034373659252,54.5,22.0,44.0,10.0,67.0,35.0,4.0,19.4164878389476,17.029386365926403,17.0,68.0,33.0,64.03124237432849
71,71,38.118237105091836,135.95955280891445,12.165525060596439,24.331050121192877,36.49657518178932,40.44749683231337,24.0,98.41239759298622,74.16872656315464,55.0,25.0,48.0,12.5,61.5,32.5,1.5,18.439088914585774,17.11724276862369,17.0,66.0,35.0,60.41522986797286
72,72,43.18564576337837,134.21251804507656,12.165525060596439,25.179356624028344,37.21558813185679,41.30375285612676,24.020824298928627,104.47966309287182,79.30952023559341,57.5,30.0,48.0,15.0,65.0,35.0,2.0,18.439088914585774,17.029386365926403,17.0,66.0,36.0,61.39218191268331
73,73,45.09988913511872,136.06616037795732,13.038404810405298,23.345235059857504,37.33630940518894,41.30375285612676,25.019992006393608,106.23088063270491,83.05419917138447,60.5,34.0,51.0,17.5,63.5,34.5,3.5,18.24828759089466,16.0312195418814,16.0,65.0,39.0,59.22837157984339
74,74,47.095647357266465,136.93794214898952,12.041594578792296,23.194827009486403,36.22154055254967,42.190046219457976,25.019992006393608,107.16809226630845,84.0535543567314,60.5,36.0,52.0,19.0,63.0,35.0,6.0,17.11724276862369,15.033296378372908,15.0,61.0,37.0,55.90169943749474
75,75,50.039984012787215,134.72935834479432,13.038404810405298,22.20360331117452,36.124783736376884,41.19465984809196,24.0,109.16501271011697,87.05170877128145,62.0,36.0,50.0,19.0,66.0,38.0,6.0,16.278820596099706,15.033296378372908,15.0,61.0,39.0,61.0
76,76,52.08646657242167,135.6244815658294,13.038404810405298,24.08318915758459,36.124783736376884,41.10960958218893,25.019992006393608,114.10959644131601,90.0499861188218,64.0,39.0,52.0,20.5,68.5,39.5,7.5,16.1245154965971,16.0,15.5,57.0,38.0,57.87054518492115
77,77,55.00909015790027,132.54433220624713,13.152946437965905,26.1725046566048,36.05551275463989,41.048751503547585,23.08679276123039,117.06835610018618,91.00549433962765,63.5,43.0,55.0,26.0,68.0,38.0,13.0,15.297058540778355,14.035668847618199,14.0,57.0,40.0,55.731499172371095
78,78,59.00847396772772,133.24038426843418,14.035668847618199,24.08318915758459,36.05551275463989,41.012193308819754,23.021728866442675,120.03749414245534,96.00520819205592,66.5,48.0,56.0,29.0,68.0,41.0,16.0,16.1245154965971,14.0,14.0,59.0,44.0,57.55866572463264
79,79,59.00847396772772,127.06297651164952,13.038404810405298,22.02271554554524,34.0147027033899,39.0,22.090722034374522,116.00431026474836,94.0,64.5,53.0,57.0,33.0,61.0,36.0,20.0,15.132745950421556,14.0,14.5,58.0,44.0,56.43580423808985
80,80,46.010868281309364,119.06720791217035,12.041594578792296,24.020824298928627,32.01562118716424,36.013886210738214,23.021728866442675,105.01904589168576,81.00617260431454,58.0,52.0,56.0,31.0,51.0,25.0,19.0,15.033296378372908,15.0,15.0,54.0,44.0,53.46026561849464
81,81,36.0,116.06894502837527,14.0,23.021728866442675,31.016124838541646,34.0147027033899,23.08679276123039,96.00520819205592,73.02739212103907,55.0,52.0,56.0,31.0,42.0,16.0,18.0,16.0312195418814,15.0,15.0,52.0,42.0,51.478150704935004
82,82,23.021728866442675,110.0,13.038404810405298,22.02271554554524,30.0,32.0,25.079872407968907,83.00602387778854,61.032778078668514,49.5,54.0,54.0,29.0,29.0,6.0,16.0,15.0,14.035668847618199,14.5,48.0,40.0,53.23532661682466
83,83,19.026297590440446,110.01818031580054,12.0,20.0,28.0178514522438,31.016124838541646,25.019992006393608,76.02631123499285,56.0357029044876,46.5,53.0,51.0,27.0,24.0,3.0,16.0,17.029386365926403,15.033296378372908,14.5,50.0,42.0,54.147945482723536
84,84,20.0,115.00434774390054,12.0,19.0,29.0,31.016124838541646,25.019992006393608,76.00657866263946,57.0087712549569,47.0,52.0,51.0,26.5,24.5,5.5,15.5,15.0,15.033296378372908,14.5,50.0,41.0,55.14526271584895
85,85,17.0,113.0,11.0,20.0,30.0,32.01562118716424,25.019992006393608,73.00684899377592,53.009433122794285,44.5,50.0,50.0,25.0,23.0,1.0,14.0,15.0,14.035668847618199,14.0,50.0,42.0,51.35172830587107
86,86,19.0,111.04053313993049,12.0,20.024984394500787,30.0,33.015148038438355,24.0,75.0066663703967,55.0,45.5,47.0,50.0,24.5,26.5,5.5,13.5,14.035668847618199,12.041594578792296,12.5,50.0,40.0,50.35871324805669
87,87,25.0,112.01785571952357,12.041594578792296,20.024984394500787,30.01666203960727,33.0,22.02271554554524,79.00632886041473,59.0,46.5,46.0,48.0,25.0,32.0,10.0,13.0,12.0,11.180339887498949,11.0,51.0,39.0,54.45181356024793
88,88,37.013511046643494,116.1077086157504,11.045361017187261,20.024984394500787,30.01666203960727,35.0,23.021728866442675,91.02197536858887,71.00704190430693,52.5,45.0,50.0,24.5,43.5,20.5,13.5,13.038404810405298,12.041594578792296,12.0,54.0,40.0,54.589376255824725
89,89,39.01281840626232,119.10499569707393,13.0,21.02379604162864,34.0147027033899,39.01281840626232,23.08679276123039,96.0,75.0066663703967,55.5,46.0,51.0,25.5,47.5,23.5,13.5,14.0,13.038404810405298,13.0,53.0,41.0,54.45181356024793
90,90,40.01249804748511,123.10158406779338,12.0,19.026297590440446,35.014282800023196,39.01281840626232,23.021728866442675,94.00531899844816,75.0,55.0,44.0,49.0,23.5,47.5,25.5,12.5,13.038404810405298,13.038404810405298,12.5,53.0,40.0,55.57877292636101
91,91,41.012193308819754,123.14625451064275,12.0,22.02271554554524,35.0,40.01249804748511,22.090722034374522,97.0,75.0066663703967,54.5,42.0,48.0,23.0,52.0,27.0,12.0,13.038404810405298,12.0,12.5,51.0,40.0,54.589376255824725
92,92,45.0,124.10076550932311,12.0,21.02379604162864,36.013886210738214,39.0,22.20360331117452,100.0199980003999,79.05694150420949,56.5,44.0,49.0,24.5,53.5,29.5,13.5,13.038404810405298,12.0,12.5,51.0,39.0,56.568542494923804
93,93,47.0,123.10158406779338,12.0,21.02379604162864,36.013886210738214,39.01281840626232,21.095023109728988,101.00495037373169,80.02499609497022,56.5,44.0,49.0,25.5,54.5,30.5,14.5,13.0,12.041594578792296,12.0,49.0,39.0,51.62363799656123
94,94,47.0,120.10412149464314,11.045361017187261,19.0,36.013886210738214,39.01281840626232,19.1049731745428,96.00520819205592,77.00649323271382,53.5,43.0,48.0,26.5,50.5,28.5,16.5,10.04987562112089,10.0,10.0,46.0,37.0,49.36598018878993
95,95,44.01136216933077,124.10076550932311,10.04987562112089,19.026297590440446,35.014282800023196,39.0,22.20360331117452,95.0,76.00657866263946,54.0,42.0,47.0,22.5,50.5,28.5,13.5,6.0,6.082762530298219,6.5,45.0,36.0,55.44366510251645
96,96,43.01162633521314,121.03718436910205,12.0,19.026297590440446,34.0,37.013511046643494,20.024984394500787,94.00531899844816,75.02666192761077,53.5,45.0,48.0,26.5,47.5,25.5,15.5,7.0710678118654755,6.324555320336759,6.5,43.0,33.0,55.326304774492215
97,97,33.0,112.01785571952357,4.123105625617661,15.0,30.01666203960727,32.01562118716424,17.0,69.00724599634447,54.00925846556311,37.5,24.0,26.0,8.0,44.0,27.0,5.0,10.04987562112089,10.04987562112089,9.5,24.0,23.0,51.0
98,98,6.082762530298219,97.0051545022222,7.0,14.0,29.017236257093817,30.01666203960727,19.026297590440446,46.04345773288535,32.0624390837628,29.0,19.0,20.0,0.5,26.5,9.5,4.5,16.1245154965971,15.132745950421556,14.5,34.0,31.0,56.0357029044876
99,99,47.01063709417264,113.0,10.0,16.0312195418814,30.0,33.0,20.0,93.02150289046077,77.00649323271382,53.5,48.0,48.0,28.0,45.0,27.0,19.0,9.0,9.055385138137417,9.0,28.0,28.0,51.0098029794274
100,100,18.027756377319946,108.04165863221463,7.0,15.0,31.016124838541646,33.0,10.04987562112089,50.0,35.0,26.0,15.0,12.0,3.5,36.5,20.5,1.5,10.198039027185569,11.0,11.5,29.0,36.0,42.04759208325728
101,101,21.0,106.01886624558857,7.0710678118654755,15.0,27.018512172212592,29.017236257093817,14.560219778561036,57.07889277132134,42.1070065428546,31.5,27.0,29.0,14.0,29.0,12.0,8.0,12.041594578792296,11.045361017187261,11.0,26.0,22.0,52.08646657242167
102,102,8.246211251235321,100.00499987500625,5.0,15.033296378372908,28.0,29.017236257093817,14.142135623730951,42.2965719651132,27.294688127912362,23.0,19.0,18.0,4.5,23.5,7.5,0.5,12.165525060596439,10.04987562112089,11.0,26.0,21.0,51.03920062069938
103,103,7.0710678118654755,89.00561780022652,6.0,9.0,21.0,22.0,20.024984394500787,42.04759208325728,33.06055050963308,29.5,22.0,23.0,2.5,19.5,7.5,1.5,14.142135623730951,14.142135623730951,13.5,32.0,28.0,43.04648650006177
104,104,2.23606797749979,85.0,4.0,7.0710678118654755,20.024984394500787,21.0,24.08318915758459,33.24154027718932,26.1725046566048,27.0,21.0,21.0,3.0,12.0,4.0,6.0,12.041594578792296,12.041594578792296,12.0,27.0,24.0,45.0111097397076
105,105,10.04987562112089,96.00520819205592,3.0,8.06225774829855,24.0,25.0,15.132745950421556,36.22154055254967,28.160255680657446,23.0,17.0,18.0,2.5,18.5,9.5,0.5,12.041594578792296,11.045361017187261,11.0,27.0,23.0,49.01020301937138
106,106,13.152946437965905,99.0,6.0,10.0,24.0,25.019992006393608,28.0178514522438,57.07889277132134,47.095647357266465,40.5,45.0,45.0,17.0,12.0,1.0,12.0,12.0,12.041594578792296,12.0,21.0,20.0,49.040799340956916
107,107,17.11724276862369,95.02105029939419,9.0,12.041594578792296,22.02271554554524,23.0,24.020824298928627,62.12889826803627,50.08991914547278,41.5,50.0,48.0,25.0,13.0,0.0,17.0,13.0,13.038404810405298,12.5,24.0,22.0,46.0
108,108,10.0,87.02298546935747,8.06225774829855,12.041594578792296,21.095023109728988,22.0,28.0178514522438,58.077534382926416,46.04345773288535,41.0,49.0,51.0,22.0,8.0,5.0,13.0,10.04987562112089,11.045361017187261,11.0,29.0,24.0,38.2099463490856
109,109,5.0990195135927845,91.00549433962765,8.0,13.0,21.0,23.0,23.021728866442675,49.040799340956916,36.05551275463989,33.5,34.0,33.0,10.5,15.5,1.5,4.5,13.038404810405298,11.045361017187261,12.0,31.0,26.0,50.15974481593781
110,110,8.246211251235321,88.0056816347672,13.0,19.0,25.019992006393608,26.019223662515376,30.066592756745816,70.11419257183242,51.15662224971465,47.0,57.0,56.0,26.5,13.5,7.5,13.5,13.0,13.0,13.5,33.0,30.0,45.044422518220834
111,111,28.0178514522438,101.00495037373169,11.0,19.0,28.0,31.0,24.020824298928627,82.02438661763951,63.0317380372777,49.0,51.0,52.0,27.5,30.5,10.5,17.5,14.0,14.0,14.5,34.0,32.0,44.10215414239989
112,112,47.01063709417264,106.00471687618433,13.0,21.02379604162864,31.016124838541646,34.0147027033899,19.1049731745428,100.07996802557443,79.05694150420949,55.5,54.0,55.0,35.5,45.5,21.5,22.5,13.038404810405298,12.041594578792296,12.0,38.0,36.0,50.039984012787215
113,113,45.0111097397076,106.00471687618433,10.0,20.024984394500787,30.01666203960727,33.015148038438355,23.194827009486403,98.12746812182611,78.10249675906654,55.5,56.0,55.0,32.5,42.5,19.5,23.5,9.055385138137417,9.0,9.0,39.0,36.0,51.03920062069938
114,114,32.01562118716424,98.02040603874276,12.0,20.0,25.019992006393608,29.017236257093817,23.08679276123039,87.05170877128145,67.06713054842886,51.0,56.0,54.0,32.0,32.0,11.0,21.0,5.0990195135927845,5.0,5.0,42.0,38.0,48.093658625644196
115,115,15.033296378372908,90.0222194794152,11.0,20.0,24.0,26.0,28.071337695236398,74.06078584514209,54.08326913195984,46.5,55.0,53.0,26.0,20.0,1.0,15.0,4.123105625617661,5.0990195135927845,4.5,42.0,38.0,48.16637831516918
116,116,4.123105625617661,96.00520819205592,14.0,19.0,23.0,26.0,28.0178514522438,65.03076195155643,46.04345773288535,44.0,50.0,49.0,21.5,15.5,5.5,8.5,3.1622776601683795,4.123105625617661,4.0,42.0,36.0,41.19465984809196
117,117,10.0,101.00495037373169,14.035668847618199,21.02379604162864,26.0,27.0,28.0178514522438,73.00684899377592,52.0,47.0,49.0,50.0,21.5,23.5,0.5,7.5,5.0,5.385164807134504,4.5,46.0,37.0,45.5411901469428
118,118,17.029386365926403,105.17128885774862,12.041594578792296,20.024984394500787,27.073972741361768,30.01666203960727,29.017236257093817,78.10249675906654,58.077534382926416,49.5,47.0,53.0,21.0,28.0,5.0,9.0,6.0,7.0710678118654755,6.5,49.0,35.0,48.83646178829912
119,119,32.0624390837628,109.03669107231748,11.045361017187261,20.09975124224178,30.14962686336267,34.23448553724738,25.079872407968907,88.2779700718135,68.18357573492314,52.0,39.0,54.0,21.5,41.5,16.5,9.5,10.04987562112089,9.486832980505138,9.0,54.0,29.0,45.60701700396552
120,120,33.13608305156178,108.67382389517726,10.198039027185569,19.4164878389476,29.427877939124322,32.55764119219941,25.079872407968907,87.69264507357501,68.3593446428504,51.5,37.0,56.0,21.5,40.5,17.5,9.5,12.36931687685298,11.40175425099138,10.5,59.0,25.0,46.17358552246078
121,121,31.144823004794873,110.63453348751464,12.165525060596439,22.561028345356956,29.614185789921695,33.54101966249684,25.709920264364882,91.41115905621152,68.8839603971781,52.5,35.0,59.0,22.0,43.0,16.0,8.0,12.36931687685298,11.704699910719626,10.5,60.0,22.0,48.104053883222775
122,122,32.14031735997639,107.70793842609746,11.40175425099138,21.37755832643195,28.635642126552707,31.575306807693888,25.0,89.62700485902673,68.24954212300622,51.0,35.0,59.0,23.0,41.0,15.0,10.0,12.36931687685298,11.704699910719626,10.5,60.0,20.0,47.75981574503821
123,123,28.160255680657446,106.96261028976434,13.341664064126334,21.37755832643195,27.892651361962706,31.575306807693888,24.73863375370596,87.47571091451616,66.09841147864296,51.0,36.0,61.0,24.5,37.5,11.5,8.5,12.36931687685298,11.704699910719626,11.0,60.0,20.0,45.5411901469428
124,124,26.076809620810597,106.73331251301067,12.36931687685298,21.37755832643195,27.65863337187866,30.59411708155671,25.96150997149434,85.5102333057278,64.13267497929586,50.0,36.0,60.0,23.0,36.0,11.0,9.0,11.704699910719626,11.704699910719626,10.5,59.0,20.0,44.94441010848846
125,125,26.1725046566048,106.51291001564083,11.40175425099138,22.360679774997898,27.459060435491963,31.400636936215164,25.709920264364882,85.5102333057278,63.150613615387776,49.0,36.0,59.0,22.5,36.5,10.5,9.5,12.36931687685298,11.704699910719626,11.0,59.0,21.0,41.78516483155236
126,126,28.071337695236398,107.07940978544848,12.36931687685298,21.37755832643195,28.635642126552707,30.4138126514911,26.68332812825267,88.28363381737297,66.91038783328041,52.0,37.0,58.0,21.5,39.5,14.5,7.5,14.560219778561036,13.341664064126334,13.0,60.0,23.0,45.880278987817846
127,127,29.154759474226502,107.28000745712129,11.40175425099138,21.37755832643195,27.65863337187866,31.575306807693888,26.68332812825267,88.45903006477066,67.08203932499369,51.5,36.0,58.0,21.0,40.0,15.0,8.0,15.524174696260024,13.341664064126334,13.5,60.0,24.0,42.05948168962618
128,128,29.154759474226502,107.07940978544848,12.36931687685298,22.360679774997898,29.614185789921695,32.55764119219941,27.459060435491963,91.2414379544733,68.8839603971781,53.5,37.0,58.0,20.5,42.5,16.5,6.5,15.524174696260024,15.297058540778355,15.0,59.0,25.0,41.48493702538308
129,129,29.154759474226502,107.28000745712129,11.180339887498949,22.561028345356956,28.635642126552707,32.55764119219941,27.459060435491963,90.2551937563706,67.7421582177598,52.5,36.0,58.0,20.0,42.0,15.0,7.0,15.524174696260024,14.560219778561036,14.0,58.0,26.0,40.80441152620633
130,130,28.284271247461902,106.09901036296239,12.165525060596439,22.561028345356956,27.65863337187866,30.59411708155671,27.294688127912362,90.2551937563706,67.7421582177598,53.0,37.0,58.0,20.5,41.5,15.5,6.5,13.601470508735444,13.341664064126334,12.5,58.0,25.0,44.384682042344295
131,131,23.08679276123039,103.94229168149026,13.152946437965905,23.53720459187964,25.495097567963924,28.442925306655784,28.160255680657446,87.82368700982668,64.38167441127949,52.5,39.0,59.0,21.0,38.0,10.0,7.0,13.601470508735444,12.165525060596439,12.5,58.0,25.0,45.880278987817846
132,132,12.165525060596439,100.22474744293447,13.341664064126334,22.561028345356956,24.73863375370596,27.65863337187866,31.144823004794873,79.07591289387686,56.568542494923804,50.0,39.0,60.0,18.5,28.5,1.5,3.5,14.866068747318506,12.649110640673518,12.5,59.0,24.0,45.880278987817846
133,133,5.0,95.34149149242423,15.132745950421556,24.515301344262525,22.80350850198276,26.68332812825267,31.400636936215164,75.50496672405067,50.99019513592785,48.0,39.0,60.0,18.5,24.5,3.5,1.5,13.92838827718412,12.649110640673518,12.0,59.0,21.0,47.53945729601885
134,134,12.36931687685298,95.56673061269805,14.317821063276353,23.769728648009426,23.769728648009426,26.68332812825267,29.274562336608895,79.62411694957753,55.90169943749474,49.0,38.0,60.0,20.0,29.0,1.0,4.0,14.866068747318506,12.649110640673518,12.5,62.0,23.0,47.12748667179272
135,135,15.297058540778355,98.71676655968832,13.341664064126334,23.53720459187964,22.80350850198276,25.495097567963924,28.635642126552707,80.8084154033477,57.271284253105414,48.5,37.0,60.0,20.5,30.5,3.5,4.5,14.866068747318506,13.601470508735444,13.5,63.0,22.0,50.28916384272063
136,136,18.24828759089466,100.89598604503551,14.317821063276353,25.709920264364882,25.96150997149434,28.635642126552707,26.68332812825267,84.92938243034621,59.22837157984339,49.0,36.0,60.0,22.0,35.0,6.0,5.0,17.72004514666935,15.524174696260024,15.5,63.0,22.0,46.17358552246078
137,137,18.24828759089466,98.71676655968832,14.317821063276353,23.769728648009426,25.709920264364882,28.635642126552707,27.892651361962706,84.17244204607586,60.41522986797286,50.0,39.0,62.0,23.5,31.5,5.5,7.5,18.027756377319946,16.492422502470642,16.0,66.0,22.0,50.59644256269407
138,138,22.20360331117452,101.13851887386922,13.601470508735444,23.769728648009426,25.709920264364882,28.635642126552707,27.892651361962706,87.32124598286491,63.56099432828282,51.0,37.0,62.0,22.5,35.5,8.5,7.5,17.08800749063506,15.297058540778355,15.0,66.0,21.0,47.75981574503821
139,139,26.30589287593181,100.16985574512923,12.36931687685298,21.840329667841555,27.892651361962706,29.614185789921695,27.892651361962706,88.29496021857646,66.49060083951716,52.0,37.0,62.0,22.5,36.5,10.5,7.5,17.08800749063506,15.297058540778355,15.0,65.0,21.0,44.27188724235731
140,140,23.194827009486403,101.86756107809786,13.601470508735444,24.73863375370596,25.709920264364882,29.614185789921695,28.635642126552707,90.02777349240623,65.30696746902278,52.5,37.0,61.0,21.0,39.0,11.0,6.0,18.027756377319946,16.492422502470642,16.5,64.0,21.0,46.8187996428785
141,141,20.223748416156685,102.83968105745953,13.341664064126334,25.96150997149434,27.65863337187866,29.427877939124322,28.635642126552707,88.07383266328314,62.16912416947821,51.0,35.0,59.0,19.0,39.0,11.0,4.0,18.027756377319946,16.492422502470642,16.0,65.0,22.0,48.38388161361178
142,142,21.213203435596427,100.89598604503551,13.601470508735444,25.96150997149434,25.709920264364882,28.442925306655784,29.427877939124322,90.02777349240623,64.13267497929586,52.5,34.0,58.0,17.0,42.0,13.0,2.0,18.973665961010276,17.26267650163207,17.0,65.0,22.0,50.96076922496363
143,143,16.278820596099706,103.07764064044152,13.601470508735444,25.709920264364882,25.709920264364882,28.442925306655784,30.265491900843113,85.70297544426332,60.01666435249463,51.0,33.0,58.0,15.5,38.5,9.5,0.5,18.973665961010276,18.24828759089466,17.5,66.0,22.0,50.28916384272063
144,144,15.524174696260024,99.92497185388645,14.317821063276353,25.709920264364882,25.495097567963924,28.635642126552707,30.59411708155671,86.12200647918046,60.41522986797286,51.5,35.0,59.0,17.0,37.0,8.0,2.0,19.924858845171276,18.439088914585774,18.0,65.0,21.0,51.24451190127583
145,145,15.297058540778355,102.1077861869505,13.601470508735444,24.73863375370596,24.73863375370596,27.65863337187866,31.400636936215164,84.92938243034621,60.207972893961475,51.5,34.0,59.0,15.5,36.5,8.5,0.5,19.924858845171276,17.46424919657298,17.0,66.0,21.0,50.59644256269407
146,146,17.46424919657298,101.86756107809786,12.36931687685298,25.709920264364882,24.515301344262525,28.442925306655784,32.2490309931942,87.66413177577246,61.98386886924694,52.5,35.0,59.0,15.0,39.0,10.0,1.0,20.248456731316587,16.278820596099706,16.5,70.0,24.0,52.49761899362675
147,147,24.186773244895647,108.41586599755591,12.649110640673518,27.892651361962706,26.92582403567252,29.614185789921695,30.14962686336267,94.54099639838793,66.75327707311455,54.0,34.0,61.0,17.5,45.5,14.5,2.5,19.924858845171276,17.26267650163207,17.5,69.0,22.0,52.81098370604357
148,148,27.294688127912362,110.85576214162258,13.341664064126334,26.68332812825267,27.892651361962706,31.78049716414141,29.274562336608895,96.5090669315583,69.87131027825369,55.5,32.0,57.0,15.5,50.5,19.5,0.5,19.924858845171276,17.26267650163207,17.5,71.0,23.0,56.61271941887264
149,149,34.23448553724738,115.44695751729449,12.36931687685298,25.709920264364882,28.160255680657446,31.78049716414141,28.442925306655784,100.62305898749054,74.96665925596525,57.0,30.0,58.0,16.0,55.0,25.0,1.0,19.924858845171276,18.110770276274835,18.5,69.0,24.0,52.20153254455275
150,150,28.284271247461902,114.75626344561765,12.36931687685298,26.68332812825267,28.635642126552707,33.54101966249684,28.284271247461902,95.524865872714,68.8839603971781,54.0,30.0,55.0,14.5,51.5,20.5,0.5,18.973665961010276,17.26267650163207,17.0,70.0,23.0,54.70831746635972
151,151,36.345563690772494,118.35962149314267,13.341664064126334,24.515301344262525,28.861739379323623,32.7566787083184,27.459060435491963,101.6070863670443,77.10382610480494,58.0,29.0,57.0,16.0,57.0,27.0,1.0,19.924858845171276,18.24828759089466,18.0,70.0,24.0,52.81098370604357
152,152,39.20459156782532,115.73245007343446,12.36931687685298,24.515301344262525,29.614185789921695,33.54101966249684,27.459060435491963,103.40696301506973,78.91767862779544,58.5,31.0,56.0,16.5,58.5,28.5,2.5,21.840329667841555,19.235384061671343,19.0,71.0,25.0,56.92099788303083
153,153,38.2099463490856,115.73245007343446,13.341664064126334,25.709920264364882,30.59411708155671,34.52535300326414,27.16615541441225,104.23531071570709,78.63841300535,59.0,33.0,58.0,18.5,57.5,26.5,3.5,19.6468827043885,18.24828759089466,18.0,71.0,29.0,52.49761899362675
154,154,37.21558813185679,116.29703349613007,12.165525060596439,24.331050121192877,30.59411708155671,34.36568055487916,28.284271247461902,101.96568050084302,77.64663547121665,58.5,36.0,59.0,19.5,53.5,24.5,5.5,19.6468827043885,18.110770276274835,18.5,70.0,32.0,52.49761899362675
155,155,38.118237105091836,113.77170122662314,12.165525060596439,21.37755832643195,29.614185789921695,33.37663853655727,27.294688127912362,98.85848471426213,77.52418977325722,58.0,41.0,61.0,24.0,47.0,21.0,10.0,19.4164878389476,18.110770276274835,18.0,67.0,34.0,50.96076922496363
156,156,64.0,113.35784048754634,15.033296378372908,27.073972741361768,35.12833614050059,40.11234224026316,23.194827009486403,129.1394595001853,102.07840124139877,70.0,64.0,73.0,45.5,60.5,29.5,29.5,15.033296378372908,15.0,15.5,48.0,34.0,52.3450093132096
157,157,50.00999900019995,118.51160280748886,15.033296378372908,24.08318915758459,33.06055050963308,38.118237105091836,23.021728866442675,112.11155159036913,88.05112151472007,63.0,55.0,66.0,37.5,51.5,23.5,21.5,15.033296378372908,15.033296378372908,15.0,47.0,34.0,52.3450093132096
158,158,38.01315561749642,118.27087553578015,13.038404810405298,22.02271554554524,31.064449134018133,34.058772731852805,22.02271554554524,95.02105029939419,73.00684899377592,54.0,48.0,56.0,30.0,43.0,18.0,17.0,15.033296378372908,16.0312195418814,15.5,48.0,37.0,47.265209192385896
159,159,34.0,110.07270324653611,12.0,21.02379604162864,31.016124838541646,35.05709628591621,24.020824298928627,91.0,70.00714249274856,53.0,50.0,54.0,28.0,39.0,15.0,16.0,16.0,15.033296378372908,15.0,48.0,38.0,47.16990566028302
160,160,28.0,103.04368005850722,13.038404810405298,23.021728866442675,28.0178514522438,33.015148038438355,27.018512172212592,91.00549433962765,68.0,54.0,53.0,56.0,27.5,36.5,10.5,14.5,15.033296378372908,14.142135623730951,14.5,49.0,41.0,42.2965719651132
161,161,22.0,106.07544484940895,14.035668847618199,23.021728866442675,27.018512172212592,30.01666203960727,30.0,89.02246907382428,66.007575322837,55.0,54.0,58.0,26.0,33.0,8.0,11.0,15.0,14.035668847618199,14.0,48.0,40.0,45.27692569068709
162,162,17.0,102.07840124139877,15.033296378372908,23.08679276123039,27.018512172212592,30.0,32.0,87.05170877128145,64.00781202322104,55.5,55.0,59.0,25.0,30.0,5.0,10.0,15.033296378372908,14.0,14.5,48.0,41.0,46.17358552246078
163,163,14.0,100.04498987955368,14.035668847618199,25.0,27.018512172212592,30.066592756745816,31.016124838541646,84.0,59.0,52.0,56.0,59.0,26.5,26.5,1.5,12.5,15.132745950421556,13.038404810405298,13.5,51.0,40.0,44.28317965096906
164,164,16.0312195418814,100.07996802557443,13.0,26.019223662515376,25.079872407968907,28.0178514522438,32.0624390837628,87.09190547921202,61.07372593840988,53.0,54.0,58.0,24.0,31.0,3.0,11.0,16.1245154965971,15.0,15.5,53.0,41.0,50.24937810560445
165,165,20.0,101.04454463255303,12.0,26.019223662515376,25.019992006393608,29.017236257093817,33.0,91.00549433962765,65.0,55.0,53.0,56.0,21.5,36.5,8.5,9.5,16.0312195418814,15.033296378372908,15.0,58.0,43.0,52.61178575186362
166,166,24.0,106.01886624558857,12.041594578792296,25.0,26.019223662515376,29.0,32.0624390837628,93.00537618869137,68.00735254367721,56.0,50.0,52.0,19.0,42.0,14.0,7.0,16.1245154965971,15.0,15.0,61.0,46.0,59.413803110051795
167,167,31.016124838541646,115.00434774390054,11.0,23.0,31.0,33.015148038438355,30.01666203960727,95.0,72.0,56.5,46.0,47.0,16.5,48.5,23.5,6.5,15.033296378372908,13.0,13.0,59.0,46.0,59.413803110051795
168,168,30.01666203960727,117.00427342623003,12.0,25.019992006393608,32.0,36.05551275463989,29.017236257093817,96.00520819205592,71.0,56.0,45.0,44.0,15.5,51.5,24.5,5.5,14.035668847618199,13.0,12.5,60.0,49.0,60.207972893961475
169,169,27.0,118.03812943282352,12.041594578792296,23.021728866442675,31.016124838541646,34.132096331752024,28.0178514522438,90.00555538409837,67.0,53.5,44.0,41.0,14.5,47.5,23.5,4.5,12.041594578792296,10.0,10.5,57.0,48.0,57.3149195236284
170,170,31.016124838541646,116.52038448271615,13.0,25.0,31.144823004794873,35.22782990761707,27.018512172212592,96.02083107326243,71.02816342831905,55.5,51.0,40.0,18.5,50.5,25.5,8.5,8.0,7.0,7.0,54.0,51.0,53.03772242470448
171,171,33.015148038438355,115.84903970253703,12.0,24.0,31.25699921617557,35.510561809129406,27.018512172212592,96.02083107326243,72.02777242147643,55.5,54.0,40.0,20.0,49.0,25.0,11.0,7.0,7.0,6.5,52.0,50.0,51.0098029794274
172,172,33.06055050963308,113.86395390991831,12.0,23.021728866442675,31.144823004794873,34.36568055487916,26.1725046566048,94.19129471453293,71.17583859709698,54.5,56.0,42.0,23.0,45.0,23.0,13.0,6.082762530298219,5.0,5.0,50.0,52.0,48.041648597857254
173,173,28.071337695236398,115.97413504743201,12.041594578792296,23.021728866442675,31.25699921617557,34.52535300326414,27.073972741361768,90.19977827023745,67.1863081289633,53.0,56.0,41.0,21.5,41.5,19.5,12.5,5.0990195135927845,6.0,5.5,49.0,54.0,46.04345773288535
174,174,25.019992006393608,112.29425630903836,12.041594578792296,21.213203435596427,30.4138126514911,33.54101966249684,28.442925306655784,86.57944328765345,65.37583651472461,52.5,59.0,42.0,22.5,35.5,15.5,13.5,5.385164807134504,5.0,5.0,48.0,55.0,50.039984012787215
175,175,21.095023109728988,111.01801655587259,12.041594578792296,20.223748416156685,29.427877939124322,32.38826948140329,30.4138126514911,83.72574275573791,63.50590523722971,52.5,58.0,43.0,20.5,32.5,12.5,11.5,5.385164807134504,4.0,4.0,46.0,54.0,47.0
176,176,20.223748416156685,107.07940978544848,11.180339887498949,22.360679774997898,28.635642126552707,31.400636936215164,29.274562336608895,83.02409288875127,60.67124524847005,50.0,63.0,42.0,23.5,29.5,9.5,15.5,5.385164807134504,5.0990195135927845,4.5,45.0,53.0,50.00999900019995
177,177,20.223748416156685,107.5174404457249,13.038404810405298,22.360679774997898,27.459060435491963,30.59411708155671,29.427877939124322,85.0,62.64982043070834,52.0,59.0,41.0,21.0,34.0,13.0,12.0,5.830951894845301,6.082762530298219,5.5,39.0,52.0,50.08991914547278
178,178,22.20360331117452,110.3177229641729,13.152946437965905,21.213203435596427,28.635642126552707,30.59411708155671,26.1725046566048,82.73451516749222,61.5223536610881,50.0,56.0,39.0,21.5,34.5,14.5,12.5,5.830951894845301,4.123105625617661,4.5,38.0,53.0,58.215118311311535
179,179,27.16615541441225,109.04127658827184,12.165525060596439,21.37755832643195,28.442925306655784,30.59411708155671,25.495097567963924,86.14522621712709,64.77653896280658,50.5,62.0,41.0,26.5,33.5,13.5,17.5,5.385164807134504,5.0,5.5,39.0,55.0,56.08029957123981
180,180,33.13608305156178,116.10340218959993,9.055385138137417,20.615528128088304,30.59411708155671,34.713109915419565,25.495097567963924,88.11923740024082,67.60177512462228,50.5,62.0,40.0,26.0,36.0,17.0,20.0,8.246211251235321,8.06225774829855,8.5,40.0,55.0,48.041648597857254
181,181,35.12833614050059,116.49892703368559,12.165525060596439,21.37755832643195,31.400636936215164,34.92849839314596,25.317977802344327,93.90420650854784,72.56031973468694,54.5,68.0,44.0,31.0,37.0,18.0,22.0,11.40175425099138,10.198039027185569,11.0,38.0,54.0,50.08991914547278
182,182,35.05709628591621,115.52056094046635,12.165525060596439,20.396078054371138,31.575306807693888,34.713109915419565,26.1725046566048,93.64827814754524,73.33484846919642,55.5,65.0,41.0,27.0,40.0,22.0,19.0,14.142135623730951,14.317821063276353,14.5,38.0,56.0,53.23532661682466
183,183,37.12142238654117,114.54256850621083,11.180339887498949,23.345235059857504,31.575306807693888,34.92849839314596,27.16615541441225,98.73196037757987,75.4254598925323,56.5,65.0,41.0,26.0,45.0,23.0,19.0,13.152946437965905,12.165525060596439,13.0,35.0,54.0,49.09175083453431
184,184,42.1070065428546,117.6860229593982,12.165525060596439,23.345235059857504,31.78049716414141,35.90264614203248,26.076809620810597,103.58571330062848,80.30566605165541,59.0,65.0,40.0,26.5,50.5,29.5,19.5,14.142135623730951,14.142135623730951,15.0,37.0,59.0,59.135437767890075
185,185,45.09988913511872,115.52056094046635,11.045361017187261,22.360679774997898,31.78049716414141,35.17101079013795,27.018512172212592,105.38500842150178,83.15046602394962,60.5,64.0,40.0,25.0,53.0,33.0,18.0,14.142135623730951,14.317821063276353,14.5,33.0,56.0,46.52956049652737
186,186,40.049968789001575,125.92855117089213,12.165525060596439,23.345235059857504,34.92849839314596,37.36308338453881,27.018512172212592,102.39628899525607,79.1580697086532,59.0,60.0,33.0,19.5,55.5,35.5,13.5,13.152946437965905,13.341664064126334,13.5,34.0,59.0,46.52956049652737
187,187,43.04648650006177,119.85407794480753,10.04987562112089,22.20360331117452,29.832867780352597,34.20526275297414,28.284271247461902,103.4842983258813,81.30190649671138,59.5,61.0,35.0,20.0,55.0,35.0,14.0,14.142135623730951,14.317821063276353,14.5,31.0,57.0,45.5411901469428
188,188,45.044422518220834,121.80722474467596,11.045361017187261,23.194827009486403,32.984845004941285,36.40054944640259,28.071337695236398,107.29864864013899,84.1486779456457,61.5,62.0,36.0,21.0,58.0,38.0,15.0,14.035668847618199,13.341664064126334,14.5,33.0,58.0,43.73785545725808
189,189,43.104524124504614,120.30378215168466,13.152946437965905,26.1725046566048,32.984845004941285,36.40054944640259,27.0,109.29318368498559,83.15046602394962,61.5,62.0,34.0,21.0,61.0,37.0,14.0,14.035668847618199,13.601470508735444,13.5,32.0,57.0,45.5411901469428
190,190,40.049968789001575,115.95257651298655,12.165525060596439,23.194827009486403,30.083217912982647,33.52610922848042,26.019223662515376,101.31633629380802,78.16009211867653,58.0,63.0,37.0,24.0,51.0,31.0,17.0,14.0,14.317821063276353,14.5,34.0,55.0,42.2965719651132
191,191,36.124783736376884,115.44695751729449,11.045361017187261,25.079872407968907,30.364452901377952,33.83784863137726,29.068883707497267,101.31633629380802,76.23647421018367,58.0,62.0,34.0,19.0,53.0,31.0,14.0,15.0,14.317821063276353,15.0,33.0,54.0,45.39823785126467
192,192,24.08318915758459,109.14210919713803,14.035668847618199,24.08318915758459,28.160255680657446,31.953090617340916,29.274562336608895,91.44397191723465,67.36467917239716,55.0,61.0,35.0,19.0,43.0,21.0,10.0,16.0,14.317821063276353,15.5,35.0,55.0,48.373546489791295
193,193,18.24828759089466,109.88175462741756,12.041594578792296,22.20360331117452,27.202941017470888,30.675723300355934,30.4138126514911,82.87339742040264,60.67124524847005,51.0,59.0,34.0,16.5,35.5,15.5,9.5,15.0,13.152946437965905,14.0,35.0,52.0,44.28317965096906
194,194,14.142135623730951,107.48953437428223,13.038404810405298,22.090722034374522,26.92582403567252,30.364452901377952,31.400636936215164,80.62257748298549,58.54912467321779,51.0,58.0,35.0,15.5,33.5,13.5,7.5,16.0312195418814,15.132745950421556,16.0,34.0,52.0,47.265209192385896
195,195,14.142135623730951,103.94229168149026,13.038404810405298,21.095023109728988,26.92582403567252,29.120439557122072,30.59411708155671,78.77182237323191,57.706152185014034,50.0,55.0,35.0,15.0,33.0,13.0,7.0,16.0,15.132745950421556,16.0,37.0,52.0,47.16990566028302
196,196,15.033296378372908,110.02272492535349,14.035668847618199,23.08679276123039,28.861739379323623,31.04834939252005,29.427877939124322,81.49846624323675,58.42088667591412,50.5,55.0,34.0,15.5,36.5,14.5,6.5,16.0,14.142135623730951,15.0,42.0,55.0,48.16637831516918
197,197,23.08679276123039,110.81967334368028,12.041594578792296,21.095023109728988,29.614185789921695,31.78049716414141,29.274562336608895,85.47514258543241,64.38167441127949,52.5,55.0,35.0,16.0,40.0,20.0,8.0,15.033296378372908,14.035668847618199,15.0,45.0,57.0,52.03844732503075
198,198,28.071337695236398,115.7410903698423,13.038404810405298,23.08679276123039,29.614185789921695,33.734255586866,27.459060435491963,91.54780172128658,68.46897107449476,54.0,55.0,35.0,18.0,46.0,24.0,9.0,12.041594578792296,12.165525060596439,12.0,48.0,57.0,59.0
199,199,16.0312195418814,109.48972554536796,14.035668847618199,25.079872407968907,27.459060435491963,30.59411708155671,30.4138126514911,85.47514258543241,60.40695324215582,52.0,54.0,36.0,15.0,40.0,16.0,5.0,4.47213595499958,5.0,4.5,49.0,60.0,57.0350769263968
200,200,15.033296378372908,106.53168542738823,13.038404810405298,21.213203435596427,26.30589287593181,29.832867780352597,31.575306807693888,80.75270893288967,59.53990258641679,51.5,59.0,41.0,19.0,30.0,10.0,8.0,5.385164807134504,5.0990195135927845,4.5,51.0,62.0,52.009614495783374
201,201,14.035668847618199,109.48972554536796,13.038404810405298,20.223748416156685,28.284271247461902,31.575306807693888,30.59411708155671,77.78174593052023,57.55866572463264,50.0,58.0,40.0,19.0,28.0,9.0,9.0,6.324555320336759,5.0990195135927845,5.5,47.0,59.0,52.0
202,202,15.033296378372908,115.97413504743201,14.035668847618199,19.026297590440446,31.25699921617557,34.23448553724738,28.442925306655784,76.4198926981712,57.42821606144492,49.5,55.0,40.0,19.5,28.5,9.5,8.5,7.280109889280518,6.0,6.0,44.0,55.0,50.00999900019995
203,203,18.110770276274835,111.30588483993108,12.0,19.235384061671343,28.284271247461902,31.575306807693888,27.65863337187866,76.79192665899195,57.55866572463264,48.0,57.0,40.0,21.5,27.5,9.5,12.5,9.219544457292887,7.0710678118654755,7.0,41.0,50.0,53.009433122794285
204,204,25.079872407968907,119.21828718783037,12.041594578792296,18.24828759089466,30.4138126514911,33.54101966249684,25.317977802344327,80.62257748298549,62.39390995922599,49.5,59.0,42.0,25.5,29.5,12.5,16.5,9.219544457292887,8.06225774829855,8.0,41.0,52.0,50.0
205,205,33.015148038438355,114.9826073804208,12.165525060596439,20.223748416156685,33.24154027718932,36.345563690772494,24.515301344262525,89.67719888578144,69.46221994724903,52.5,58.0,43.0,26.5,38.5,18.5,17.5,12.165525060596439,9.055385138137417,9.0,39.0,51.0,53.03772242470448
206,206,49.040799340956916,124.03628501370073,12.165525060596439,22.20360331117452,35.22782990761707,39.319206502675,23.08679276123039,105.92922165295089,83.72574275573791,58.5,60.0,44.0,30.0,53.0,31.0,20.0,13.038404810405298,12.165525060596439,12.5,41.0,55.0,53.009433122794285
207,207,47.042533945356304,128.9961239727768,12.165525060596439,21.213203435596427,37.33630940518894,41.43669871020132,23.40939982143925,103.0970416646375,81.88406438373708,57.5,59.0,43.0,29.0,51.0,31.0,20.0,15.033296378372908,13.152946437965905,13.5,39.0,52.0,49.01020301937138
208,208,43.04648650006177,129.2594290564522,12.165525060596439,21.213203435596427,37.33630940518894,41.43669871020132,23.769728648009426,99.84988733093293,78.63841300535,56.5,58.0,40.0,26.0,50.0,30.0,17.0,15.033296378372908,14.142135623730951,14.0,39.0,54.0,51.15662224971465
209,209,41.048751503547585,125.15989773086265,12.041594578792296,21.213203435596427,35.22782990761707,39.45883931389772,23.769728648009426,97.73944955850733,76.53103945458993,55.5,56.0,39.0,24.5,49.5,29.5,15.5,15.033296378372908,13.152946437965905,14.0,39.0,53.0,44.04543109109048
210,210,40.11234224026316,120.66896867049125,12.041594578792296,19.235384061671343,33.37663853655727,36.345563690772494,25.709920264364882,96.87620966986684,77.64663547121665,57.0,61.0,41.0,26.0,45.0,26.0,18.0,16.1245154965971,15.132745950421556,14.5,40.0,55.0,43.104524124504614
211,211,33.13608305156178,118.06777714516353,11.045361017187261,20.223748416156685,31.575306807693888,35.510561809129406,26.68332812825267,90.93404203047393,70.71067811865476,53.5,61.0,39.0,24.0,40.0,20.0,17.0,16.1245154965971,15.297058540778355,15.0,40.0,54.0,43.04648650006177
212,212,28.160255680657446,115.31695452100702,12.165525060596439,21.213203435596427,30.59411708155671,34.713109915419565,27.294688127912362,88.81441324469807,67.60177512462228,53.0,60.0,37.0,21.5,39.5,20.5,13.5,15.033296378372908,14.317821063276353,14.0,36.0,53.0,43.104524124504614
213,213,3.605551275463989,97.29337079164233,13.152946437965905,20.223748416156685,24.515301344262525,27.65863337187866,35.510561809129406,71.386273190299,51.19570294468082,49.0,61.0,40.0,15.5,19.5,0.5,5.5,16.1245154965971,14.317821063276353,14.0,36.0,55.0,44.10215414239989
214,214,2.23606797749979,93.17188417113823,14.035668847618199,20.396078054371138,24.73863375370596,27.65863337187866,36.138621999185304,71.80529228406496,51.419840528729765,49.5,60.0,40.0,15.0,20.0,1.0,5.0,16.1245154965971,14.317821063276353,14.5,36.0,56.0,46.17358552246078
215,215,4.242640687119285,97.74456506629922,13.152946437965905,18.24828759089466,26.68332812825267,28.861739379323623,37.107950630558946,72.03471385380801,53.85164807134504,50.5,61.0,38.0,13.5,20.5,3.5,4.5,15.033296378372908,14.560219778561036,14.0,35.0,58.0,45.27692569068709
216,216,7.211102550927978,108.17116066678771,15.132745950421556,23.345235059857504,27.892651361962706,29.832867780352597,33.95585369269929,79.07591289387686,55.78530272392541,51.0,60.0,34.0,14.0,30.0,9.0,3.0,16.1245154965971,14.317821063276353,14.5,32.0,58.0,45.5411901469428
217,217,21.37755832643195,105.77334257741882,14.142135623730951,25.495097567963924,28.861739379323623,32.01562118716424,32.28002478313795,93.17188417113823,67.68308503607086,55.5,62.0,34.0,17.0,43.0,20.0,7.0,17.11724276862369,15.811388300841896,15.5,31.0,60.0,50.635955604688654
218,218,33.37663853655727,119.81652640600127,12.36931687685298,22.561028345356956,31.04834939252005,32.984845004941285,30.675723300355934,98.71676655968832,76.15773105863909,57.5,59.0,29.0,15.0,52.0,31.0,8.0,18.110770276274835,16.76305461424021,16.5,30.0,60.0,49.64876634922564
219,219,32.38826948140329,123.9395013706284,12.36931687685298,23.53720459187964,30.805843601498726,36.138621999185304,29.410882339705484,97.51410154434076,73.97972695272672,56.0,55.0,24.0,11.5,55.5,34.5,3.5,19.1049731745428,18.027756377319946,17.5,29.0,62.0,52.952809179494906
220,220,29.427877939124322,120.78493283518438,12.165525060596439,23.53720459187964,30.805843601498726,33.95585369269929,27.85677655436824,92.64987857520376,69.12307863514182,52.5,52.0,22.0,11.0,53.0,31.0,4.0,18.027756377319946,16.76305461424021,17.0,29.0,61.0,51.97114584074513
221,221,32.2490309931942,122.97154142320898,11.40175425099138,21.840329667841555,27.892651361962706,31.04834939252005,27.85677655436824,92.89241088485109,71.06335201775947,53.0,50.0,19.0,8.5,55.5,35.5,2.5,19.026297590440446,18.973665961010276,18.5,28.0,61.0,54.74486277268398
222,222,30.4138126514911,121.75385004179539,11.40175425099138,24.515301344262525,30.805843601498726,32.984845004941285,26.570660511172846,92.64987857520376,68.15423684555495,51.0,47.0,17.0,7.0,58.0,36.0,1.0,19.026297590440446,18.973665961010276,19.0,28.0,61.0,53.9351462406472
223,223,25.495097567963924,126.84636376341263,11.180339887498949,23.53720459187964,32.01562118716424,34.92849839314596,27.313000567495326,87.09190547921202,63.60031446463138,48.5,45.0,14.0,4.5,54.5,33.5,0.5,19.026297590440446,18.027756377319946,17.5,28.0,59.0,56.88585061331157
224,224,25.317977802344327,127.57742747053649,12.36931687685298,22.561028345356956,32.01562118716424,35.17101079013795,25.632011235952593,85.61541917201598,63.06346010171025,48.5,45.0,15.0,6.0,53.0,33.0,0.0,19.026297590440446,17.72004514666935,18.0,30.0,61.0,52.952809179494906
225,225,28.284271247461902,129.52219886953742,11.40175425099138,22.360679774997898,33.95585369269929,36.87817782917155,26.570660511172846,88.29496021857646,65.96969000988257,50.0,44.0,14.0,4.0,57.0,37.0,1.0,18.027756377319946,18.027756377319946,17.5,30.0,61.0,51.97114584074513
226,226,32.38826948140329,131.46862743635836,11.180339887498949,24.515301344262525,35.17101079013795,38.07886552931954,25.079872407968907,92.64987857520376,68.15423684555495,50.0,43.0,13.0,5.0,62.0,40.0,0.0,18.027756377319946,18.973665961010276,18.5,30.0,61.0,54.91812087098393
227,227,40.19950248448356,133.41664064126334,12.36931687685298,21.840329667841555,33.734255586866,37.36308338453881,24.698178070456937,98.48857801796105,76.68767828015137,55.0,49.0,19.0,11.0,62.0,42.0,4.0,19.1049731745428,18.027756377319946,18.0,30.0,62.0,49.03060268852505
228,228,39.20459156782532,130.49521064008442,10.44030650891055,21.840329667841555,34.92849839314596,38.07886552931954,26.570660511172846,97.51410154434076,75.7099729229908,54.5,50.0,20.0,10.0,60.0,40.0,5.0,20.09975124224178,18.973665961010276,18.5,29.0,63.0,52.952809179494906
229,229,38.2099463490856,123.22743201089601,10.44030650891055,21.840329667841555,34.20526275297414,36.40054944640259,27.51363298439521,97.51410154434076,75.7099729229908,55.0,53.0,21.0,11.0,58.0,39.0,7.0,19.1049731745428,18.973665961010276,18.5,30.0,64.0,53.75872022286245
230,230,19.4164878389476,116.66190466471906,13.341664064126334,21.840329667841555,28.861739379323623,32.01562118716424,28.460498941515414,82.96987405076617,61.1310068623117,49.5,52.0,23.0,10.5,42.5,22.5,2.5,20.024984394500787,18.973665961010276,19.0,29.0,60.0,50.80354318352215
231,231,13.0,105.51303237041384,14.142135623730951,23.53720459187964,27.892651361962706,29.832867780352597,27.51363298439521,77.88452991448301,54.405882034941776,46.0,49.0,22.0,9.5,39.5,17.5,0.5,19.026297590440446,18.681541692269406,19.0,28.0,58.0,47.853944456021594
232,232,3.1622776601683795,96.84007434941384,11.180339887498949,19.6468827043885,22.135943621178654,24.041630560342615,37.36308338453881,69.92138442565336,50.28916384272063,47.5,54.0,27.0,4.5,26.5,9.5,1.5,19.026297590440446,18.681541692269406,18.0,27.0,58.0,50.635955604688654
233,233,4.0,96.84007434941384,12.165525060596439,21.587033144922902,21.840329667841555,24.041630560342615,35.90264614203248,70.60453243241541,49.040799340956916,47.0,53.0,26.0,4.5,28.5,8.5,2.5,19.0,18.681541692269406,18.5,29.0,58.0,48.662100242385755
234,234,3.1622776601683795,100.68763578513501,11.40175425099138,20.396078054371138,22.80350850198276,24.041630560342615,35.6931365951495,69.12307863514182,48.76474136094644,46.5,54.0,27.0,5.5,26.5,8.5,1.5,19.0,17.46424919657298,17.5,28.0,57.0,48.662100242385755
235,235,3.605551275463989,102.1077861869505,12.165525060596439,18.439088914585774,24.73863375370596,26.92582403567252,35.17101079013795,68.41052550594829,50.0,47.0,54.0,29.0,7.5,24.5,8.5,0.5,16.0312195418814,15.297058540778355,15.5,29.0,55.0,49.36598018878993
236,236,12.649110640673518,109.65856099730654,13.152946437965905,20.223748416156685,28.635642126552707,30.083217912982647,32.984845004941285,78.85429601486528,58.69412236331676,51.0,55.0,31.0,11.0,34.0,15.0,2.0,18.0,15.524174696260024,15.5,30.0,52.0,48.662100242385755
237,237,24.331050121192877,112.58774356030055,11.180339887498949,23.345235059857504,27.65863337187866,31.78049716414141,30.083217912982647,88.84255736976509,65.5133574166368,52.0,54.0,30.0,13.0,45.0,22.0,7.0,17.029386365926403,14.317821063276353,14.5,31.0,52.0,46.2709412050371
238,238,36.124783736376884,119.05040949110591,11.180339887498949,22.360679774997898,31.575306807693888,36.6742416417845,27.892651361962706,97.32420048477151,74.96665925596525,56.0,53.0,31.0,15.0,54.0,32.0,9.0,16.0312195418814,15.297058540778355,15.5,33.0,52.0,46.17358552246078
239,239,40.11234224026316,117.38824472663352,11.180339887498949,21.37755832643195,32.38826948140329,36.49657518178932,26.92582403567252,99.29753269845128,77.92945527847606,57.0,54.0,36.0,19.0,53.0,31.0,12.0,16.0312195418814,15.297058540778355,15.0,33.0,51.0,45.09988913511872
240,240,40.11234224026316,123.17873193047572,11.045361017187261,21.213203435596427,35.22782990761707,38.3275357934736,25.709920264364882,97.86725703727473,76.6550715869472,56.0,53.0,36.0,19.5,52.5,31.5,11.5,17.029386365926403,15.297058540778355,15.0,34.0,49.0,43.04648650006177
241,241,38.118237105091836,121.06196760337245,11.180339887498949,22.20360331117452,35.22782990761707,38.2099463490856,23.53720459187964,94.89467845985885,72.69112738154499,53.0,54.0,38.0,23.0,48.0,26.0,14.0,16.0312195418814,14.317821063276353,14.5,33.0,46.0,44.01136216933077
242,242,38.05259518088089,122.494897852931,12.041594578792296,20.223748416156685,36.05551275463989,39.11521443121589,22.360679774997898,92.5418824100742,72.3394774656273,53.0,54.0,43.0,26.5,43.5,22.5,15.5,14.035668847618199,13.038404810405298,13.0,37.0,47.0,42.01190307520001
243,243,37.05401462729781,121.41251994749142,13.038404810405298,22.090722034374522,34.132096331752024,38.118237105091836,22.20360331117452,94.33981132056604,72.24956747275377,53.5,55.0,45.0,28.0,44.0,22.0,17.0,14.0,14.142135623730951,13.5,38.0,46.0,41.0
244,244,46.17358552246078,123.58397954427588,13.038404810405298,22.090722034374522,32.14031735997639,36.05551275463989,23.194827009486403,104.47966309287182,82.38931969618392,59.0,46.0,58.0,29.0,52.0,27.0,15.0,12.165525060596439,12.165525060596439,12.5,59.0,34.0,49.47726750741192
245,245,38.05259518088089,121.69634341261039,14.142135623730951,23.08679276123039,34.23448553724738,37.12142238654117,22.090722034374522,97.32933781753577,74.24284477308234,55.0,41.0,54.0,25.5,49.5,22.5,10.5,9.055385138137417,8.246211251235321,8.5,57.0,35.0,50.00999900019995
246,246,35.05709628591621,118.51160280748886,14.035668847618199,21.095023109728988,33.13608305156178,36.05551275463989,22.090722034374522,92.26592003551474,71.17583859709698,53.5,42.0,53.0,25.5,44.5,20.5,11.5,9.219544457292887,9.219544457292887,9.0,60.0,37.0,55.731499172371095
247,247,36.05551275463989,115.52488909321661,14.035668847618199,22.090722034374522,33.13608305156178,37.05401462729781,21.02379604162864,93.1933474020544,71.11258679024411,53.0,43.0,54.0,27.5,44.5,19.5,12.5,13.152946437965905,12.165525060596439,12.5,60.0,37.0,54.91812087098393
248,248,37.05401462729781,117.34564329364768,15.033296378372908,22.090722034374522,35.05709628591621,38.01315561749642,22.090722034374522,96.25487000666512,74.16872656315464,55.5,47.0,56.0,29.5,44.5,19.5,14.5,14.142135623730951,14.142135623730951,14.0,59.0,37.0,46.32493928760188
249,249,44.10215414239989,117.51595636338071,13.038404810405298,23.08679276123039,32.14031735997639,37.05401462729781,23.194827009486403,103.39245620450265,80.30566605165541,58.0,46.0,57.0,28.5,51.5,25.5,14.5,14.142135623730951,13.038404810405298,13.0,58.0,37.0,47.07440918375928
250,250,48.093658625644196,121.59358535712317,13.038404810405298,22.20360331117452,33.24154027718932,37.05401462729781,22.20360331117452,105.47511554864494,83.2946576918352,59.0,46.0,58.0,30.0,53.0,28.0,15.0,14.142135623730951,13.038404810405298,13.5,57.0,35.0,49.64876634922564
251,251,49.09175083453431,121.41251994749142,13.152946437965905,22.090722034374522,33.06055050963308,37.05401462729781,22.090722034374522,106.38138934982942,84.29116205154607,59.5,47.0,57.0,30.0,54.0,29.0,17.0,12.165525060596439,12.165525060596439,12.0,58.0,36.0,48.662100242385755
252,252,45.09988913511872,121.49897118905987,13.152946437965905,21.095023109728988,32.14031735997639,36.05551275463989,24.020824298928627,103.31021246711285,82.21921916437786,59.5,48.0,59.0,29.5,49.5,25.5,15.5,13.152946437965905,12.165525060596439,12.5,58.0,34.0,47.67598976424087
253,253,42.1070065428546,119.70797801316336,13.152946437965905,21.095023109728988,33.13608305156178,37.05401462729781,22.20360331117452,98.50888284819801,77.41446893184762,56.0,45.0,58.0,29.5,46.5,22.5,15.5,14.142135623730951,13.152946437965905,13.5,60.0,34.0,47.07440918375928
254,254,34.132096331752024,114.73883387938018,13.038404810405298,22.090722034374522,32.14031735997639,36.124783736376884,23.194827009486403,92.43916918709297,70.34912934784623,53.0,45.0,58.0,28.5,40.5,16.5,14.5,14.142135623730951,13.341664064126334,13.5,59.0,34.0,43.93176527297759
255,255,35.014282800023196,113.44161493913951,13.152946437965905,21.095023109728988,32.0624390837628,35.014282800023196,22.20360331117452,91.35097153287424,70.25667228100119,52.5,45.0,55.0,28.0,41.0,18.0,15.0,14.317821063276353,13.152946437965905,13.0,60.0,33.0,44.14748010928823
256,256,30.01666203960727,113.44161493913951,13.152946437965905,19.235384061671343,32.0624390837628,34.058772731852805,23.021728866442675,85.28774824088158,66.12110101926616,51.0,45.0,55.0,27.0,35.0,14.0,14.0,14.142135623730951,14.142135623730951,14.5,64.0,37.0,46.87216658103186
257,257,27.0,106.16967551989597,13.152946437965905,21.213203435596427,28.0178514522438,32.01562118716424,26.019223662515376,87.20665112249179,66.06814663663572,52.5,45.0,51.0,22.0,39.0,16.0,9.0,14.317821063276353,13.341664064126334,13.0,62.0,34.0,47.853944456021594
258,258,19.026297590440446,104.17293314484334,14.035668847618199,20.09975124224178,27.018512172212592,29.0,27.018512172212592,80.15609770940699,60.07495318350236,50.5,44.0,50.0,20.0,33.0,11.0,7.0,14.142135623730951,12.165525060596439,12.5,61.0,33.0,46.09772228646444
259,259,21.0,103.1746092796091,12.165525060596439,21.095023109728988,26.0,28.0178514522438,28.0178514522438,82.05485969764375,61.00819617067857,50.5,43.0,49.0,18.0,36.0,12.0,7.0,15.132745950421556,14.142135623730951,14.0,61.0,34.0,53.75872022286245
260,260,13.038404810405298,103.1746092796091,13.152946437965905,19.1049731745428,28.0178514522438,29.017236257093817,28.0178514522438,73.24616030891995,54.147945482723536,47.5,42.0,48.0,17.0,28.0,7.0,5.0,15.297058540778355,13.152946437965905,13.5,60.0,34.0,50.99019513592785
261,261,13.038404810405298,103.23759005323593,13.152946437965905,18.110770276274835,26.019223662515376,29.0,27.0,71.17583859709698,53.08483775994799,46.5,40.0,47.0,16.5,27.5,6.5,3.5,15.297058540778355,15.132745950421556,15.0,61.0,34.0,51.97114584074513
262,262,18.110770276274835,104.30723848324239,12.165525060596439,18.110770276274835,28.0178514522438,31.016124838541646,27.0,75.23961722390672,57.14017850864661,48.0,41.0,49.0,18.0,30.0,9.0,7.0,15.132745950421556,13.152946437965905,13.0,62.0,35.0,47.67598976424087
263,263,24.186773244895647,109.45775440780794,13.152946437965905,24.08318915758459,29.154759474226502,31.016124838541646,27.073972741361768,88.45903006477066,64.38167441127949,52.0,41.0,51.0,19.0,42.0,15.0,6.0,15.132745950421556,14.317821063276353,15.0,63.0,38.0,58.42088667591412
264,264,33.13608305156178,119.41942890501528,12.165525060596439,25.179356624028344,32.0624390837628,35.05709628591621,25.179356624028344,95.63472172804185,70.45565981523414,53.5,40.0,50.0,20.0,50.0,22.0,8.0,15.297058540778355,15.132745950421556,15.5,63.0,37.0,54.589376255824725
265,265,32.2490309931942,124.57929201917949,12.041594578792296,23.194827009486403,30.14962686336267,34.0147027033899,24.08318915758459,91.54780172128658,68.3593446428504,52.0,34.0,46.0,16.0,51.0,25.0,4.0,15.132745950421556,14.142135623730951,14.0,64.0,37.0,51.78802950489621
266,266,35.22782990761707,124.67958934805648,11.180339887498949,21.213203435596427,33.06055050963308,37.013511046643494,26.1725046566048,93.7709976485267,72.56031973468694,54.5,35.0,48.0,15.5,51.5,27.5,4.5,15.297058540778355,13.152946437965905,14.0,62.0,35.0,52.773099207835045
267,267,35.12833614050059,123.68508398347798,12.165525060596439,22.20360331117452,32.14031735997639,36.05551275463989,25.179356624028344,94.64142856064674,72.44308110509934,54.5,35.0,48.0,16.5,52.5,27.5,4.5,15.297058540778355,14.035668847618199,14.5,62.0,36.0,54.589376255824725
268,268,37.12142238654117,120.50311199301038,12.165525060596439,22.090722034374522,32.0624390837628,36.05551275463989,23.194827009486403,94.53041838477179,72.44308110509934,53.5,36.0,47.0,18.5,52.5,26.5,6.5,15.132745950421556,13.152946437965905,14.0,61.0,35.0,55.57877292636101
269,269,36.124783736376884,121.59358535712317,12.041594578792296,22.20360331117452,33.13608305156178,37.05401462729781,24.186773244895647,94.53041838477179,72.3394774656273,54.0,37.0,49.0,19.0,51.0,26.0,7.0,16.278820596099706,14.142135623730951,14.5,62.0,37.0,54.74486277268398
270,270,38.05259518088089,121.69634341261039,11.180339887498949,21.095023109728988,32.14031735997639,37.013511046643494,24.186773244895647,94.42986815621421,73.33484846919642,54.0,37.0,50.0,19.5,50.5,26.5,7.5,15.297058540778355,13.152946437965905,14.0,61.0,34.0,57.87054518492115
271,271,39.05124837953327,119.60351165413162,12.041594578792296,22.20360331117452,33.06055050963308,36.05551275463989,22.20360331117452,95.42536350467836,73.24616030891995,53.5,39.0,51.0,23.0,50.0,25.0,10.0,15.132745950421556,13.152946437965905,14.0,57.0,34.0,52.952809179494906
272,272,44.04543109109048,119.60351165413162,13.152946437965905,22.090722034374522,31.144823004794873,35.12833614050059,22.090722034374522,101.31633629380802,79.22752047110903,57.0,44.0,56.0,28.0,51.0,26.0,14.0,17.11724276862369,15.132745950421556,15.5,57.0,33.0,55.90169943749474
273,273,44.04543109109048,113.35784048754634,13.038404810405298,22.02271554554524,30.066592756745816,34.058772731852805,22.02271554554524,101.1236866416568,79.1012010022604,57.0,47.0,56.0,29.5,49.5,24.5,16.5,16.1245154965971,16.1245154965971,16.0,56.0,36.0,50.00999900019995
274,274,31.016124838541646,108.37435120913067,12.165525060596439,20.09975124224178,28.160255680657446,31.064449134018133,24.08318915758459,87.28115489611719,67.1863081289633,51.5,50.0,59.0,30.5,32.5,10.5,17.5,16.1245154965971,14.142135623730951,14.5,54.0,32.0,52.172789842982326
275,275,21.0,105.23307464861035,11.045361017187261,20.024984394500787,25.019992006393608,27.018512172212592,25.019992006393608,77.05841939723393,57.0350769263968,46.5,49.0,56.0,27.5,24.5,2.5,16.5,15.132745950421556,15.132745950421556,15.0,60.0,39.0,53.36665625650534
276,276,22.02271554554524,104.17293314484334,12.041594578792296,17.029386365926403,26.019223662515376,28.0178514522438,24.08318915758459,75.16648189186454,58.137767414994535,47.0,49.0,55.0,28.0,23.0,5.0,16.0,15.132745950421556,14.142135623730951,14.5,55.0,34.0,50.99019513592785
277,277,23.021728866442675,104.0768946500615,11.045361017187261,16.0312195418814,25.0,27.0,23.08679276123039,73.06161783043132,57.0350769263968,45.5,48.0,52.0,27.0,23.0,5.0,17.0,14.142135623730951,13.152946437965905,13.5,55.0,34.0,47.29693436154187
278,278,22.0,104.0768946500615,11.045361017187261,18.027756377319946,28.0,30.0,23.021728866442675,74.06078584514209,56.0357029044876,45.0,50.0,54.0,29.0,22.0,3.0,18.0,14.035668847618199,13.341664064126334,13.5,56.0,39.0,51.97114584074513
279,279,18.0,97.04638066409278,12.041594578792296,20.024984394500787,24.020824298928627,25.019992006393608,26.019223662515376,76.05918747922567,56.0357029044876,47.0,56.0,59.0,31.5,18.5,3.5,18.5,14.142135623730951,14.142135623730951,14.0,55.0,37.0,55.90169943749474
280,280,19.026297590440446,88.09086218218096,17.029386365926403,24.08318915758459,22.02271554554524,24.020824298928627,28.071337695236398,88.09086218218096,64.03124237432849,54.5,61.0,65.0,35.0,25.0,1.0,18.0,14.035668847618199,13.341664064126334,14.0,54.0,38.0,51.62363799656123
281,281,25.0,87.02298546935747,15.033296378372908,23.021728866442675,22.02271554554524,25.0,29.0,92.02173656261873,69.00724599634447,56.5,65.0,67.0,37.0,26.0,2.0,21.0,15.033296378372908,13.341664064126334,13.5,53.0,37.0,51.97114584074513
282,282,23.021728866442675,89.00561780022652,16.0312195418814,23.0,24.0,27.018512172212592,33.0,95.02105029939419,72.02777242147643,60.5,64.0,65.0,31.5,30.5,6.5,15.5,13.038404810405298,11.40175425099138,12.0,51.0,35.0,54.74486277268398
283,283,20.024984394500787,87.05170877128145,16.0312195418814,24.0,25.0,27.018512172212592,35.05709628591621,95.0,71.0,61.0,65.0,68.0,31.5,28.5,2.5,16.5,11.0,9.219544457292887,9.0,51.0,35.0,50.00999900019995
284,284,18.0,90.0222194794152,15.033296378372908,21.0,25.019992006393608,27.073972741361768,34.0147027033899,88.0,67.0,58.0,64.0,62.0,29.0,25.0,2.0,15.0,6.0,6.324555320336759,6.0,50.0,34.0,46.87216658103186
285,285,3.1622776601683795,95.0,15.033296378372908,20.0,25.0,25.0,32.0,70.0,50.0,48.5,56.0,56.0,24.0,14.0,7.0,10.0,5.0,4.47213595499958,4.0,47.0,36.0,41.773197148410844
286,286,1.0,105.01904589168576,14.0,18.0,26.019223662515376,27.018512172212592,29.0,61.00819617067857,43.01162633521314,43.0,50.0,52.0,22.0,10.0,9.0,8.0,4.0,3.605551275463989,3.5,51.0,37.0,40.024992192379
287,287,11.0,108.07404868885037,14.035668847618199,19.026297590440446,26.019223662515376,28.0,28.0178514522438,72.00694410957877,53.0,47.5,51.0,55.0,25.0,19.0,1.0,11.0,4.0,5.385164807134504,4.0,52.0,39.0,44.91102314577124
288,288,14.035668847618199,110.04090148667449,14.035668847618199,19.026297590440446,26.019223662515376,28.0178514522438,28.0,75.05997601918082,56.0357029044876,49.0,50.0,53.0,23.5,23.5,3.5,9.5,4.0,5.830951894845301,4.5,52.0,38.0,41.773197148410844
289,289,23.021728866442675,112.11155159036913,11.045361017187261,21.095023109728988,30.066592756745816,32.0624390837628,28.071337695236398,83.02409288875127,62.0,50.5,49.0,54.0,23.5,31.5,8.5,12.5,5.0,5.385164807134504,4.5,52.0,38.0,42.7551166528639
290,290,44.04543109109048,119.10499569707393,11.045361017187261,22.02271554554524,34.058772731852805,38.01315561749642,23.021728866442675,100.04498987955368,78.02563681252464,56.0,52.0,57.0,31.5,45.5,20.5,19.5,5.0,4.47213595499958,4.0,53.0,37.0,42.20189569201838
291,291,46.04345773288535,123.3288287465668,12.165525060596439,23.08679276123039,36.124783736376884,39.05124837953327,23.021728866442675,104.12012293500234,81.05553651663777,58.0,49.0,58.0,30.5,50.5,23.5,17.5,3.1622776601683795,5.0,4.0,56.0,39.0,43.93176527297759
292,292,46.010868281309364,122.58874336577564,12.041594578792296,23.08679276123039,36.05551275463989,40.11234224026316,23.021728866442675,104.12012293500234,81.05553651663777,58.0,45.0,57.0,28.0,53.0,26.0,16.0,4.0,5.0,4.0,57.0,38.0,46.32493928760188
293,293,45.044422518220834,123.58397954427588,12.165525060596439,23.08679276123039,33.13608305156178,37.12142238654117,25.019992006393608,105.23307464861035,82.15229759416349,59.5,46.0,58.0,27.0,53.0,25.0,14.0,6.082762530298219,6.324555320336759,5.5,61.0,39.0,45.60701700396552
294,294,36.124783736376884,119.82069938036582,12.041594578792296,24.186773244895647,29.154759474226502,34.23448553724738,27.0,99.24716620639605,75.1065909225016,57.0,43.0,57.0,23.0,49.0,21.0,11.0,6.082762530298219,5.385164807134504,5.0,62.0,38.0,46.09772228646444
295,295,32.0624390837628,112.53888216967503,11.180339887498949,24.186773244895647,29.068883707497267,32.14031735997639,30.0,97.25224933131366,73.10950690573696,57.0,43.0,54.0,18.5,48.5,20.5,7.5,5.385164807134504,5.385164807134504,4.5,61.0,37.0,44.384682042344295
296,296,19.235384061671343,110.0272693471941,13.152946437965905,26.1725046566048,29.274562336608895,33.24154027718932,33.0,91.35097153287424,65.19202405202648,55.5,43.0,58.0,17.5,40.5,10.5,3.5,6.324555320336759,6.708203932499369,6.0,59.0,33.0,47.07440918375928
297,297,4.47213595499958,102.82509421342633,15.132745950421556,27.16615541441225,27.16615541441225,30.14962686336267,38.01315561749642,84.38009243891595,57.21887800367987,55.0,44.0,57.0,12.5,33.5,3.5,2.5,9.486832980505138,8.246211251235321,8.5,60.0,33.0,47.853944456021594
298,298,1.4142135623730951,101.83319694480774,15.132745950421556,25.079872407968907,28.284271247461902,30.265491900843113,38.01315561749642,77.23341245859851,52.15361924162119,52.5,43.0,56.0,11.5,27.5,1.5,3.5,14.560219778561036,12.041594578792296,12.5,61.0,33.0,49.24428900898052
299,299,1.4142135623730951,102.95630140987001,14.142135623730951,23.194827009486403,28.442925306655784,30.14962686336267,38.118237105091836,74.54528824815154,51.35172830587107,51.5,40.0,54.0,9.0,27.0,1.0,6.0,15.297058540778355,14.035668847618199,13.5,59.0,31.0,48.05205510693585
300,300,2.23606797749979,101.83319694480774,13.038404810405298,24.186773244895647,27.294688127912362,29.154759474226502,37.05401462729781,75.4254598925323,51.24451190127583,50.5,40.0,53.0,9.5,28.5,1.5,4.5,17.72004514666935,15.033296378372908,15.5,59.0,31.0,52.172789842982326
301,301,17.11724276862369,109.89540481748998,13.152946437965905,28.160255680657446,28.284271247461902,31.25699921617557,30.01666203960727,88.36288813749809,60.207972893961475,51.5,37.0,51.0,14.0,44.0,13.0,0.0,16.492422502470642,15.0,15.5,57.0,29.0,50.21951811795888
302,302,37.12142238654117,121.19818480488888,13.152946437965905,26.1725046566048,30.4138126514911,34.23448553724738,27.073972741361768,103.4842983258813,77.31752712031083,58.5,34.0,51.0,15.5,60.5,29.5,1.5,17.46424919657298,16.0312195418814,16.0,58.0,30.0,54.12947441089743
303,303,39.11521443121589,126.01983970788092,14.142135623730951,26.1725046566048,33.37663853655727,36.22154055254967,24.020824298928627,103.39245620450265,77.23341245859851,57.5,30.0,46.0,14.0,65.0,34.0,1.0,16.492422502470642,15.033296378372908,16.0,56.0,30.0,50.80354318352215
304,304,40.11234224026316,127.4244874425634,13.152946437965905,26.30589287593181,33.37663853655727,37.33630940518894,24.020824298928627,103.4842983258813,77.23341245859851,57.0,27.0,46.0,12.5,66.5,35.5,1.5,17.26267650163207,15.0,15.5,56.0,30.0,50.80354318352215
305,305,35.05709628591621,127.1416532848303,13.152946437965905,27.294688127912362,33.37663853655727,38.3275357934736,24.08318915758459,99.50376877284599,72.24956747275377,54.5,28.0,45.0,12.5,62.5,30.5,1.5,18.439088914585774,17.029386365926403,16.5,56.0,30.0,51.97114584074513
306,306,37.05401462729781,129.40247292845683,13.152946437965905,25.317977802344327,34.23448553724738,38.3275357934736,24.020824298928627,99.40824915468535,74.16872656315464,55.5,26.0,45.0,11.5,63.5,33.5,2.5,17.26267650163207,16.0,16.5,56.0,30.0,53.9351462406472
307,307,36.124783736376884,127.57742747053649,12.165525060596439,24.331050121192877,34.23448553724738,38.3275357934736,24.186773244895647,96.74709297958259,72.44308110509934,54.0,25.0,45.0,11.0,61.0,32.0,2.0,18.439088914585774,17.029386365926403,17.0,56.0,29.0,53.9351462406472
308,308,36.22154055254967,130.23056476879765,12.165525060596439,24.331050121192877,34.52535300326414,37.656340767525464,25.317977802344327,98.00510190801293,73.68174807915459,55.0,22.0,46.0,9.0,63.0,33.0,4.0,18.439088914585774,16.0312195418814,16.5,58.0,28.0,51.419840528729765
309,309,36.22154055254967,132.38202294873727,13.152946437965905,26.476404589747453,34.52535300326414,39.81205847478876,24.515301344262525,100.2845950283492,73.824115301167,55.0,23.0,48.0,11.5,63.5,31.5,2.5,18.439088914585774,16.1245154965971,16.5,60.0,26.0,52.392747589718944
310,310,48.25971404805462,132.9812016790343,12.36931687685298,25.495097567963924,35.90264614203248,40.792156108742276,25.179356624028344,111.15754585272202,85.70880934886448,61.0,24.0,52.0,13.0,72.0,40.0,1.0,18.439088914585774,17.11724276862369,16.5,62.0,25.0,53.600373133029585
311,311,49.16299421312742,122.78436382536663,11.40175425099138,24.73863375370596,30.805843601498726,34.713109915419565,26.30589287593181,111.30588483993108,86.70063436907483,61.5,31.0,57.0,18.0,66.0,36.0,5.0,17.72004514666935,16.1245154965971,15.5,65.0,24.0,48.76474136094644
312,312,44.10215414239989,112.58774356030055,11.704699910719626,24.73863375370596,26.92582403567252,32.7566787083184,27.294688127912362,107.35455276791944,82.73451516749222,60.0,35.0,59.0,20.0,59.0,29.0,6.0,17.72004514666935,16.1245154965971,16.0,67.0,23.0,52.20153254455275
313,313,27.16615541441225,105.72133181151285,12.36931687685298,24.515301344262525,25.495097567963924,28.442925306655784,31.064449134018133,94.89467845985885,70.45565981523414,56.5,39.0,58.0,17.5,45.5,17.5,3.5,18.027756377319946,16.278820596099706,16.0,64.0,21.0,51.92301994298868
314,314,1.4142135623730951,98.65596788841515,13.341664064126334,18.681541692269406,24.331050121192877,25.317977802344327,37.12142238654117,68.06614430096654,49.49747468305833,49.5,37.0,55.0,9.0,21.0,1.0,5.0,19.313207915827967,17.26267650163207,16.5,64.0,22.0,49.040799340956916
315,315,2.0,98.65596788841515,14.142135623730951,18.681541692269406,26.30589287593181,27.459060435491963,35.35533905932738,68.4470598345904,49.8196748283246,49.0,35.0,53.0,9.0,23.0,0.0,5.0,17.72004514666935,16.278820596099706,16.0,63.0,22.0,49.040799340956916
316,316,2.0,104.7377677822093,14.317821063276353,21.587033144922902,27.459060435491963,30.4138126514911,36.22154055254967,72.3671196055225,50.80354318352215,50.0,36.0,55.0,9.5,25.5,0.5,5.5,17.72004514666935,16.1245154965971,16.0,63.0,23.0,49.040799340956916
317,317,16.278820596099706,112.17842929904127,13.341664064126334,24.515301344262525,28.635642126552707,32.55764119219941,31.144823004794873,85.15867542417507,60.67124524847005,52.0,34.0,56.0,14.0,39.0,10.0,1.0,18.027756377319946,16.278820596099706,16.5,61.0,23.0,47.80167361086848
318,317,6.082762530298219,49.8196748283246,6.324555320336759,8.54400374531753,13.341664064126334,15.297058540778355,18.24828759089466,39.05124837953327,30.59411708155671,27.0,24.0,33.0,10.5,9.5,0.5,3.5,5.385164807134504,6.324555320336759,6.0,30.0,13.0,17.46424919657298
319,318,27.294688127912362,114.33722053644648,12.165525060596439,23.53720459187964,29.614185789921695,33.54101966249684,29.154759474226502,92.07062506576133,68.59300255857006,54.5,33.0,56.0,15.5,46.5,18.5,2.5,17.46424919657298,16.1245154965971,16.5,63.0,25.0,49.72926703662542
320,319,33.06055050963308,116.49892703368559,11.40175425099138,24.515301344262525,31.575306807693888,35.510561809129406,27.294688127912362,96.0260381354974,71.56814934033156,54.5,33.0,57.0,18.0,50.0,20.0,5.0,16.492422502470642,16.1245154965971,16.0,62.0,26.0,46.84015371452148
321,320,35.12833614050059,118.25819210524064,12.36931687685298,23.53720459187964,32.55764119219941,37.656340767525464,27.16615541441225,98.00510190801293,74.54528824815154,56.5,36.0,59.0,20.5,49.5,20.5,6.5,16.492422502470642,15.033296378372908,14.5,60.0,26.0,45.880278987817846
322,321,40.01249804748511,105.11898020814318,13.038404810405298,22.02271554554524,30.01666203960727,35.05709628591621,25.317977802344327,100.24470060806208,78.23042886243178,58.0,61.0,56.0,33.5,41.5,18.5,21.5,17.0,15.132745950421556,16.0,43.0,47.0,41.012193308819754
323,322,34.0147027033899,102.23991392797629,11.045361017187261,21.02379604162864,28.0178514522438,32.0624390837628,29.427877939124322,95.33624704172071,74.33034373659252,57.0,60.0,53.0,27.5,38.5,16.5,17.5,14.0,13.038404810405298,13.0,43.0,46.0,40.01249804748511
324,323,14.035668847618199,95.13148795220224,12.0,19.026297590440446,25.079872407968907,27.018512172212592,31.400636936215164,76.32168761236873,57.3149195236284,50.0,53.0,48.0,19.5,25.5,5.5,9.5,12.0,11.045361017187261,11.0,42.0,45.0,43.01162633521314
325,324,12.0,96.08329719571451,13.038404810405298,20.024984394500787,25.019992006393608,27.018512172212592,30.14962686336267,75.16648189186454,55.14526271584895,49.0,50.0,46.0,18.0,27.0,6.0,6.0,11.0,10.04987562112089,10.0,41.0,44.0,46.0
326,325,20.024984394500787,100.07996802557443,12.0,21.02379604162864,26.0,28.0,29.274562336608895,82.21921916437786,61.204574992397426,51.0,50.0,46.0,19.0,34.0,11.0,7.0,12.041594578792296,12.041594578792296,11.5,42.0,44.0,44.0
327,326,24.0,104.01922899156675,12.041594578792296,21.0,27.0,30.01666203960727,28.160255680657446,85.09406559801923,64.1248781675256,52.0,49.0,47.0,20.0,37.0,14.0,9.0,11.045361017187261,11.045361017187261,10.5,42.0,45.0,44.04543109109048
328,327,31.064449134018133,104.01922899156675,11.045361017187261,22.0,29.0,32.0,26.30589287593181,90.27181176868004,68.3593446428504,52.5,48.0,46.0,21.0,43.0,19.0,10.0,11.045361017187261,10.04987562112089,9.5,41.0,43.0,45.09988913511872
329,328,30.01666203960727,106.00471687618433,11.045361017187261,20.0,30.01666203960727,33.06055050963308,26.1725046566048,87.14355971613737,67.1863081289633,52.0,47.0,48.0,21.5,39.5,17.5,10.5,11.045361017187261,11.045361017187261,10.5,42.0,44.0,42.01190307520001
330,329,32.01562118716424,107.0,12.041594578792296,20.024984394500787,29.017236257093817,33.015148038438355,26.1725046566048,90.19977827023745,70.178344238091,54.0,48.0,48.0,22.0,42.0,19.0,10.0,11.045361017187261,10.0,9.5,41.0,43.0,42.01190307520001
331,330,36.05551275463989,107.00467279516349,11.0,20.0,30.0,34.0147027033899,26.30589287593181,93.1933474020544,73.24616030891995,55.0,49.0,50.0,23.5,43.5,20.5,13.5,11.045361017187261,11.045361017187261,10.5,40.0,42.0,41.048751503547585
332,331,39.05124837953327,108.00462953040486,12.041594578792296,21.0,30.0,34.0147027033899,25.179356624028344,97.18538984847466,76.23647421018367,56.5,49.0,50.0,24.5,47.5,23.5,13.5,11.0,11.0,10.5,40.0,43.0,43.04648650006177
333,332,42.01190307520001,108.0,11.045361017187261,22.0,30.01666203960727,33.015148038438355,25.179356624028344,100.12492197250393,78.16009211867653,57.0,51.0,51.0,26.0,49.0,24.0,15.0,11.045361017187261,11.045361017187261,10.5,42.0,42.0,41.048751503547585
334,333,39.05124837953327,107.01868995647442,11.0,20.0,28.0178514522438,32.01562118716424,28.284271247461902,98.18350166906862,78.23042886243178,58.5,50.0,52.0,23.0,47.0,24.0,13.0,11.045361017187261,10.04987562112089,9.5,41.0,42.0,41.048751503547585
335,334,13.038404810405298,91.0,14.035668847618199,24.0,22.0,25.019992006393608,31.064449134018133,82.09750300709517,58.137767414994535,51.5,53.0,53.0,22.0,29.0,3.0,9.0,13.0,13.0,12.5,44.0,44.0,44.0
336,335,5.0,91.0,14.0,22.0,22.0,25.0,33.13608305156178,74.06078584514209,52.08646657242167,49.5,49.0,49.0,16.0,25.0,1.0,3.0,12.041594578792296,12.041594578792296,11.5,43.0,42.0,44.0
337,336,6.082762530298219,88.0,15.0,24.0,21.0,23.021728866442675,31.016124838541646,76.02631123499285,52.03844732503075,49.0,52.0,52.0,21.0,24.0,1.0,7.0,13.038404810405298,12.0,11.5,43.0,42.0,41.0
338,337,18.0,93.00537618869137,12.0,22.0,23.021728866442675,27.073972741361768,29.068883707497267,81.02468759581859,59.033888572581766,50.0,50.0,51.0,21.5,30.5,6.5,9.5,14.035668847618199,13.038404810405298,12.5,42.0,42.0,44.01136216933077
339,338,21.02379604162864,99.02019995940222,13.0,22.02271554554524,27.018512172212592,30.01666203960727,26.076809620810597,82.02438661763951,60.07495318350236,49.5,48.0,50.0,23.0,33.0,9.0,10.0,13.0,12.0,12.0,42.0,42.0,45.0111097397076
340,339,27.018512172212592,102.0196059588548,12.0,23.0,26.0,30.01666203960727,26.076809620810597,88.05112151472007,65.06919393998976,51.5,47.0,49.0,22.0,40.0,14.0,11.0,12.041594578792296,12.041594578792296,12.0,42.0,43.0,45.044422518220834
341,340,28.0178514522438,102.0196059588548,12.041594578792296,23.021728866442675,27.018512172212592,30.01666203960727,25.179356624028344,88.09086218218096,65.19202405202648,51.0,47.0,49.0,23.0,40.0,15.0,11.0,12.041594578792296,11.045361017187261,10.5,42.0,43.0,47.01063709417264
342,341,32.01562118716424,100.0199980003999,12.0,23.021728866442675,27.0,30.01666203960727,25.079872407968907,92.02173656261873,69.06518659932803,53.0,49.0,51.0,25.0,42.0,16.0,14.0,13.038404810405298,12.0,11.0,43.0,43.0,45.0111097397076
343,342,29.017236257093817,100.04498987955368,13.0,22.02271554554524,28.0,31.064449134018133,25.179356624028344,89.05054744357274,67.11929677819934,52.5,49.0,52.0,25.5,38.5,13.5,13.5,12.041594578792296,12.041594578792296,12.0,43.0,44.0,42.01190307520001
344,343,30.01666203960727,98.00510190801293,12.0,22.0,27.018512172212592,31.016124838541646,25.019992006393608,89.02246907382428,67.02984409947557,52.0,51.0,52.0,26.5,37.5,13.5,14.5,12.0,13.038404810405298,12.0,42.0,44.0,45.0111097397076
345,344,24.0,97.0,11.0,20.0,27.0,30.0,26.076809620810597,81.02468759581859,61.032778078668514,49.0,49.0,49.0,23.0,32.0,10.0,13.0,12.0,12.0,11.5,43.0,42.0,44.0
346,345,20.0,96.0,12.0,20.0,25.0,28.0,26.076809620810597,78.02563681252464,58.034472514187634,48.0,48.0,48.0,22.0,30.0,8.0,11.0,13.038404810405298,13.0,13.0,43.0,43.0,45.0111097397076
347,346,21.02379604162864,95.02105029939419,13.0,21.0,25.0,28.0,26.076809620810597,81.05553651663777,60.07495318350236,49.5,51.0,49.0,24.0,31.0,8.0,12.0,13.0,12.0,11.5,44.0,43.0,44.0
348,347,26.019223662515376,99.0,12.0,23.0,27.0,30.01666203960727,27.16615541441225,88.09086218218096,65.12296062065974,52.0,48.0,48.0,21.0,40.0,15.0,10.0,13.0,12.0,12.0,44.0,43.0,45.0111097397076
349,348,40.01249804748511,108.00462953040486,11.0,21.02379604162864,30.01666203960727,33.0,26.476404589747453,98.2496819333274,77.23341245859851,57.0,48.0,47.0,21.5,50.5,26.5,10.5,13.0,13.038404810405298,12.0,45.0,42.0,40.01249804748511
350,349,40.049968789001575,112.0044641967453,11.0,19.026297590440446,31.0,35.014282800023196,26.30589287593181,96.13012014972206,77.23341245859851,57.0,47.0,48.0,21.5,48.5,26.5,11.5,14.0,12.0,11.5,48.0,42.0,46.010868281309364
351,350,35.014282800023196,109.07336980216573,11.0,21.02379604162864,31.016124838541646,34.0147027033899,24.186773244895647,91.0494371207203,70.11419257183242,52.5,43.0,47.0,21.0,46.0,22.0,10.0,13.0,13.038404810405298,12.5,47.0,42.0,45.0111097397076
352,351,32.0,105.11898020814318,12.0,22.0,30.01666203960727,33.015148038438355,22.20360331117452,88.05112151472007,66.06814663663572,50.0,43.0,48.0,23.5,42.5,17.5,11.5,12.0,12.041594578792296,11.5,47.0,41.0,46.09772228646444
353,352,31.016124838541646,106.16967551989597,13.0,22.02271554554524,32.0624390837628,34.058772731852805,22.090722034374522,88.02272433866155,66.06814663663572,50.5,44.0,50.0,25.0,41.0,16.0,12.0,10.0,9.0,9.0,48.0,40.0,46.09772228646444
354,353,35.014282800023196,106.07544484940895,12.0,23.0,33.015148038438355,37.013511046643494,23.08679276123039,93.04837451562494,70.06425622241343,52.5,45.0,49.0,24.0,46.0,21.0,12.0,7.0,7.0,6.0,50.0,41.0,51.15662224971465
355,354,34.0,106.1178590059185,11.0,19.026297590440446,29.068883707497267,34.0147027033899,23.194827009486403,87.02298546935747,68.06614430096654,51.0,43.0,48.0,22.5,41.5,18.5,11.5,6.0,6.0,5.5,51.0,42.0,46.2709412050371
356,355,34.0147027033899,106.07544484940895,11.0,21.02379604162864,32.01562118716424,35.0,22.360679774997898,88.09086218218096,67.1863081289633,50.0,45.0,49.0,25.0,41.0,17.0,14.0,6.0,6.0,6.0,47.0,38.0,44.181444068749045
357,356,34.0147027033899,110.04090148667449,11.0,22.0,33.015148038438355,36.0,22.20360331117452,89.08984229416954,67.11929677819934,50.0,45.0,48.0,24.5,42.5,17.5,13.5,7.0710678118654755,6.0,5.5,46.0,38.0,48.16637831516918
358,357,33.0,111.07204868912791,12.0,21.0,34.0,38.01315561749642,23.345235059857504,89.08984229416954,68.11754546370561,51.5,43.0,47.0,22.0,44.0,20.0,11.0,11.045361017187261,9.055385138137417,9.0,49.0,39.0,49.36598018878993
359,358,34.0147027033899,112.04017136723775,11.0,19.0,33.0,37.0,24.08318915758459,88.05112151472007,69.06518659932803,52.0,45.0,48.0,22.5,41.5,19.5,12.5,12.041594578792296,12.041594578792296,12.0,48.0,40.0,43.289721643826724
360,359,36.0,114.00438588054409,12.041594578792296,22.02271554554524,35.0,39.0,24.08318915758459,94.08506789071261,72.06247289678588,54.0,46.0,47.0,22.5,47.5,23.5,12.5,16.0312195418814,15.0,14.5,46.0,38.0,45.39823785126467
361,360,45.0,113.03981599418853,11.0,21.02379604162864,34.0,38.01315561749642,25.179356624028344,102.07840124139877,81.05553651663777,58.5,48.0,51.0,24.5,52.5,29.5,14.5,15.033296378372908,14.035668847618199,14.0,48.0,39.0,43.56604182158393
362,361,43.0,114.0175425099138,11.0,19.0,34.0,38.01315561749642,24.08318915758459,97.02061636580135,78.02563681252464,56.5,48.0,50.0,25.0,48.0,27.0,15.0,17.029386365926403,14.0,14.0,48.0,39.0,47.265209192385896
363,362,40.0,115.10864433221339,10.0,20.0,35.0,38.01315561749642,24.08318915758459,94.02127418834527,74.02702209328699,54.0,46.0,51.0,24.5,45.5,22.5,15.5,14.035668847618199,13.0,13.5,46.0,37.0,44.40720662234904
364,363,37.0,112.11155159036913,11.0,20.0,34.0147027033899,37.013511046643494,24.020824298928627,92.00543462209176,72.00694410957877,53.5,46.0,51.0,24.5,43.5,21.5,14.5,15.033296378372908,13.038404810405298,13.0,44.0,36.0,47.38143096192854
365,364,38.0,115.15641536623133,11.0,21.0,34.0,37.013511046643494,23.021728866442675,93.00537618869137,72.00694410957877,53.0,45.0,51.0,25.0,45.0,21.0,15.0,15.0,14.035668847618199,14.0,47.0,38.0,44.40720662234904
366,365,36.013886210738214,113.21660655575224,11.0,21.0,34.0147027033899,38.01315561749642,24.020824298928627,92.0,71.0,53.0,47.0,54.0,26.5,41.5,18.5,16.5,16.0312195418814,15.0,15.5,47.0,36.0,44.553338819890925
367,366,39.0,111.11255554616679,11.0,20.024984394500787,33.015148038438355,38.01315561749642,23.021728866442675,93.0,73.00684899377592,53.5,49.0,54.0,28.5,41.5,18.5,17.5,15.132745950421556,14.0,14.5,47.0,37.0,45.70557952810576
368,367,39.0,109.22453936730518,11.0,20.024984394500787,33.015148038438355,35.0,23.021728866442675,93.0,73.00684899377592,53.5,50.0,57.0,30.5,39.5,16.5,19.5,17.029386365926403,15.0,15.5,47.0,37.0,49.49747468305833
369,368,38.01315561749642,109.22453936730518,12.0,19.0,33.015148038438355,36.013886210738214,23.021728866442675,92.0,73.0,54.0,51.0,58.0,31.5,37.5,15.5,19.5,16.1245154965971,15.0,15.0,46.0,35.0,52.46903848937962
370,369,42.01190307520001,109.37092849564732,12.0,20.024984394500787,34.0147027033899,37.05401462729781,22.02271554554524,96.04686356149273,76.02631123499285,55.0,50.0,59.0,32.5,41.5,18.5,20.5,16.1245154965971,15.0,14.5,47.0,34.0,50.48762224545735
371,370,50.00999900019995,109.55363982999378,13.038404810405298,23.021728866442675,33.13608305156178,37.05401462729781,21.02379604162864,107.01868995647442,84.00595217006948,59.0,53.0,64.0,37.5,48.5,21.5,23.5,15.033296378372908,14.035668847618199,15.0,47.0,33.0,44.721359549995796
372,371,61.00819617067857,117.61377470347595,12.165525060596439,23.08679276123039,35.12833614050059,40.049968789001575,18.027756377319946,114.15778554264269,91.08786966440702,60.5,46.0,58.0,34.0,62.0,35.0,21.0,16.1245154965971,15.0,15.5,46.0,31.0,55.57877292636101
373,372,61.00819617067857,112.75194011634566,15.033296378372908,24.08318915758459,32.14031735997639,37.21558813185679,20.024984394500787,120.10412149464314,96.04686356149273,65.5,56.0,69.0,42.5,57.5,29.5,26.5,17.029386365926403,16.0312195418814,16.5,54.0,34.0,52.773099207835045
374,373,61.032778078668514,115.73245007343446,15.132745950421556,22.20360331117452,33.13608305156178,37.12142238654117,18.027756377319946,116.27553482998907,94.13288479590966,63.5,56.0,69.0,44.5,53.5,27.5,28.5,15.132745950421556,15.132745950421556,15.0,52.0,30.0,51.78802950489621
375,374,59.033888572581766,109.03669107231748,13.038404810405298,21.095023109728988,29.154759474226502,34.132096331752024,19.4164878389476,112.36102527122117,91.26883367283708,61.5,53.0,68.0,41.5,51.5,26.5,26.5,17.029386365926403,16.1245154965971,16.0,52.0,27.0,52.773099207835045
376,375,34.0,100.2845950283492,14.142135623730951,21.213203435596427,26.30589287593181,30.4138126514911,23.08679276123039,92.26592003551474,71.11258679024411,54.0,50.0,66.0,35.0,34.0,9.0,19.0,16.1245154965971,15.132745950421556,15.0,52.0,26.0,45.89117562233506
377,376,9.0,98.3107318658548,15.132745950421556,19.235384061671343,25.317977802344327,26.30589287593181,30.14962686336267,73.43704787094863,54.230987451824994,49.5,48.0,64.0,26.0,17.0,5.0,10.0,15.132745950421556,15.297058540778355,15.5,53.0,25.0,49.03060268852505
378,377,16.0312195418814,101.27191120937731,14.142135623730951,16.1245154965971,24.515301344262525,25.317977802344327,28.160255680657446,74.43117626371358,58.309518948453004,50.0,48.0,64.0,28.0,18.0,2.0,12.0,16.1245154965971,15.297058540778355,15.0,52.0,23.0,49.24428900898052
379,378,23.021728866442675,103.40696301506973,13.152946437965905,15.297058540778355,25.317977802344327,28.284271247461902,29.154759474226502,80.50465825031493,65.27633568147036,53.5,48.0,65.0,27.5,23.5,4.5,12.5,15.297058540778355,15.297058540778355,15.0,54.0,24.0,50.695167422546305
380,379,19.026297590440446,99.04039579888602,15.132745950421556,24.331050121192877,25.317977802344327,28.635642126552707,28.442925306655784,86.83317338436964,62.51399843235114,52.5,49.0,69.0,31.0,27.0,1.0,14.0,16.278820596099706,15.132745950421556,15.5,52.0,21.0,48.507731342539614
381,380,19.1049731745428,96.88137075826292,12.165525060596439,19.4164878389476,24.515301344262525,26.476404589747453,28.284271247461902,78.91767862779544,59.53990258641679,49.5,47.0,66.0,28.5,21.5,1.5,13.5,16.278820596099706,15.297058540778355,15.5,54.0,23.0,50.44799302251776
382,381,5.0,94.36630754670864,16.278820596099706,23.345235059857504,24.515301344262525,26.30589287593181,31.400636936215164,75.95393340703298,52.61178575186362,49.5,47.0,68.0,26.5,17.5,9.5,8.5,16.278820596099706,15.524174696260024,15.0,54.0,20.0,60.01666435249463
383,382,17.029386365926403,97.67292357659824,14.317821063276353,18.439088914585774,23.345235059857504,25.317977802344327,28.160255680657446,77.78174593052023,59.413803110051795,50.5,44.0,62.0,25.0,24.0,3.0,9.0,15.297058540778355,14.317821063276353,14.0,57.0,24.0,56.293871780150276
384,383,17.11724276862369,96.88137075826292,15.132745950421556,18.439088914585774,25.317977802344327,27.294688127912362,26.30589287593181,76.94153624668537,58.54912467321779,49.5,43.0,62.0,26.5,23.5,2.5,9.5,14.317821063276353,14.560219778561036,13.5,59.0,21.0,54.57105459856901
385,384,10.198039027185569,96.77293009927931,14.317821063276353,20.615528128088304,27.459060435491963,29.832867780352597,28.160255680657446,73.16419889536138,52.61178575186362,47.0,41.0,64.0,24.5,19.5,4.5,8.5,13.601470508735444,12.649110640673518,12.0,61.0,20.0,50.92150822589606
386,385,14.142135623730951,101.39033484509261,14.317821063276353,21.587033144922902,27.65863337187866,28.861739379323623,25.96150997149434,75.92759709091287,54.3415126767741,46.0,38.0,64.0,26.0,23.0,3.0,9.0,12.649110640673518,11.180339887498949,10.5,63.0,19.0,50.15974481593781
387,386,27.16615541441225,106.04244433244644,13.341664064126334,21.840329667841555,29.120439557122072,30.805843601498726,24.041630560342615,86.12200647918046,64.32728814430156,49.5,36.0,65.0,27.5,33.5,7.5,10.5,12.083045973594572,10.770329614269007,10.0,66.0,18.0,52.55473337388365
388,387,31.144823004794873,105.3612832116238,13.341664064126334,22.80350850198276,29.120439557122072,32.01562118716424,25.0,91.98369420718001,69.2314957226839,52.5,38.0,68.0,29.0,37.0,9.0,12.0,12.649110640673518,13.0,11.5,66.0,16.0,57.0087712549569
389,388,35.22782990761707,103.84603988597736,14.317821063276353,22.80350850198276,29.832867780352597,32.7566787083184,25.709920264364882,97.86214794290998,75.13321502504735,56.5,43.0,71.0,32.0,39.0,11.0,15.0,13.601470508735444,12.083045973594572,11.0,64.0,17.0,49.24428900898052
390,389,23.194827009486403,100.0,16.278820596099706,25.709920264364882,28.635642126552707,31.78049716414141,31.575306807693888,96.6902270139025,71.02112361825881,58.5,42.0,70.0,25.0,39.0,8.0,7.0,13.601470508735444,12.649110640673518,12.0,63.0,18.0,50.695167422546305
391,390,5.0,92.64987857520376,14.142135623730951,20.615528128088304,26.476404589747453,28.442925306655784,39.45883931389772,78.64477096412705,58.05170109479997,55.0,46.0,68.0,18.0,20.0,5.0,2.0,15.524174696260024,15.811388300841896,14.5,65.0,21.0,49.76946855251722
392,391,2.23606797749979,95.56673061269805,14.317821063276353,21.37755832643195,26.476404589747453,27.459060435491963,39.319206502675,76.2954782408499,54.91812087098393,53.5,44.0,66.0,16.0,20.0,6.0,1.0,15.524174696260024,14.560219778561036,14.0,65.0,26.0,53.45091205957107
393,392,4.47213595499958,98.0612053770501,13.152946437965905,20.615528128088304,26.68332812825267,28.442925306655784,38.47076812334269,76.48529270389177,55.90169943749474,53.0,44.0,64.0,16.0,21.0,3.0,1.0,14.560219778561036,14.317821063276353,14.0,64.0,26.0,49.64876634922564
394,393,3.0,104.1393297462587,15.297058540778355,18.439088914585774,28.442925306655784,30.4138126514911,38.2099463490856,72.3671196055225,53.9351462406472,53.0,42.0,63.0,14.5,18.5,3.5,1.5,14.560219778561036,14.560219778561036,14.0,62.0,24.0,48.703182647543684
395,394,40.11234224026316,111.40017953306898,12.36931687685298,20.396078054371138,29.614185789921695,32.38826948140329,27.16615541441225,99.84988733093293,79.51100552753688,59.0,40.0,63.0,24.5,47.5,22.5,10.5,13.341664064126334,12.36931687685298,12.0,61.0,26.0,55.362442142665635
396,395,47.095647357266465,116.70903992407786,13.152946437965905,21.587033144922902,32.38826948140329,36.6742416417845,21.213203435596427,102.82509421342633,81.39410298049853,57.5,36.0,61.0,27.5,53.5,26.5,13.5,14.560219778561036,13.152946437965905,13.0,60.0,25.0,51.54609587543949
397,396,39.20459156782532,122.57650672131263,13.152946437965905,19.4164878389476,33.54101966249684,37.48332962798263,21.213203435596427,92.91393867445294,73.55270219373317,53.5,32.0,57.0,23.5,47.5,22.5,8.5,12.649110640673518,12.165525060596439,12.0,57.0,25.0,47.80167361086848
398,397,32.0624390837628,125.31959144523253,14.142135623730951,20.396078054371138,33.37663853655727,37.48332962798263,22.360679774997898,88.81441324469807,68.46897107449476,52.0,32.0,56.0,22.0,44.0,19.0,7.0,13.341664064126334,12.36931687685298,12.0,58.0,27.0,46.57252408878007
399,398,33.06055050963308,127.283148923964,12.165525060596439,19.4164878389476,34.52535300326414,37.656340767525464,23.08679276123039,87.5728268357257,68.26419266350405,51.5,31.0,55.0,20.0,44.0,19.0,6.0,14.317821063276353,14.317821063276353,13.5,58.0,27.0,50.21951811795888
400,399,31.064449134018133,124.1491039033307,13.152946437965905,20.396078054371138,33.37663853655727,36.6742416417845,25.019992006393608,89.45389874119518,69.18092222571191,53.5,34.0,57.0,20.5,43.5,17.5,6.5,13.341664064126334,14.317821063276353,13.5,56.0,29.0,49.03060268852505
401,400,33.06055050963308,127.09838708654017,13.038404810405298,20.223748416156685,34.36568055487916,38.63935817272331,25.019992006393608,91.26883367283708,71.11258679024411,54.5,34.0,57.0,20.5,45.5,19.5,6.5,11.40175425099138,12.165525060596439,11.5,55.0,31.0,51.78802950489621
402,401,36.013886210738214,124.95199078045935,11.045361017187261,20.223748416156685,35.35533905932738,37.656340767525464,26.076809620810597,93.26306878931231,73.10950690573696,55.0,36.0,58.0,21.0,46.0,21.0,8.0,8.246211251235321,7.0710678118654755,6.5,56.0,33.0,53.75872022286245
403,402,42.0,122.64175471673585,10.04987562112089,19.235384061671343,33.37663853655727,37.656340767525464,25.079872407968907,96.18731725128839,77.05841939723393,56.0,37.0,57.0,22.0,49.0,24.0,10.0,6.324555320336759,6.324555320336759,5.5,53.0,35.0,50.48762224545735
404,403,47.0,125.29964086141668,11.045361017187261,20.09975124224178,33.24154027718932,38.47076812334269,25.019992006393608,103.07764064044152,83.02409288875127,59.5,40.0,58.0,24.0,54.0,28.0,12.0,6.082762530298219,7.280109889280518,6.0,53.0,37.0,48.373546489791295
405,404,52.009614495783374,121.92620719107111,10.0,20.024984394500787,30.14962686336267,35.35533905932738,25.179356624028344,107.0420478129973,87.02298546935747,61.0,45.0,60.0,27.5,54.5,29.5,16.5,8.06225774829855,8.246211251235321,7.0,54.0,41.0,42.1070065428546
406,405,63.0317380372777,114.85643212288984,11.045361017187261,22.090722034374522,31.25699921617557,37.33630940518894,25.0,121.00413216084813,99.00505037623081,67.5,54.0,68.0,36.0,60.0,32.0,23.0,14.142135623730951,15.0,13.5,54.0,42.0,48.25971404805462
407,406,69.00724599634447,115.26057435220423,12.0,22.090722034374522,34.23448553724738,38.47076812334269,22.0,125.00399993600205,103.00485425454472,68.5,51.0,68.0,37.5,65.5,37.5,23.5,13.038404810405298,13.0,12.5,55.0,43.0,44.40720662234904
408,407,66.12110101926616,116.61903789690601,12.0,19.026297590440446,31.144823004794873,35.22782990761707,21.095023109728988,118.00423721205946,99.02019995940222,66.0,54.0,66.0,39.0,58.0,33.0,26.0,14.142135623730951,14.035668847618199,13.0,52.0,41.0,40.19950248448356
409,408,56.0357029044876,113.7453295744489,14.0,23.021728866442675,31.25699921617557,34.36568055487916,23.021728866442675,116.0,93.00537618869137,65.0,51.0,64.0,34.5,58.5,30.5,19.5,15.132745950421556,14.142135623730951,13.5,50.0,40.0,44.181444068749045
410,409,50.0,115.84903970253703,13.0,23.021728866442675,31.25699921617557,35.510561809129406,25.019992006393608,111.01801655587259,88.0056816347672,63.0,47.0,61.0,29.0,57.0,29.0,15.0,13.152946437965905,12.165525060596439,11.5,49.0,37.0,44.181444068749045
411,410,42.0,116.84177335182824,11.0,22.02271554554524,32.38826948140329,35.6931365951495,26.019223662515376,101.0,79.00632886041473,58.0,44.0,58.0,25.0,50.0,23.0,12.0,14.142135623730951,14.035668847618199,13.5,50.0,36.0,47.16990566028302
412,411,36.0,117.72000679578642,12.0,22.090722034374522,31.25699921617557,35.510561809129406,25.0,95.02105029939419,73.0,55.0,44.0,57.0,25.5,44.5,17.5,12.5,12.041594578792296,12.165525060596439,11.5,47.0,35.0,45.17742799230607
413,412,28.0178514522438,110.65260954898443,13.0,22.02271554554524,32.14031735997639,35.22782990761707,25.079872407968907,88.09086218218096,66.06814663663572,52.0,47.0,59.0,28.0,35.0,9.0,14.0,6.0,6.708203932499369,6.0,49.0,38.0,40.11234224026316
414,413,27.0,108.37435120913067,13.038404810405298,21.02379604162864,29.154759474226502,33.13608305156178,25.019992006393608,86.05230967266364,65.03076195155643,51.5,47.0,56.0,26.5,34.5,9.5,12.5,6.0,7.280109889280518,6.0,50.0,39.0,41.19465984809196
415,414,19.026297590440446,105.11898020814318,13.038404810405298,24.020824298928627,27.018512172212592,30.066592756745816,28.0178514522438,84.02380615040002,60.00833275470999,50.5,49.0,54.0,23.5,32.5,6.5,9.5,7.0,7.280109889280518,7.0,49.0,41.0,44.10215414239989
416,415,12.041594578792296,100.0199980003999,13.0,26.0,27.0,29.017236257093817,32.01562118716424,83.0,57.0,51.0,52.0,54.0,21.0,30.0,2.0,8.0,6.0,5.385164807134504,5.0,45.0,39.0,42.1070065428546
417,416,8.0,97.0051545022222,14.0,22.02271554554524,24.020824298928627,27.0,35.014282800023196,79.0,57.0087712549569,53.0,52.0,53.0,17.5,26.5,2.5,3.5,9.0,9.055385138137417,9.0,44.0,38.0,44.181444068749045
418,417,4.0,89.02246907382428,15.0,22.0,23.0,26.019223662515376,37.05401462729781,78.02563681252464,56.0357029044876,54.0,56.0,54.0,18.0,23.0,1.0,4.0,13.038404810405298,12.0,12.0,44.0,39.0,41.30375285612676
419,418,11.045361017187261,89.02246907382428,14.035668847618199,24.0,23.0,27.0,38.01315561749642,87.00574693662483,63.00793600809346,57.5,58.0,60.0,21.0,28.0,2.0,8.0,16.0312195418814,15.033296378372908,15.5,45.0,42.0,39.11521443121589
420,419,32.0,103.00485425454472,13.0,23.0,29.0,33.0,31.016124838541646,99.00505037623081,76.00657866263946,60.0,59.0,58.0,27.5,40.5,16.5,14.5,16.0,16.0312195418814,16.0,44.0,44.0,40.049968789001575
421,420,32.0,102.07840124139877,13.0,23.0,28.0,31.016124838541646,29.068883707497267,97.02061636580135,74.02702209328699,58.0,59.0,55.0,28.0,40.0,16.0,16.0,16.0312195418814,15.033296378372908,15.5,43.0,44.0,37.013511046643494
422,421,30.01666203960727,100.24470060806208,13.038404810405298,24.0,29.068883707497267,33.06055050963308,28.071337695236398,95.08417323613851,71.11258679024411,56.0,63.0,56.0,31.5,35.5,10.5,19.5,16.0,14.035668847618199,14.5,41.0,43.0,39.0
423,422,31.016124838541646,101.31633629380802,13.0,23.0,28.071337695236398,31.144823004794873,28.284271247461902,95.13148795220224,72.17340230306452,56.5,63.0,55.0,31.0,36.0,13.0,19.0,17.0,16.0312195418814,16.0,38.0,41.0,39.01281840626232
424,423,29.017236257093817,100.31948963187563,14.0,24.0,29.068883707497267,32.14031735997639,28.160255680657446,95.08417323613851,71.11258679024411,56.5,62.0,54.0,30.0,37.0,13.0,18.0,16.0312195418814,15.033296378372908,15.0,39.0,43.0,40.01249804748511
425,424,35.05709628591621,107.22872749408155,13.0,23.0,31.064449134018133,34.132096331752024,28.071337695236398,99.08077512817509,76.10519036176179,58.5,59.0,52.0,27.5,43.5,19.5,16.5,16.0,15.132745950421556,16.0,40.0,44.0,40.01249804748511
426,425,39.01281840626232,107.29864864013899,13.0,22.0,30.01666203960727,34.132096331752024,27.294688127912362,101.1236866416568,79.1580697086532,59.5,59.0,51.0,28.0,46.0,22.0,17.0,16.0,15.132745950421556,16.0,40.0,44.0,38.0
427,426,42.01190307520001,112.28535078094559,13.0,23.021728866442675,32.01562118716424,36.05551275463989,28.284271247461902,106.16967551989597,83.15046602394962,62.0,59.0,51.0,27.0,51.0,27.0,16.0,16.0,15.132745950421556,15.5,40.0,45.0,38.0
428,427,41.012193308819754,112.28535078094559,13.0,22.02271554554524,31.064449134018133,35.12833614050059,26.476404589747453,102.23991392797629,80.22468448052632,59.5,58.0,50.0,28.0,48.0,25.0,17.0,15.0,14.142135623730951,15.0,39.0,46.0,39.0
429,428,39.01281840626232,107.37783756436893,13.038404810405298,21.02379604162864,32.0624390837628,35.12833614050059,26.1725046566048,99.18165152889924,78.16009211867653,58.5,59.0,50.0,28.5,44.5,22.5,17.5,16.0,14.142135623730951,14.5,38.0,44.0,38.01315561749642
430,429,35.05709628591621,108.46197490364999,12.0,23.08679276123039,30.14962686336267,33.24154027718932,26.30589287593181,96.33275663033837,73.24616030891995,55.5,58.0,48.0,27.0,43.0,20.0,17.0,15.0,15.132745950421556,15.0,38.0,44.0,39.01281840626232
431,430,31.064449134018133,104.47966309287182,13.038404810405298,22.090722034374522,30.066592756745816,33.13608305156178,25.317977802344327,91.44397191723465,69.35416353759881,53.5,57.0,47.0,27.0,39.0,17.0,16.0,16.0,14.142135623730951,14.5,37.0,43.0,41.012193308819754
432,431,30.066592756745816,101.49384217774002,12.041594578792296,21.02379604162864,29.068883707497267,32.2490309931942,25.317977802344327,88.36288813749809,67.36467917239716,52.0,56.0,46.0,26.0,37.0,15.0,15.0,16.0,15.132745950421556,15.0,38.0,44.0,41.0
433,432,29.068883707497267,104.47966309287182,13.038404810405298,23.021728866442675,31.064449134018133,33.24154027718932,25.317977802344327,90.35485598461214,67.36467917239716,52.5,55.0,45.0,25.0,40.0,16.0,14.0,16.0,14.142135623730951,14.0,39.0,44.0,42.01190307520001
434,433,31.016124838541646,105.38500842150178,12.0,22.090722034374522,30.066592756745816,33.24154027718932,25.495097567963924,90.35485598461214,68.26419266350405,52.5,53.0,44.0,23.5,41.5,19.5,13.5,16.0,14.142135623730951,14.0,38.0,44.0,43.0
435,434,34.058772731852805,104.47966309287182,11.045361017187261,21.095023109728988,30.066592756745816,34.132096331752024,26.30589287593181,92.43916918709297,71.34423592694787,54.0,56.0,46.0,25.0,41.0,19.0,15.0,15.0,13.038404810405298,14.0,38.0,44.0,39.01281840626232
436,435,35.05709628591621,104.58011283222064,12.041594578792296,21.095023109728988,31.144823004794873,34.132096331752024,25.495097567963924,93.53608929178085,72.44308110509934,54.5,57.0,46.0,26.5,41.5,19.5,16.5,17.0,15.132745950421556,15.5,37.0,43.0,41.012193308819754
437,436,33.06055050963308,105.68348972285122,12.041594578792296,21.095023109728988,32.14031735997639,35.22782990761707,25.495097567963924,91.54780172128658,70.45565981523414,53.5,57.0,45.0,26.0,40.0,19.0,16.0,17.0,15.132745950421556,15.5,38.0,45.0,38.01315561749642
438,437,35.05709628591621,105.57461816175325,12.041594578792296,20.09975124224178,31.25699921617557,34.23448553724738,25.495097567963924,92.5418824100742,72.44308110509934,54.5,58.0,47.0,27.5,39.5,18.5,18.5,17.0,15.033296378372908,15.0,38.0,45.0,39.0
439,438,35.12833614050059,102.59142264341595,13.0,21.095023109728988,29.154759474226502,33.24154027718932,23.53720459187964,92.5418824100742,71.449282711585,53.5,59.0,48.0,30.5,38.5,17.5,19.5,17.029386365926403,16.1245154965971,16.5,38.0,46.0,39.0
440,439,39.11521443121589,100.9752444909147,12.041594578792296,21.095023109728988,29.154759474226502,32.2490309931942,24.331050121192877,96.51942809610924,75.4254598925323,55.5,62.0,48.0,31.0,41.0,20.0,21.0,17.029386365926403,16.0312195418814,16.0,38.0,46.0,40.0
441,440,41.048751503547585,101.71037311896953,11.045361017187261,20.09975124224178,30.265491900843113,32.2490309931942,23.345235059857504,95.42536350467836,75.32595834106593,54.5,62.0,50.0,33.0,39.0,19.0,24.0,17.029386365926403,16.1245154965971,16.5,37.0,45.0,40.01249804748511
442,441,57.0087712549569,114.03946685248927,12.041594578792296,22.0,31.0,34.058772731852805,23.0,114.0175425099138,92.02173656261873,63.5,58.0,55.0,33.5,57.5,33.5,21.5,18.0,16.1245154965971,17.0,47.0,46.0,47.01063709417264
443,442,58.034472514187634,114.03946685248927,12.0,22.02271554554524,31.016124838541646,36.05551275463989,22.0,114.00438588054409,92.02173656261873,63.0,56.0,53.0,32.5,59.5,35.5,21.5,17.029386365926403,17.029386365926403,18.0,47.0,48.0,45.0
444,443,44.01136216933077,117.06835610018618,14.0,23.0,33.015148038438355,36.05551275463989,22.0,103.00485425454472,80.00624975587844,58.0,53.0,49.0,29.0,52.0,28.0,16.0,18.0,16.0312195418814,17.0,47.0,45.0,43.01162633521314
445,444,40.01249804748511,111.07204868912791,13.0,23.021728866442675,31.016124838541646,34.058772731852805,21.095023109728988,97.02061636580135,74.00675644831355,54.0,52.0,48.0,29.0,47.0,24.0,17.0,18.027756377319946,17.029386365926403,18.5,45.0,45.0,51.0098029794274
446,445,36.0,111.11255554616679,14.0,24.020824298928627,31.016124838541646,35.05709628591621,21.02379604162864,95.02105029939419,71.00704190430693,53.0,52.0,47.0,28.5,45.5,21.5,15.5,18.027756377319946,16.0,17.5,45.0,46.0,50.00999900019995
447,446,39.01281840626232,108.11567878897121,13.0,23.021728866442675,29.068883707497267,34.058772731852805,21.02379604162864,96.04686356149273,73.02739212103907,53.5,53.0,48.0,29.5,45.5,22.5,17.5,17.029386365926403,17.029386365926403,17.5,45.0,45.0,50.039984012787215
448,447,39.0,109.07336980216573,12.0,23.021728866442675,30.066592756745816,33.06055050963308,22.090722034374522,96.04686356149273,73.02739212103907,53.5,53.0,49.0,29.0,45.0,21.0,18.0,17.029386365926403,17.0,17.5,44.0,43.0,51.0098029794274
449,448,39.01281840626232,109.1146186356347,12.041594578792296,23.0,30.01666203960727,34.058772731852805,22.20360331117452,96.04686356149273,73.06161783043132,53.5,54.0,49.0,29.5,44.5,20.5,18.5,17.0,16.0312195418814,17.0,45.0,43.0,49.01020301937138
450,449,35.014282800023196,104.04326023342406,12.0,21.0,28.0178514522438,32.0624390837628,23.08679276123039,91.0494371207203,70.06425622241343,52.5,56.0,53.0,31.5,36.5,13.5,20.5,18.027756377319946,16.0312195418814,17.0,45.0,41.0,41.10960958218893
451,450,33.0,103.12128781197411,11.0,21.0,28.0178514522438,32.14031735997639,24.08318915758459,89.02246907382428,68.0294054067798,51.5,57.0,52.0,30.5,34.5,12.5,20.5,18.027756377319946,17.0,18.5,46.0,43.0,48.093658625644196
452,451,31.064449134018133,103.1746092796091,12.041594578792296,22.02271554554524,28.071337695236398,30.14962686336267,25.179356624028344,90.13878188659973,68.11754546370561,52.5,55.0,49.0,27.0,38.0,15.0,16.0,18.110770276274835,16.0312195418814,17.0,47.0,43.0,48.041648597857254
453,452,18.027756377319946,100.31948963187563,12.0,17.029386365926403,26.1725046566048,28.284271247461902,27.16615541441225,74.16872656315464,57.14017850864661,48.0,53.0,45.0,22.0,25.0,7.0,12.0,17.029386365926403,16.0312195418814,17.0,46.0,43.0,46.04345773288535
454,453,16.0312195418814,100.17983829094555,11.0,17.029386365926403,26.076809620810597,29.154759474226502,28.071337695236398,72.11102550927978,55.08175741568164,47.0,55.0,49.0,24.0,20.0,2.0,15.0,19.026297590440446,17.029386365926403,18.5,47.0,44.0,45.09988913511872
455,454,15.033296378372908,102.17631819555841,10.0,17.029386365926403,27.073972741361768,29.274562336608895,28.071337695236398,70.11419257183242,53.08483775994799,45.5,53.0,47.0,22.0,20.0,2.0,13.0,18.0,17.0,18.0,45.0,43.0,44.04543109109048
456,455,17.029386365926403,104.23531071570709,10.0,18.027756377319946,26.1725046566048,29.274562336608895,27.073972741361768,72.11102550927978,54.08326913195984,45.5,52.0,45.0,21.5,23.5,5.5,13.5,17.029386365926403,16.0312195418814,17.0,46.0,43.0,46.09772228646444
457,456,25.0,97.082439194738,11.0,22.02271554554524,26.076809620810597,29.154759474226502,26.0,84.00595217006948,62.0,49.5,55.0,51.0,27.0,31.0,9.0,18.0,17.029386365926403,16.0312195418814,17.5,47.0,44.0,46.09772228646444
458,457,39.01281840626232,101.04454463255303,12.0,22.02271554554524,26.019223662515376,30.066592756745816,25.0,98.02040603874276,76.00657866263946,56.5,57.0,54.0,30.5,42.5,19.5,19.5,17.029386365926403,16.0,16.5,47.0,44.0,47.01063709417264
459,458,43.01162633521314,102.04410811016969,11.0,24.0,27.018512172212592,31.016124838541646,25.019992006393608,103.0,79.0,57.5,55.0,52.0,28.5,49.5,23.5,18.5,15.0,15.0,15.5,45.0,42.0,46.04345773288535
460,459,42.0,109.01834707974616,12.0,24.0,28.0178514522438,31.064449134018133,23.021728866442675,101.00495037373169,77.00649323271382,56.0,52.0,50.0,28.0,50.0,24.0,17.0,16.0,15.033296378372908,16.0,47.0,45.0,42.01190307520001
461,460,39.0,110.04090148667449,11.0,22.0,29.017236257093817,33.13608305156178,24.020824298928627,96.00520819205592,74.00675644831355,54.5,52.0,49.0,26.5,45.5,22.5,17.5,16.0,16.0,16.5,43.0,42.0,45.0111097397076
462,461,36.0,112.0714058089752,12.0,23.021728866442675,29.017236257093817,33.13608305156178,24.0,95.00526301210897,72.0,54.0,53.0,49.0,27.0,44.0,20.0,16.0,16.0312195418814,16.0312195418814,17.0,43.0,43.0,47.01063709417264
463,462,34.0147027033899,111.04053313993049,13.0,22.0,29.017236257093817,32.14031735997639,24.0,93.00537618869137,71.00704190430693,54.0,52.0,49.0,26.5,42.5,19.5,14.5,14.0,14.0,14.5,45.0,43.0,47.01063709417264
