,video_id,frame_seq,time_seconds,m1,m3,m4,m5,m6,m7,m8,m9,m10,m11,m12,m13,m14,m15,m16,m17,e1,e2,e3,b1,b2,b3,label_measures
0,146,0,0.0,19.442688500570835,173.46035735931494,14.782002338616394,25.302712263646097,48.98176571607747,50.28054149088515,59.20187323005371,118.58814736059058,93.3141339057682,83.51831321318286,87.21381379783702,73.9100116930822,21.433903390993805,37.69410596347189,9.608301520100667,12.564701987824035,16.5267810363536,11.825601870893138,12.564701987824035,44.346007015849295,50.25880795129586,34.12690245876611,"{'others': ['m1', 'm3', 'm12', 'e1', 'e2']}"
1,146,1,0.0333666666666666,16.401709475246843,170.804728159808,13.28437218516648,26.44696186043031,48.61108095354594,49.96467916471144,58.75384462187908,114.76509473207172,88.32590864294413,79.95223538780277,88.02080960125073,73.35067466770903,22.00520240031267,33.74131034714617,5.86805397341675,13.2031214401876,14.96066085863374,11.736107946833442,12.469614693510492,42.54339130727118,49.87845877404209,34.24777483833607,"{'others': ['m1', 'm3', 'm12', 'e1', 'e2']}"
2,146,2,0.0667333333333332,17.907792943012645,171.51934738231574,11.776092098821325,25.19677841514924,47.31091716455302,50.24283874106879,60.4242347809253,115.15609190178488,89.9855458630319,80.96063317939598,89.79270225351189,73.60057561763273,21.34416692911361,33.120259027934594,6.624051805586873,13.984109367350245,13.571275579782206,10.304080586468558,11.040086342644884,42.68833385822694,51.5204029323429,32.51779715078179,"{'others': ['m1', 'm3', 'm12', 'e1', 'e2']}"
3,146,3,0.1000999999999998,7.808021174089838,167.36922004939396,14.571446642212392,23.3791467723643,46.75829354472873,49.38226185789148,56.56519773980746,101.8660717800835,78.50981724875632,74.6705263194334,78.29530915047383,63.79617782631203,14.499131324161908,30.44817578073969,4.349739397248413,5.799652529664854,10.252434080629108,8.819477274048497,9.42443536070516,42.04748084006923,50.74695963456634,31.931024480952058,"{'others': ['m1', 'm3', 'm12', 'e1', 'e2']}"
4,146,4,0.1334666666666664,4.56718027338167,173.60692699330474,13.078413983600784,26.15682796720158,50.63188492769862,53.6133275642378,53.515972612720816,97.15327519661312,71.00459905175317,68.60278770526344,70.76919152753493,60.65930702360134,12.276288326204964,31.05178811922451,5.05494225196685,3.610673037119114,10.21252555677743,8.785146663738516,8.665615289085906,43.32807644542953,50.54942251966776,30.87494937947582,"{'others': ['m1', 'm3', 'm12', 'e1', 'e2']}"
5,146,5,0.166833333333333,4.13910932264041,180.21175289746384,16.097357485613088,30.76614187151929,51.30241921108646,54.16542901050067,54.22470179388605,104.1584471123422,73.40357669902512,71.7064106177308,71.7064106177308,62.92603380739644,13.170565215501597,36.5849033763933,4.390188405167237,1.4633961350557456,13.251615612591364,11.707169080445794,11.707169080445794,46.82867632178335,54.14565699706202,35.24324593302539,"{'others': ['m1', 'm3', 'm12', 'e1', 'e2']}"
6,146,6,0.2001999999999996,4.716863065046809,183.6187006764015,17.961279437413094,32.849150110140435,52.291272433687205,55.269881961566576,53.780513503241664,109.14213671710505,76.30537478147392,73.83435194852075,70.10534427435311,62.64732892601762,12.678626092170248,42.510687485512,8.203816883168997,0.7458015348335039,10.859034258364538,8.949618418002501,8.949618418002501,49.22290129901387,56.68091664734931,34.33928144622928,"{'others': ['m1', 'm3', 'm12', 'e1', 'e2']}"
7,146,7,0.2335666666666662,11.7330308857687,180.6098509550125,16.199445244890356,32.29915021054752,51.415749186002536,54.285083537626,51.52023161276962,111.7047548128334,79.41493959371411,73.33144303605405,70.39818531461202,61.59841215028547,14.666288607210843,45.46549468235355,11.7330308857687,2.9332577214421462,7.478369180015151,7.3331443036054225,7.3331443036054225,45.46549468235355,54.26526784668005,33.85975656510702,"{'others': ['m1', 'm3', 'm12', 'e1', 'e2']}"
8,146,8,0.2669333333333328,13.199775525238366,178.31914784956302,16.10050636146428,32.20101272292843,52.55708813579038,56.92388614364247,51.10172504887422,112.58093299732782,80.38366983021804,73.61240343242264,75.79891046506884,62.679868269191616,18.220891938718523,43.00130497537566,8.01719245303616,6.559521097938614,7.432694684047266,5.830685420389898,5.830685420389841,51.01849742841176,55.39151149370423,33.65295648911743,"{'others': ['m1', 'm3', 'm12', 'e1', 'e2']}"
9,146,9,0.3002999999999994,16.21052162776118,177.6069610509433,14.571446642212392,33.47384400987873,53.82283781221412,59.51712387428207,52.37779834506736,116.57157313769922,83.10165450068541,74.67052631943329,79.74522228288993,63.79617782631203,19.57382728761843,44.22235053869349,9.42443536070516,9.42443536070516,7.393135355204601,5.7996525296647405,5.7996525296647405,50.7469596345664,57.99652529664729,37.809108720729945,"{'others': ['m1', 'm3', 'm12', 'e1', 'e2']}"
10,146,10,0.333666666666666,17.880571828622553,178.4489590874066,14.771045394021506,32.468367794591884,56.02519193730927,58.86440084573939,53.2374767523168,118.3236495928848,85.86549740330649,76.42824542772269,82.30734122985518,67.60960172452394,22.046609257997037,42.62344456546066,8.818643703198745,11.758191604265107,10.392871272333142,8.818643703198745,9.553530678465336,51.44208826865946,58.79095802132514,39.79261987269746,"{'others': ['m1', 'm3', 'm12', 'e1', 'e2']}"
11,146,11,0.3670333333333326,17.72169166410654,184.0136080771194,16.023854896043076,33.63085611099759,55.52737275135964,58.34135349691044,49.86985715359426,117.11836267354307,83.49145034772785,74.29241815438144,77.20584631729838,64.09541958417225,21.12235418114767,45.88649356594146,9.46864152948001,9.46864152948001,8.860845832053325,8.740284488750774,8.740284488750774,50.98499285104606,56.811849176879946,39.35824714131886,"{'others': ['m1', 'm3', 'm12', 'e1', 'e2']}"
12,146,12,0.4003999999999992,14.684271675870384,182.11889794720284,14.470929512609878,31.808680375134543,56.32243942553508,60.63035470688632,52.155805696988594,113.05825594245668,81.26255248378465,73.4354765139658,80.63503303494281,64.79600868879334,20.878713910833422,39.597560865373794,6.479600868879402,10.799334781465518,10.482712525359815,8.63946782517246,8.63946782517246,47.51707303844847,54.716629559425485,38.90426109931019,"{'others': ['m1', 'm3', 'm12', 'e1', 'e2']}"
13,146,13,0.4337666666666658,11.975896347656828,193.69987466378672,14.59534143360147,29.19068286720305,58.25478371769345,61.15161623973541,48.472583513687766,104.13036101647064,74.97253209989697,68.25766539215772,76.97140991030551,62.44850238005915,21.784361295369425,33.40268731956655,2.90458150604934,11.618326024197016,8.833939775596814,7.261453765123178,7.987599141635485,45.02101334376363,55.18704861493603,37.759559578640506,"{'others': ['m1', 'm3', 'm12', 'e1', 'e2']}"
14,146,14,0.4671333333333324,10.23228753258837,187.34868603771864,14.470639802687629,33.40806622470613,59.61130844559767,60.93153248510598,50.97692376234721,109.00148109458176,75.59437856615509,70.18260304303487,76.69439095424434,60.77668717128802,18.088299753359596,39.79425945739092,6.511787911209353,9.40591587174697,10.53478479317622,8.682383881612566,8.682383881612623,43.411919408062886,53.5413672699442,33.564398693992715,"{'others': ['m1', 'm3', 'm12', 'e1', 'e2']}"
15,146,15,0.5004999999999991,11.73250675219709,189.8570245755573,16.07363306413165,32.14726612826352,58.499858111544576,61.27573119119211,49.67033592586807,109.61722416264595,77.47008945715272,71.30667969266807,75.67239477589266,59.66477280406929,18.190479513435665,41.47429329063357,9.459049346986603,8.003810985911628,9.203735518894163,5.820953444299391,5.820953444299391,43.65715083224581,53.84381935976984,32.14726612826352,"{'others': ['m1', 'm3', 'm12', 'e1', 'e2']}"
16,146,16,0.5338666666666656,10.77132041808471,191.68656863168195,16.342215221878188,32.58381112717617,58.0053356418392,62.29961720595682,49.182675393882256,108.6541254467781,76.16473709960832,70.27884573725697,76.93684164920768,59.182185884005946,19.23421041230188,39.94797547170401,7.397773235500722,8.877327882600866,7.9676456157960605,5.918218588400578,6.65799591195065,42.90708476590424,56.2230765898056,31.62926576552689,"{'others': ['m1', 'm3', 'm12', 'e1', 'e2']}"
17,146,17,0.5672333333333321,7.343715710880133,189.92842261388097,16.22279824685216,32.445596493704336,55.8894882139192,60.2900722657231,51.59450280241429,107.57979564445168,75.13593810615767,71.23404239553702,76.37464339315306,63.15595511356889,18.35928927720022,37.452950125488655,3.67185785544018,6.609344139792029,10.692611474168608,8.812458853056171,8.812458853056114,42.593551123104646,54.34349626051278,30.9831705264592,"{'others': ['m1', 'm3', 'm12', 'e1', 'e2']}"
18,146,18,0.6005999999999987,10.290089133588324,186.95707244688853,16.00762197182337,30.69828685703835,55.60457970180161,58.373019180594405,52.71097530929897,109.61722416264595,78.91901329886504,73.48953723428036,78.58287149804238,62.57524952621901,18.190479513435665,38.56381656848384,6.548572624836879,8.003810985911628,10.594295183721476,7.276191805374253,8.003810985911684,43.65715083224581,53.84381935976984,32.14726612826352,"{'others': ['m1', 'm3', 'm12', 'e1', 'e2']}"
19,146,19,0.6339666666666652,9.240993292669245,187.844641783916,14.68416805657634,32.17803566178814,55.69567433205344,59.9775348785366,55.69567433205344,111.51585646554956,79.3865330468256,74.51759595029364,81.82324261208714,64.28969062378269,17.53355198830434,37.98936264132624,5.84451732943478,7.305646661793503,10.637182102022388,7.305646661793503,8.036211327972865,43.83387997076096,54.061785297271854,32.27740193740721,"{'others': ['m1', 'm3', 'm12', 'e1', 'e2']}"
20,146,20,0.6673333333333318,10.97323040802044,186.00827140830023,16.6485524565813,31.97443067909726,56.09465098077175,58.95793702851336,55.85111299572462,115.18687260036762,83.2427622829064,77.62538953500643,82.9009014451525,67.82801027330663,19.59475852339972,39.18951704679933,6.029156468738279,9.043734703107589,10.97323040802044,10.551023820292189,9.79737926169986,42.20409528116852,54.26240821864525,34.96131032637806,"{'others': ['m1', 'm3', 'm12', 'e1', 'e2']}"
21,146,21,0.7006999999999983,10.441053070895656,180.63323574668487,16.309446272617343,32.6188925452348,53.341418043427446,56.18800106854987,54.952086599605096,114.3092670128676,81.69415139785268,76.0442761203372,79.7357458349166,66.44645486243058,18.45734857289733,40.606166860374174,6.644645486243007,6.644645486243007,9.33876176928224,7.529150443391031,8.121233372074812,42.82104868912194,54.63375177577626,37.032635775813766,"{'others': ['m1', 'm3', 'm12', 'e1', 'e2']}"
22,146,22,0.7340666666666649,9.128649860632049,172.36597639128237,14.50565155041283,31.885003198867743,52.14129457608739,54.92383260174239,56.45758139199869,111.73743373755242,79.85612249211246,75.05504635661725,82.27187773706123,67.83821497617328,18.763761589154345,36.084156902219775,2.886732552177591,8.660197656532773,11.902303225537,11.546930208710364,10.825247070665966,43.30098828266375,53.40455221528532,28.903387154226728,"{'others': ['m1', 'm3', 'm12', 'e1', 'e2']}"
23,146,23,0.7674333333333314,9.532933405375545,184.5059796158976,16.6485524565813,30.296136305548416,55.95271597764593,58.86152169494289,49.945657369743806,106.19704928356208,75.90514043421535,70.84258850767571,75.36445585922957,60.291564687383584,18.087469406215178,37.68222792961467,4.5218673515537375,6.0291564687383925,12.429424476992132,10.55102382029213,10.55102382029213,43.71138439835312,58.78427557019904,33.70400927770396,"{'others': ['m1', 'm3', 'm12', 'e1', 'e2']}"
24,146,24,0.800799999999998,4.756884905974033,187.0187918665449,16.615084679469426,31.73238020360925,54.23683269816605,57.2409620853578,51.34351606592234,104.32663072378382,72.59511339355004,69.94804754621532,72.20443617673834,58.66610439359988,14.290461326646096,38.35860671889225,3.760647717538518,2.25638863052302,12.12772447973823,9.025554522092309,9.025554522092309,51.14480895852296,61.67462256763059,38.08479817403013,"{'others': ['m1', 'm3', 'm12', 'e1', 'e2']}"
25,146,25,0.8341666666666645,6.594431951607677,177.44414345943517,16.28704546143182,29.63828540655766,57.58340145636004,57.58340145636004,50.480796546735725,102.6064792411156,72.98698694724352,69.30431114891957,72.25343077227791,58.98239246716565,15.482878022630985,36.12671538613904,5.160959340877071,3.686399529197842,4.170684968413962,4.66296755105501,3.686399529197842,47.18591397373257,60.45695227884482,32.97215975803846,"{'others': ['m1', 'm3', 'm12', 'e1', 'e2']}"
26,146,26,0.867533333333331,14.839890156681149,173.6598843318497,13.17713340948922,29.1397755991582,54.01801554274543,55.31563983709861,54.018015542745374,111.06110279837355,81.95597211797329,74.2137185367888,74.21371853678869,61.11717997147304,13.824124041166556,42.92754307520136,10.913782137763064,5.0930983309560816,4.601654592292427,1.4551709517016889,0.7275854758508444,48.02064140615744,56.75166711636791,39.39725868039447,"{'others': ['m1', 'm3', 'm12', 'e1', 'e2']}"
27,146,27,0.9008999999999976,20.48590078926332,171.81308944582196,14.485719366802982,30.55765848037578,52.46950714775068,55.12192149688,55.21700854616166,120.65830360778412,90.10303755728316,79.67145651741635,84.01717232745716,66.63430908729367,20.280007113524107,44.905730037089256,13.037147430122673,11.588575493442365,6.478210641431335,4.580786674510897,4.345715810040929,46.35430197376951,57.94287746721187,33.44288010187211,"{'others': ['m1', 'm3', 'm12', 'e1', 'e2']}"
28,146,28,0.934266666666664,13.590799424890116,175.81732892017072,14.74129170681465,32.56457775228728,54.86058406923708,57.66087861051601,54.72177159718831,115.44417450482612,82.87962706401724,75.91765229009542,79.60297521679917,67.80994185134745,19.1636792188591,41.27561677908102,5.89651668272586,10.318904194770312,6.592506066518292,4.422387512044395,4.422387512044395,41.27561677908102,51.59452097385128,31.096788922251186,"{'others': ['m1', 'm3', 'm12', 'e1', 'e2']}"
29,146,29,0.9676333333333308,13.28850595286201,175.12142919765327,14.485296170045435,27.53677808434005,53.640347060558646,54.94137188990256,53.50462212610231,108.713795721917,81.17705315700826,74.22905326206762,80.71508704224823,64.86033780180662,19.458101340542044,35.31285058098365,6.486033780180719,10.810056300301085,10.493119703400174,8.648045040240902,7.927374620220803,46.12290688128468,53.32961108148544,34.712084091238815,"{'others': ['m1', 'm3', 'm12', 'e1', 'e2']}"
30,146,30,1.0009999999999972,14.55776861066146,171.78190685741072,14.275066580794372,30.11328594147784,51.56836930535789,54.32033297790922,51.70649030465923,110.50966983189667,80.39790495471595,72.80283956205164,77.08535953628996,64.23779961357491,19.27133988407252,39.25643309718464,7.851286619436905,9.278793277516456,9.028344829172452,7.137533290397187,7.851286619436905,42.82519974238329,52.81774634893941,32.863671237346615,"{'others': ['m1', 'm3', 'm12', 'e1', 'e2']}"
