,video_id,frame_seq,gap,time_seconds,m1,m3,m4,m5,m6,m7,m8,m9,m10,m11,m12,m13,m14,m15,m16,m17,e1,e2,e3,b1,b2,b3,label_measures
0,79,3,1,0.1251249999999999,18.289370507692013,150.36776402959828,15.03376994958512,24.05403191933624,39.08780186892159,42.20180330873024,45.10130984875559,102.27384306925931,78.23340456181187,69.15534176809183,66.14858777817483,63.14183378825771,19.54390093446068,37.58442487396292,10.523638964709676,7.516884974792561,21.04727792941924,21.260961356300463,21.04727792941929,54.12157181850671,57.12832580842371,54.12157181850648,{}
1,79,4,0,0.1668333333333332,21.426863360223216,151.54110294686706,12.1208643052571,27.271944686828533,36.36259291577153,42.423025068399966,45.45324114471424,106.10084264124492,78.84386983537105,68.17986171707133,66.66475367891422,63.63453760259989,19.69640449604288,40.90791703024274,10.605756267099991,7.575540190785773,21.426863360223248,18.43208480771181,18.181296457885708,57.574105449971285,57.574105449971285,57.65379283129226,"{'happy': (['m1', 'm3', 'm12', 'e1', 'e2'], 3.384800348836186, 100)}"
2,79,5,0,0.2085416666666665,32.51065660627808,156.18655403644175,13.004262642511208,26.00852528502241,39.012787927533736,45.51491924878928,45.51491924878923,117.03836378260092,91.02983849757852,74.77451019443953,61.77024755192821,68.27237887318387,19.506393963766754,52.017050570044944,22.757459624394755,9.75319698188332,19.775460384006017,22.757459624394585,22.757459624394585,58.51918189130049,48.76598490941706,58.60941969646869,"{'happy': (['m1', 'm3', 'm12', 'e1', 'e2'], 3.384800348836186, 100)}"
3,79,6,0,0.2502499999999998,23.70110290232401,145.29012894902988,14.81318931395242,29.626378627904955,38.514292216276544,41.47693007906696,50.36484366743838,118.50551451161977,88.87913588371481,77.0285844325528,68.14067084418133,74.06594656976227,20.738465039533367,47.40220580464802,14.813189313952536,5.925275725580946,23.885550064685308,20.73846503953348,20.73846503953348,74.06594656976236,65.17803298139088,65.17803298139097,"{'happy': (['m1', 'm3', 'm12', 'e1', 'e2'], 3.384800348836186, 100)}"
4,79,7,0,0.2919583333333331,31.90336229998276,149.20165031176316,12.698012792490433,25.396025584980976,41.2685415755941,44.44304477371634,44.44304477371668,114.32619695281248,88.94275903967232,73.01357355682023,60.31556076432969,60.31556076432969,15.87251599061301,53.96655436808453,25.396025584980976,6.349006396245159,22.44712738290885,22.22152238685834,22.22152238685834,57.14105756620711,57.14105756620711,66.74010777082773,"{'happy': (['m1', 'm3', 'm12', 'e1', 'e2'], 3.384800348836186, 100)}"
5,79,8,0,0.3336666666666664,37.92158014409214,151.1623593541533,12.596863279512831,25.19372655902555,40.93980565841662,44.20135037749091,44.08902147829468,119.71163103411132,94.52894695506843,75.5811796770767,62.98431639756387,62.98431639756387,18.89529491926919,56.68588475780746,28.342942378903672,9.447647459634595,25.19372655902555,25.389789644877368,25.19372655902555,53.53666893792928,56.68588475780746,69.28274803732029,"{'happy': (['m1', 'm3', 'm12', 'e1', 'e2'], 3.384800348836186, 100)}"
6,79,9,0,0.3753749999999997,37.20818437517551,148.86503276798018,18.60409218758776,28.07786998400348,37.20818437517551,43.40954843770487,43.52014619259044,127.27912619289684,99.27026133481522,80.61773281288026,71.31568671908644,68.21500468782176,26.35579726574929,57.36261757839566,26.3557972657494,10.852387109426104,28.07786998400342,28.07786998400342,27.90613828138163,74.41636875035104,71.31568671908641,68.28543837172437,"{'happy': (['m1', 'm3', 'm12', 'e1', 'e2'], 3.384800348836186, 100)}"
7,79,10,0,0.417083333333333,40.42430409630041,148.85161687062222,15.50201297019089,31.00402594038178,37.20483112845818,43.40563631653436,40.42430409630039,127.2676556436274,96.31229867747676,75.95986355393529,68.20885706883985,65.10845447480176,26.353422049324536,60.4578505837444,26.353422049324536,13.951811673171846,28.07533957229604,28.075339572296,27.90362334634358,52.706844098649015,68.2088570688399,62.70176205062768,"{'happy': (['m1', 'm3', 'm12', 'e1', 'e2'], 3.384800348836186, 100)}"
8,79,11,0,0.4587916666666662,44.79856646880921,144.03094225065365,19.1993856294896,35.34402426431834,41.59866886389432,48.10500907513192,38.92843450393519,137.9300635070005,102.59652203186371,79.99744012287346,73.59764491304355,76.79754251795856,36.79882245652186,62.39800329584125,23.99923203686194,20.79933443194716,25.5991808393195,25.798399258987423,25.5991808393195,70.3977473081286,63.997952098298754,67.19784970321393,"{'happy': (['m1', 'm3', 'm12', 'e1', 'e2'], 3.384800348836186, 100)}"
9,79,12,0,0.5004999999999996,57.14105756620711,146.02714711364024,16.18685375318998,31.74503198122613,41.2685415755941,44.443044773716565,35.06353387347978,139.82236186135603,108.11968296139808,79.36257995306539,69.83907035869754,69.83907035869754,34.91953517934883,69.83907035869754,34.91953517934883,19.047019188735703,25.396025584980976,25.593663006062588,25.396025584980976,73.01357355682018,69.8390703586976,66.74010777082773,"{'happy': (['m1', 'm3', 'm12', 'e1', 'e2'], 3.384800348836186, 100)}"
10,79,13,0,0.542208333333333,44.91270312887265,140.8318523946856,19.19938562948971,31.998976049149405,41.59866886389409,44.79856646880921,38.92843450393519,134.7381093866181,102.8457245413945,79.99744012287357,67.19784970321376,70.39774730812866,30.39902724669196,65.59790090075626,27.19912964177695,14.399539222117255,25.798399258987423,25.798399258987423,25.5991808393195,73.59764491304355,63.997952098298754,70.47043472791314,"{'happy': (['m1', 'm3', 'm12', 'e1', 'e2'], 3.384800348836186, 100)}"
11,79,14,0,0.5839166666666663,54.917434407344246,145.1546528815688,16.12431394393252,29.02376509907845,41.9232162542246,45.14807904301074,36.05506206918077,135.78931854724144,106.85932119912064,79.00913832526925,67.7221185645165,70.94698135330299,33.861059282258225,66.10968717012327,30.636196493471743,17.736745338325704,29.023765099078503,25.99967500609366,25.79890231029202,74.17184414208947,67.7221185645165,67.72211856451645,"{'happy': (['m1', 'm3', 'm12', 'e1', 'e2'], 3.384800348836186, 100)}"
12,79,15,0,0.6256249999999997,46.00467952107231,140.97910877737587,19.666186209093667,32.940454223865515,39.33237241818711,45.88776782121863,36.64577435141843,135.023641898808,102.0833147769264,78.66474483637444,68.8316517318276,72.10934943334325,34.41582586591392,63.91510517955408,27.860430462882505,14.74963965682025,26.2215816121248,29.680815053611514,26.221581612124737,75.38704713485879,72.1093494333432,68.83165173182783,"{'happy': (['m1', 'm3', 'm12', 'e1', 'e2'], 3.384800348836186, 100)}"
13,79,16,0,0.667333333333333,36.81275752931265,139.98055960554416,19.99722280079197,33.3287046679867,36.66157513478538,43.32731606838252,37.26262461981639,127.04314669398968,93.85448449556256,74.98958550296993,69.99027980277197,69.99027980277197,33.328704667986585,56.65879793557736,19.997222800792088,13.331481867194611,20.27305959378048,16.994371546483446,16.66435233399335,79.98889120316801,73.32315026957065,70.06958892714276,"{'happy': (['m1', 'm3', 'm12', 'e1', 'e2'], 3.384800348836186, 100)}"
14,79,17,0,0.7090416666666663,27.07613631523463,137.73458642533578,20.15028828936829,36.94219519717512,36.9421951971749,43.78793596052535,40.44026703772627,124.44151283641956,87.57587192105058,73.88439039435002,70.52600901278868,73.88439039435002,31.90462312483305,52.05491141420123,11.75433483546476,15.112716217026218,23.50866967092957,20.42823643021268,20.150288289368177,73.88439039435013,70.52600901278873,77.24277177591148,"{'happy': (['m1', 'm3', 'm12', 'e1', 'e2'], 3.384800348836186, 100)}"
15,79,18,0,0.7507499999999997,16.975525550615195,136.5367466323136,23.30422124048312,33.291744629261416,39.95009355511411,43.407124332094895,36.77193383221976,110.06434048695048,76.8599608915565,68.24807648998603,66.58348925852295,69.91266372144912,31.62715739779844,41.614680786576855,4.993761694389264,11.6521106202415,26.633395703409235,23.54081838488161,23.30422124048306,69.91266372144912,66.583489258523,73.24183818437541,"{'happy': (['m1', 'm3', 'm12', 'e1', 'e2'], 3.384800348836186, 100)}"
16,79,19,0,0.792458333333333,19.49609355699522,133.38171661850137,22.7454424831609,32.49348926165851,38.99218711399021,42.24153604015624,39.127342413923294,113.77362221672286,81.2986841586533,71.48567637564872,64.98697852331702,71.48567637564872,29.2441403354926,45.49088496632203,9.74804677849761,9.748046778497496,25.994791409326808,22.74544248316096,22.74544248316096,68.23632744948293,68.23632744948293,68.31364909179582,"{'happy': (['m1', 'm3', 'm12', 'e1', 'e2'], 3.384800348836186, 100)}"
17,79,20,0,0.8341666666666664,22.75219978190717,136.66788791805777,22.98319250385363,32.50314254558157,35.7534568001397,39.138966507059,35.7534568001397,113.80742249804588,81.32283666731226,69.88175647300034,61.755970836605,68.25659934572127,29.25282829102344,48.75471381837235,9.750942763674516,9.750942763674516,26.002514036465243,22.75219978190711,24.377356909186176,71.50691360027946,71.50691360027946,68.33394395902867,"{'happy': (['m1', 'm3', 'm12', 'e1', 'e2'], 3.384800348836186, 100)}"
18,79,21,0,0.8758749999999997,48.43783357846664,141.91599815402424,19.33222056932913,32.22036761554841,41.88647790021309,45.108514661767686,32.2203676155483,132.1427945130106,99.93509443075524,75.71786389653869,61.21869846954189,67.66277199265164,32.220367615548525,67.66277199265153,28.99833085399348,12.888147046219387,25.97689084614827,25.97689084614824,25.77629409243872,70.88480875420646,67.66277199265164,70.88480875420623,"{'happy': (['m1', 'm3', 'm12', 'e1', 'e2'], 3.384800348836186, 100)}"
19,79,22,0,0.9175833333333332,73.584811441017,150.53275757793168,15.981599789466143,28.766879621038925,41.67491351458949,47.94479936839844,31.96319957893212,150.26103757737903,121.50220796270438,84.70247888417015,63.926399157864296,73.51535903154394,36.757679515772,81.50615892627695,46.34663938945164,20.77607972630585,25.769555346565863,22.37423970525253,22.37423970525253,70.31903907365074,67.12271911575749,73.51535903154422,"{'happy': (['m1', 'm3', 'm12', 'e1', 'e2'], 3.384800348836186, 100)}"
20,79,23,0,0.9592916666666664,86.55853603607989,166.75807966914329,16.64587231463065,29.96257016633536,50.04846639647941,56.693798208745136,26.63339570340929,159.80037422045518,129.83780405411983,86.55853603607989,63.25431479559688,73.2418381843753,41.61468078657674,91.55229773046916,54.93137863828156,24.96880847194609,23.30422124048306,26.63339570340917,26.63339570340917,73.2418381843753,73.2418381843753,76.64335183457065,"{'happy': (['m1', 'm3', 'm12', 'e1', 'e2'], 3.384800348836186, 100)}"
21,79,24,0,1.0009999999999997,80.60115315747282,168.05335064217346,16.791906907806833,33.75131517297986,47.137128935602206,57.19117411074216,27.076136315234745,157.8439249333843,124.30548636526356,83.95953453903428,60.450864868104645,67.16762763122733,36.94219519717501,94.03467868371833,57.0924834865433,20.150288289368177,27.076136315234745,27.076136315234745,26.86705105249092,70.52600901278873,70.52600901278873,73.88439039435025,"{'happy': (['m1', 'm3', 'm12', 'e1', 'e2'], 3.384800348836186, 100)}"
22,79,25,0,1.042708333333333,71.66672027227389,160.54210100765724,17.0635048267319,30.714308688117512,47.77781351484919,51.30414506281158,30.7143086881174,150.1588424752407,119.4445337871232,83.61117365098619,61.4286173762348,68.25401930692749,34.12700965346369,85.31752413365962,47.77781351484941,17.063504826731787,27.51407480048978,23.88890675742465,25.59525724009785,75.07942123762035,71.66672027227395,78.49212220296704,"{'happy': (['m1', 'm3', 'm12', 'e1', 'e2'], 3.384800348836186, 100)}"
23,79,26,0,1.084416666666666,55.576582334958175,160.12211613173326,17.367681979674444,31.45420985652824,45.2893736538752,48.75340658349113,34.73536395934889,138.9848682602132,107.6796282739815,79.89133710650242,59.05011873089313,69.47072791869778,29.52505936544651,74.68103251260015,36.47213215731631,12.157377385772064,24.561611402638363,27.788291167479088,27.788291167479088,72.94426431463262,65.99719152276282,76.41780071056746,"{'happy': (['m1', 'm3', 'm12', 'e1', 'e2'], 3.384800348836186, 100)}"
24,79,27,0,1.1261249999999994,41.844275549069,167.12440287922,17.37488971052278,34.74977942104556,45.17471324735925,48.773639648157264,34.923096104289414,128.7618834962794,94.08145808137212,72.9745367841956,55.59964707367294,66.02458089998652,26.06233456578412,67.76206987103888,29.53731250788872,8.687444855261333,27.79982353683647,24.32484559473187,26.06233456578412,76.44951472630021,69.49955884209106,76.4495147263001,"{'happy': (['m1', 'm3', 'm12', 'e1', 'e2'], 3.384800348836186, 100)}"
25,79,28,0,1.1678333333333326,40.76629879543289,156.061849468725,16.927284226638335,30.46911160794889,44.01093898925956,47.396395834587565,30.46911160794889,118.53934338957708,88.08695885837417,67.70913690655323,47.39639583458722,57.55276637057023,22.00546949462978,66.01640848388945,28.776383185285223,5.078185267991444,23.938794927456083,23.69819791729361,25.39092633995745,74.48005059720862,67.70913690655328,74.48005059720845,{}
26,79,29,0,1.2095416666666658,50.75822433579367,156.24594748913432,16.919408111931148,30.64235135257262,47.49504187135463,54.24774919221164,31.19784705580641,128.98760201768155,98.36566136108289,72.75345488130426,50.75822433579367,64.29375082533863,27.071052979089927,71.061514070111,33.83881622386241,10.15164486715878,24.63503006328871,23.687171356703686,25.37911216789678,74.4453956924973,60.909869202952336,77.90280522671436,{}
27,79,30,0,1.251249999999999,67.15928132835624,168.52508118288432,16.768872326012684,33.705016236576846,50.41828552160894,57.11272115211244,23.71476666915015,141.2174033495424,107.53018949123584,73.78303823445606,50.30661697803828,67.07548930405096,35.21463188462678,82.16747439746234,45.27595528023437,18.4457595586141,20.400213652004943,20.12264679121529,23.476421256417893,77.1368126996586,63.72171483884841,70.50907032604036,{}
28,79,31,0,1.2929583333333323,76.82537703325289,180.46318087406905,13.310705878950102,29.94908822763773,50.35688262173364,56.66828830396231,24.225850375662244,143.70785723721414,113.92129197586765,74.87272056909433,46.58747057632536,63.22585292501299,31.612926462506493,88.18342644804432,51.57898528093153,14.974544113818864,23.53022597346316,19.96605881842516,21.62989705329392,73.2088823342255,59.89817645527546,73.28447232063371,{}
29,79,32,0,1.3346666666666656,76.15371273469077,182.4984338034176,16.492917297411623,26.59403005462075,56.46265386852526,63.0193485074003,20.86207356824366,139.51877267692603,112.92530773705096,74.2181278383523,42.88158497327015,62.67308573016408,32.98583459482313,85.76316994654042,52.77733535171717,16.49291729741151,16.819541427114785,16.492917297411623,18.142209027152774,72.5688361086111,56.07591881119947,72.56883610861087,{}
30,79,33,0,1.3763749999999988,74.70955631143823,182.76995787099293,13.380202403655774,26.16344335988668,55.54846119237847,61.743679611445295,23.625236092475365,137.25980977972932,111.09692238475697,73.01645444437474,42.18728479008325,61.65833930858321,29.206581777749875,84.37456958016651,51.92281204933317,16.22587876541661,19.739633475087583,16.22587876541661,17.848466641958282,74.63904232091647,55.16798780241652,71.46758250545437,{}
31,79,34,0,1.418083333333332,64.98459381290597,179.54358276188017,16.547214490010045,32.61361268716467,55.54846119237847,58.77263257022895,20.52429357459088,134.03793728004865,101.43445597047744,68.14869081474984,38.94210903699985,58.41316355549981,29.206581777749875,84.37456958016651,45.4324605431666,12.980703012333263,19.739633475087548,16.22587876541661,17.848466641958282,74.63904232091642,51.92281204933317,71.68827551405595,{}
32,79,35,0,1.4597916666666653,79.44040940679251,186.1582103823453,13.194333837929207,29.86994363590217,53.69704835817432,59.73988727180412,20.86207356824366,142.79475977992064,112.92530773705086,72.56883610861098,36.28441805430543,59.37450227068177,28.037959405599626,94.00962859524624,57.72521054094068,11.545042108188111,20.06449987040056,23.090084216376223,24.739375946117377,79.1660030275757,59.37450227068177,72.8680903106097,{}
33,79,36,0,1.5014999999999985,70.8546336964493,172.00002106368458,13.26544577078737,25.939049993206044,51.87809998641208,55.07204430606016,26.530891541575013,136.08258740870022,110.14408861212026,73.99889317228093,45.04280453964924,67.56420680947389,30.564760223333337,78.82490794438627,46.65147613035106,14.478044316315843,22.7500518097473,19.304059088421127,20.912730679122888,77.21623635368451,54.69483408385986,71.07343390957493,{}
34,79,37,0,1.5432083333333315,49.5279939329964,169.59750354312146,16.79899079863609,26.56153665795029,49.85563583382033,56.39366607669953,23.98470896553009,116.48004365486484,89.92380074053911,64.24378641818294,39.53463779580488,62.596509843357694,28.00370177202842,64.24378641818282,31.29825492167879,11.530936023776349,23.296008730973018,23.296008730972897,23.06187204755276,79.06927559160965,56.00740354405684,72.77905785640007,{}
35,79,38,0,1.584916666666665,29.65097834685355,160.3198756221554,20.039984452769453,26.56153665795046,46.241257009370784,53.12307331590063,23.98470896553021,99.71127166764148,73.15095122241806,57.65468011888197,36.2400846461544,62.596509843357694,26.356425197203293,49.41829724475599,16.47276574825196,6.589106299300852,20.83658365075356,19.767318897902385,21.41459547272757,82.36382874126002,56.00740354405679,73.15095122241804,{}
36,79,39,0,1.6266249999999982,25.6999066650278,157.7821646520327,19.12608661298475,25.69990666502768,45.08061847200939,47.92135476857164,27.235559275768225,96.94953583391876,71.27871635030466,57.37825983895453,35.064492123805564,57.37825983895453,20.71992716406692,49.4090570835441,20.719927164066803,1.5938405510821667,14.255743270060938,9.563043306492432,11.156883857574485,82.87970865626761,60.56594094111864,67.6209277080141,{}
37,79,40,0,1.6683333333333314,39.32113023433699,164.44346378742426,16.650553134759075,26.32683610374769,49.09035932720125,52.34901966652902,26.32683610374769,108.54832604407596,82.221731893712,62.0434004453366,35.91986341572124,55.51251618793276,19.59265277221152,62.0434004453366,29.388979158317284,3.2654421287019204,14.603501152738271,13.463762810979716,13.061768514807738,84.9014953462501,58.77795831663468,72.13597438449013,{}
38,79,41,0,1.710041666666665,46.15349781635939,175.49975219734236,16.809827570441314,26.578671098644563,49.559943683708426,56.14041046098018,27.18510664122344,116.13482647973468,89.55807818556832,65.93356830908488,42.85681940090524,59.34021147817646,24.72508811590683,64.28522910135769,34.615123362269514,8.24169603863561,20.05291193996793,19.78007049272543,19.78007049272543,82.41696038635598,62.63688989363055,75.8952366404412,{}
39,79,42,0,1.751749999999998,47.04436530829407,175.09601755325784,16.758861233847483,30.351588589818032,50.27658370154268,57.07862460082728,23.462405727386567,117.5034023834603,87.21051175450748,63.68367268862062,40.22126696123405,56.98012819508165,25.138291850771225,68.71133105877493,35.19360859107985,8.379430616923742,23.70060884683588,23.462405727386567,25.13829185077128,77.09076167569862,60.33190044185108,73.81512676405778,"{'happy': (['m1', 'm3', 'm12', 'e1', 'e2'], 4.742656281246079, 54)}"
40,79,43,0,1.7934583333333312,46.95284251283567,171.56777342710546,16.768872326012684,30.36971944885998,50.41828552160894,53.76509474561792,23.71476666915015,117.57359434785292,87.26260792373799,63.72171483884836,43.59906804763318,57.014165908443374,26.830195721620385,67.07548930405096,33.53774465202548,10.0613233956077,23.71476666915009,23.47642125641784,23.47642125641784,77.1368126996586,63.72171483884841,77.2096864170918,"{'happy': (['m1', 'm3', 'm12', 'e1', 'e2'], 4.742656281246079, 54)}"
41,79,44,0,1.8351666666666644,36.95391936330316,164.92114561297743,16.79723607422875,33.5944721484575,47.15208861862786,53.85603584055413,30.421088381671307,117.62863483235924,84.05334246134181,65.50922068949205,50.39170822268625,60.47004986722345,25.195854111343124,62.14977347464628,25.19585411134301,8.398618037114375,23.75487906655691,26.87557771876596,26.87557771876596,77.2672859414522,67.18894429691494,77.26728594145243,"{'happy': (['m1', 'm3', 'm12', 'e1', 'e2'], 4.742656281246079, 54)}"
42,79,45,0,1.8768749999999976,30.225432434052323,161.3421781905578,16.791906907806833,30.411436850788213,47.13712893560176,50.48754266062127,30.225432434052323,107.52066611409408,77.24277177591148,62.130055558885374,50.37572072342061,57.0924834865433,23.508669670929635,53.73410210498184,16.791906907806833,6.7167627631228015,23.747342487126907,26.86705105249092,26.86705105249092,70.52600901278873,63.80924624966599,73.88439039435025,"{'happy': (['m1', 'm3', 'm12', 'e1', 'e2'], 4.742656281246079, 54)}"
43,79,46,0,1.9185833333333309,23.51613050392018,158.21534134572624,20.15668328907452,30.23502493361173,47.15208861862786,53.75115543753191,30.23502493361173,104.14286366021815,73.90783872660643,62.14977347464628,50.39170822268625,60.47004986722345,25.195854111343124,48.7119846152633,15.117512466805806,5.039170822268602,27.08472933789007,26.87557771876596,26.87557771876596,73.90783872660643,67.18894429691494,73.98415040282198,"{'happy': (['m1', 'm3', 'm12', 'e1', 'e2'], 4.742656281246079, 54)}"
44,79,47,0,1.960291666666664,30.23502493361173,154.68056584260938,16.797236074228636,30.421088381671307,47.03226100784013,47.03226100784013,30.421088381671307,107.5023108750638,77.34028292130469,62.14977347464628,50.39170822268613,57.11060265237768,23.51613050392018,53.75115543753191,20.15668328907452,6.718894429691545,23.75487906655688,23.51613050392024,25.195854111343124,70.54839151176066,67.18894429691488,73.90783872660631,"{'happy': (['m1', 'm3', 'm12', 'e1', 'e2'], 4.742656281246079, 54)}"
45,79,48,0,2.0019999999999976,36.66157513478527,163.3106528731348,19.997222800792088,29.995834201188018,49.993057001980105,53.325927468778445,29.995834201187904,116.65046633795328,86.65463213676526,68.32384456937268,59.99166840237592,59.99166840237592,29.995834201188018,56.65879793557736,23.33009326759065,13.331481867194611,30.18042569238571,26.87046074502297,28.32939896778862,69.99027980277202,66.65740933597334,73.32315026957076,"{'happy': (['m1', 'm3', 'm12', 'e1', 'e2'], 4.742656281246079, 54)}"
46,79,49,0,2.043708333333331,43.32731606838263,159.9777824063358,16.664352333993406,33.3287046679867,50.10402951811008,53.42997815790194,33.328704667986585,126.64907773834932,93.32037307036262,71.65671503617125,59.99166840237592,59.99166840237592,26.662963734389336,66.6574093359734,29.995834201188018,13.331481867194611,26.87046074502292,26.87046074502292,28.32939896778862,69.99027980277202,73.3231502695707,73.39885824045571,"{'happy': (['m1', 'm3', 'm12', 'e1', 'e2'], 4.742656281246079, 54)}"
47,79,50,0,2.085416666666664,43.309279302430014,163.2766593257506,16.65741511631927,33.31483023263843,46.759592485993565,53.40773574599344,30.167861856820576,123.30988368328168,90.01171461557392,68.29540197690892,56.635211395485385,53.3037283722216,24.986122674478903,68.2954019769088,31.64908872100648,11.660190581423535,26.85927481763403,26.85927481763406,26.651864186110743,66.62966046527691,73.29262651180466,70.27771136542084,"{'happy': (['m1', 'm3', 'm12', 'e1', 'e2'], 4.742656281246079, 54)}"
48,79,51,0,2.1271249999999973,43.40712433209477,160.11218012518248,16.645872314630765,29.96257016633536,46.72719029757853,50.04846639647943,30.14695695384805,120.0350923104552,90.13397866050026,68.24807648998615,59.92514033267071,49.93761694389229,24.96880847194609,64.91890202705997,31.62715739779844,11.6521106202415,30.146956953848083,30.693471967031822,29.962570166335297,66.583489258523,76.57101264730142,69.99188489555826,"{'happy': (['m1', 'm3', 'm12', 'e1', 'e2'], 4.742656281246079, 54)}"
49,79,52,0,2.1688333333333305,40.13307494481973,163.44663179167472,13.331481867194723,29.995834201188018,46.779066183992754,50.10402951811053,33.328704667986585,116.69806906033376,86.71870211382647,66.65740933597328,56.65879793557724,49.99305700197999,19.99722280079197,63.32453886917472,29.995834201188018,9.99861140039593,26.87046074502289,27.483553942224983,26.662963734389336,63.32453886917472,73.3231502695707,70.06958892714276,"{'happy': (['m1', 'm3', 'm12', 'e1', 'e2'], 4.742656281246079, 54)}"
50,79,53,0,2.210541666666664,36.63487934671957,169.98317788112146,16.652217884872584,30.15844927034016,53.39107215432726,56.71541044221711,26.64354861579602,109.95508772747952,79.93064584738818,61.61320617402839,49.95665365461764,43.295766500668606,19.9826614618471,63.27842796251559,29.97399219277053,6.660887153949034,26.64354861579602,26.850894533733893,28.308770404283337,66.60887153949011,73.26975869343914,76.88926066458096,"{'happy': (['m1', 'm3', 'm12', 'e1', 'e2'], 4.742656281246079, 54)}"
51,79,54,0,2.252249999999997,53.3037283722216,173.52517912782267,13.736056394868896,29.98334720937464,53.40773574599344,60.05916431857799,23.32038116284696,119.9796505128304,90.01171461557392,63.298177442013184,49.97224534895781,39.97779627916623,21.654639651215007,74.9583680234366,41.64353779079818,11.66019058142342,26.85927481763406,30.16786185682053,29.98334720937464,63.29817744201307,76.6241095350685,73.59486542915955,"{'happy': (['m1', 'm3', 'm12', 'e1', 'e2'], 4.742656281246079, 54)}"
52,79,55,0,2.29395833333333,70.04041959724756,190.1573622543549,13.325932093055371,26.651864186110743,56.73311157468461,63.38578741811829,19.988898139583057,129.97054221013826,103.32969334703364,68.2954019769088,43.309279302430014,33.31483023263843,18.323156627951107,91.61578313975588,61.632435930381234,8.328707558159522,26.85927481763406,26.859274817634,28.31760569774275,66.62966046527697,76.6241095350685,73.36830296615302,"{'happy': (['m1', 'm3', 'm12', 'e1', 'e2'], 4.742656281246079, 54)}"
53,79,56,0,2.3356666666666634,69.9781352485686,193.38781746081696,13.32916861877493,26.86579824377413,60.07375114287361,63.66335222516364,16.99142272177549,126.62710187836215,100.02428742467669,64.9796970165279,39.9875058563249,33.32292154693732,19.9937529281624,89.97188817673111,59.98125878448741,9.996876464081195,26.86579824377407,26.86579824377407,26.658337237549915,63.31355093918114,73.31042740326234,70.29478001163335,"{'happy': (['m1', 'm3', 'm12', 'e1', 'e2'], 4.742656281246079, 54)}"
54,79,57,0,2.3773749999999967,70.57826801995122,202.0998135268892,13.857221615210102,26.88695924569572,57.2335521499837,67.30136741382925,20.44337353167159,131.07392632276662,104.1869670770709,68.89783306709523,40.33043886854352,26.88695924569572,13.443479622847804,97.46522726564706,67.21739811423936,6.721739811423845,23.52608933998374,24.467502237159007,23.5260893399838,60.4956583028154,73.93913792566326,70.89762832978666,"{'happy': (['m1', 'm3', 'm12', 'e1', 'e2'], 4.742656281246079, 54)}"
55,79,58,0,2.41908333333333,66.6643519724081,200.24289118754712,13.332870394481688,26.665740788963262,60.09043482052439,66.74763039584887,20.275171114218765,126.70611928333528,100.05206616226006,66.6643519724081,36.665393584824415,26.665740788963262,11.666261595171363,94.99670156068169,64.997743173098,4.999826397930519,23.56940767154825,20.275171114218896,21.66591439103263,56.66469917654689,69.99756957102852,67.41015413080488,"{'happy': (['m1', 'm3', 'm12', 'e1', 'e2'], 4.742656281246079, 54)}"
56,79,59,0,2.460791666666663,69.99027980277197,207.0675701722772,13.331481867194723,23.33009326759065,63.41218533170177,66.74067908653613,16.664352333993293,123.31620727155064,99.98611400395998,64.990974102574,36.66157513478527,23.33009326759065,13.331481867194723,93.32037307036262,66.65740933597328,3.3328704667986813,23.33009326759065,23.56695307889712,21.66365803419137,56.65879793557736,66.65740933597334,64.10904345667439,"{'happy': (['m1', 'm3', 'm12', 'e1', 'e2'], 4.742656281246079, 54)}"
57,79,60,0,2.5024999999999964,66.66435197240821,203.5720181112277,13.332870394481574,26.665740788963262,60.09043482052393,63.41878996504521,19.99930559172242,126.66226874757548,99.9965279586122,66.6643519724081,36.665393584824415,26.665740788963262,11.666261595171363,94.99670156068169,64.997743173098,4.999826397930519,23.33252319034284,24.266190402840287,23.33252319034284,56.66469917654695,66.66435197240816,64.11572067058547,"{'happy': (['m1', 'm3', 'm12', 'e1', 'e2'], 4.742656281246079, 54)}"
58,79,61,0,2.5442083333333296,66.66666666666663,210.1057934575923,13.743685418725608,26.66666666666663,60.0,66.74994798166959,20.27587510099409,126.66666666666664,100.0,66.66666666666663,33.33333333333337,26.66666666666663,10.0,96.66666666666664,63.33333333333337,0.0,23.333333333333314,24.26703296426852,23.333333333333314,56.666666666666686,66.66666666666669,66.99917080747245,"{'happy': (['m1', 'm3', 'm12', 'e1', 'e2'], 4.742656281246079, 54)}"
59,79,62,0,2.585916666666663,66.66666666666663,210.0264533603115,13.333333333333371,26.66666666666663,60.0,66.74994798166959,16.996731711975944,123.37837015547824,96.72412085697935,63.33333333333326,26.66666666666663,23.333333333333258,8.333333333333371,98.33333333333326,68.33333333333326,1.6666666666666288,23.333333333333314,23.570226039551585,23.333333333333314,60.0,70.0,70.31674369909662,"{'happy': (['m1', 'm3', 'm12', 'e1', 'e2'], 4.742656281246079, 54)}"
60,79,63,0,2.627624999999996,66.74994798166937,210.1057934575923,13.333333333333258,23.333333333333258,63.42099196813498,66.74994798166959,20.27587510099409,123.33333333333326,100.0,66.66666666666663,30.0,23.333333333333258,6.666666666666629,96.66666666666664,70.0,0.0,16.66666666666663,16.996731711975944,16.666666666666686,70.0,73.33333333333331,73.63574011458144,"{'happy': (['m1', 'm3', 'm12', 'e1', 'e2'], 4.742656281246079, 54)}"
61,79,64,0,2.6693333333333293,70.57826801995134,211.7614759506268,13.443479622847915,27.096199438349736,60.49565830281563,67.30136741382971,17.137141231872057,127.71305641705476,100.8820961188429,65.53696316138337,26.88695924569572,23.52608933998374,8.402174764279948,102.50653212421504,68.89783306709535,1.6804349528559896,20.443373531671647,17.137141231872114,16.80434952855984,70.57826801995134,73.93913792566332,77.59170701062816,"{'happy': (['m1', 'm3', 'm12', 'e1', 'e2'], 4.742656281246079, 54)}"
62,79,65,0,2.7110416666666626,67.21739811423936,208.48232112332,13.443479622847915,26.88695924569572,60.588943876041824,63.94491098883142,17.137141231872057,124.3975953814016,97.5231560834008,63.85652820852738,26.88695924569572,20.16521943427176,6.721739811423959,100.82609717135904,70.57826801995134,0.0,20.16521943427182,20.443373531671647,20.16521943427182,73.93913792566332,77.30000783137524,74.01548191907791,"{'happy': (['m1', 'm3', 'm12', 'e1', 'e2'], 4.742656281246079, 54)}"
63,79,66,0,2.752749999999996,66.62966046527697,199.91674182668413,13.325932093055371,26.859274817633946,56.73311157468461,63.29817744201273,20.26462010423387,126.59635488402614,99.99999999999996,66.62966046527686,29.98334720937464,26.651864186110743,8.328707558159635,98.27874918628343,64.96391895364502,1.6657415116319498,13.325932093055371,13.325932093055428,11.660190581423478,73.29262651180466,73.29262651180466,76.91325814564956,"{'happy': (['m1', 'm3', 'm12', 'e1', 'e2'], 4.742656281246079, 54)}"
64,79,67,0,2.794458333333329,63.84358084348867,201.3606076167554,13.422176446050344,26.8443528921008,57.14285714285717,63.84358084348844,23.7272799582114,127.51067623747848,100.66632334537768,68.78865428600807,33.55544111512586,30.19989700361328,8.388860278781522,95.63300717810888,65.43311017449548,1.6777720557563498,10.611162181545891,10.066632334537816,8.388860278781522,80.53305867630218,63.755338118739246,73.89819346837125,"{'happy': (['m1', 'm3', 'm12', 'e1', 'e2'], 4.742656281246079, 54)}"
65,79,68,0,2.8361666666666623,63.80924624966599,194.81506954294065,10.075144144684032,26.86705105249098,57.19117411074216,60.45086486810442,23.508669670929635,124.26011111777063,97.39306006527966,65.4884369404466,33.58381381561367,30.225432434052323,8.395953453903303,92.3554879929377,62.130055558885374,1.6791906907806151,10.075144144684089,10.075144144684089,10.075144144684089,77.24277177591148,73.88439039435008,73.96067785958094,"{'happy': (['m1', 'm3', 'm12', 'e1', 'e2'], 4.742656281246079, 54)}"
66,79,69,0,2.8778749999999955,61.59736747953277,205.036902383272,13.66722873114179,27.33445746228358,61.50252929013777,68.33614365570884,23.917650279498048,126.46803040427974,99.1463012678202,68.33614365570884,30.751264645068886,34.16807182785442,8.542017956963605,93.96219752659964,59.79412569874523,1.7084035913927664,20.50084309671263,17.08403591392721,17.08403591392721,71.75295083849426,71.75295083849426,71.83425732445319,"{'happy': (['m1', 'm3', 'm12', 'e1', 'e2'], 4.742656281246079, 54)}"
67,79,70,0,2.9195833333333288,62.03209651160205,203.35663067602425,14.209160338657911,27.78437504132596,58.68714103247266,65.47832409557986,24.36850894142902,127.55698274881314,99.94059993535882,68.9245516795578,37.90850342375677,34.462275839778954,12.061796543922584,91.32503097541404,60.30898271961303,1.723113791988908,20.962584018700813,20.962584018700863,20.67736550386735,68.9245516795578,68.9245516795578,69.2683171621078,"{'happy': (['m1', 'm3', 'm12', 'e1', 'e2'], 4.742656281246079, 54)}"
68,79,71,0,2.961291666666662,62.12775130475335,203.32742745469568,13.78491033591149,27.56982067182309,58.68714103247221,62.03209651160205,27.56982067182321,131.00198544306028,103.44424869983663,72.37077926353572,41.3547310077347,41.3547310077347,13.78491033591149,89.60191718342514,58.58586892762412,3.446227583977929,20.962584018700863,20.677365503867293,18.954251711878328,65.47832409557986,68.92455167955774,62.41383609318523,"{'happy': (['m1', 'm3', 'm12', 'e1', 'e2'], 4.742656281246079, 54)}"
69,79,72,0,3.0029999999999952,58.687141032472574,203.32742745469525,13.78491033591149,27.56982067182309,58.58586892762423,62.03209651160205,27.56982067182309,127.55698274881304,99.99999999999996,70.64766547154659,37.90850342375677,37.90850342375677,10.338682751933677,89.60191718342503,58.58586892762412,0.0,13.784910335911547,13.784910335911604,13.784910335911604,68.92455167955774,68.92455167955774,65.56895157714789,{}
70,79,73,0,3.0447083333333285,61.57715210504576,198.13922184241423,13.662743342263866,27.32548668452773,58.066659204621374,61.48234504018728,27.53813959354532,129.97571036586064,102.69803500294697,71.72940254688524,37.57254419122569,40.9882300267916,11.954900424480911,90.51567464249808,56.35881628683842,1.7078429177829548,10.801347011963802,10.2470575066979,10.2470575066979,75.14508838245132,68.31371671131939,64.9878551829306,{}
71,79,74,0,3.0864166666666617,60.19621696826243,215.6544302078085,14.13937429682312,28.278748593646128,63.62718433570399,67.16202790990974,28.49881999516377,130.9801455038304,102.75395678278166,72.46429327121837,38.8832793162635,42.41812289046925,12.371952509720243,90.13851114224724,58.32491897439536,1.767421787102876,14.574533426486283,14.13937429682312,14.13937429682312,74.2317150583213,70.69687148411555,67.25498577849525,{}
72,79,75,0,3.128124999999995,63.69297552984828,208.47992450178145,14.132202409830144,28.48436459479424,60.0618602417785,63.692975529848255,28.48436459479424,134.6736605687645,106.22679365306666,74.19406265160853,38.86355662703306,42.39660722949054,12.365677108601403,93.62584096512512,58.29533494054954,1.7665253012287394,21.490707822276296,17.665253012287735,19.43177831351653,67.12796144669352,67.12796144669352,63.98626783556317,{}
73,79,76,0,3.169833333333328,63.986267835563154,208.47992450178097,14.132202409830144,28.2644048196604,60.06186024177805,63.692975529848255,28.48436459479424,134.67366056876446,106.52015735347382,74.19406265160853,38.86355662703306,42.39660722949054,12.365677108601403,93.62584096512512,58.29533494054954,1.7665253012287394,21.490707822276296,21.490707822276296,21.19830361474527,67.12796144669352,67.12796144669352,60.16568375961836,{}
74,79,77,0,3.2115416666666614,60.49293175569951,197.9771025792432,10.066632334537758,26.844352892100687,53.68870578420183,60.49293175569964,30.38574427775572,127.6871616869773,100.8897782781456,70.46642634176442,36.91098522663856,36.91098522663856,6.711088223025172,90.59969101083992,60.39979400722666,0.0,13.4221764460504,10.066632334537758,10.066632334537758,77.17751456478959,73.821970453277,60.77148855551142,{}
75,79,78,0,3.253249999999994,60.01754615522752,196.4495046296016,10.527774030914436,23.30422124048312,53.26679140681836,60.01754615522762,30.146956953848107,123.58369143676804,100.37336782025923,69.91266372144923,33.29174462926153,36.620919092187705,4.993761694389264,88.22312326754297,58.26055310120762,1.6645872314630878,10.527774030914385,10.527774030914328,8.322936157315382,76.57101264730142,73.24183818437524,63.341864062127485,{}
76,79,79,0,3.294958333333328,62.08168638309043,203.20585091875023,10.331017085607982,27.549378894954657,51.65508542803991,58.64362716793524,27.76377418208273,127.60188606832769,100.1037114139023,68.87344723738681,30.99305125682406,34.43672361869346,5.165508542803991,94.70098995140675,60.26426633271342,1.7218361809347016,10.33101708560804,10.88984817887866,10.331017085607982,75.7607919611255,72.31711959925616,62.08168638309066,{}
77,79,80,0,3.336666666666661,62.792428531148566,208.31747140808184,11.405029212003797,25.819233006600538,57.09638299730029,62.79242853114846,28.65478125897208,128.59138826104052,102.80354405511098,71.2814325750237,28.512573030009435,37.06634493901231,4.276885954501495,95.51711965053188,64.1532893175214,4.276885954501381,11.405029212003797,9.01646727267181,9.97940056050328,76.98394718102571,65.57891796902186,71.33843492925534,{}
78,79,81,0,3.3783749999999944,61.48035774700296,206.75395817408824,11.510388370017802,22.333433901865646,55.90333317005907,58.89053803493236,28.056029113284296,123.11906805864729,100.84880872444552,69.79198094333015,25.12511313959885,33.50015085279847,1.395839618866603,93.5212544640624,62.81278284899713,6.979198094333015,11.166716950932823,11.166716950932823,9.77087733206622,75.3753394187965,64.20862246786368,72.63732648058048,{}
79,79,82,0,3.420083333333328,58.8249892933331,197.34094796304555,10.651528583230174,23.96593931226778,55.98389111635198,58.82498929333298,24.550560327804128,117.6499785866662,93.8075592965384,63.90917149938093,23.96593931226789,34.617467895498066,5.325764291615087,87.87511081164871,58.583407207765845,2.662882145807544,8.420772721348431,7.988646437422574,7.988646437422574,69.23493579099596,66.57205364518848,58.64389602843043,{}
80,79,83,0,3.461791666666661,61.69086236127688,198.58579080369373,10.71871929674228,24.117118417670213,53.59359648371151,59.19606213720506,24.2655328548968,120.7046302141666,96.617230079274,65.65215569254644,24.117118417670213,34.83583771441249,5.359359648371083,91.10911402230944,58.95295613208259,2.6796798241855413,10.71871929674228,10.71871929674228,10.71871929674228,69.67167542882481,64.31231578045367,56.33704208054479,{}
81,79,84,0,3.503499999999994,59.013826521175424,198.58579080369373,13.39839912092782,24.117118417670213,53.660546661574536,59.196062137204834,27.32747942740625,123.52713635194829,99.47352661428488,69.67167542882487,26.79679824185576,37.51551753859803,5.359359648371083,91.10911402230944,58.95295613208259,5.359359648371196,13.398399120927875,10.71871929674228,10.71871929674228,66.99199560463921,61.63263595626808,56.33704208054456,{}
82,79,85,0,3.545208333333328,58.45569120024191,196.1020589016608,10.584659226489975,26.461648066224825,52.98940895789241,58.45569120024181,26.98569197030106,122.1829170051094,95.8481658518063,66.15412016556218,26.461648066224825,37.0463072927148,5.292329613244988,89.96960342516468,55.56946093907232,2.6461648066225507,16.095992134717076,15.876988839734963,15.876988839734963,63.50795535893974,60.861790552317245,55.63242918696672,{}
83,79,86,0,3.5869166666666605,62.6460557568216,192.73505559886053,11.188054901565398,27.13501888491976,51.55653588134737,57.04811026222938,22.37610980313085,122.85902336679032,95.936779305759,63.76729437956146,27.13501888491976,32.56202266190371,8.140505665475871,92.2590642087273,56.98353965833155,1.1368683772161605e-13,21.87695162551717,21.87695162551717,21.708015107935807,59.69704154682341,62.41054343531539,60.67574679742123,{}
84,79,87,0,3.6286249999999938,62.70379406931412,190.19778111963043,10.864011249689495,27.16002812422369,51.60405343602497,57.10068917685768,23.205538201629665,122.97225751374476,96.02520031927962,63.82606609192578,27.16002812422369,32.59203374906849,8.148008437267094,92.34409562236056,57.036059060869775,0.0,21.728022499378994,21.89711471885286,21.728022499378937,59.752061873292064,62.46806468571447,54.92775757600398,{}
85,79,88,0,3.670333333333327,56.155840196148986,198.44256512608348,13.96928736066434,30.73243219346159,55.87714944265736,61.718328820547306,21.27738459788636,120.94531228115714,90.48820870007138,61.46486438692307,25.144717249195764,30.73243219346148,8.381572416398512,92.19729658038466,53.08329197052456,1.1368683772161605e-13,22.52479905234496,19.75555564213852,19.55700230493005,64.25872185905592,67.05257933118878,58.93648793993167,{}
86,79,89,0,3.71204166666666,60.43187259587725,186.0424325699851,11.279259839445444,30.091845686177976,54.71244670214173,57.7080163785748,22.55851967889061,123.86056918442756,94.01152328708282,62.91931370746306,30.091845686177976,32.827468021285085,9.574678172874885,91.64334822608748,53.34463553458818,4.103433502660664,19.343771039195985,19.343771039196035,17.781545178196097,62.91931370746306,68.39055837767722,60.740673137906725,{}
87,79,90,0,3.7537499999999935,67.31487362177762,171.7772659172258,10.736079119826629,32.31987803169724,45.62833625926305,53.747454208163255,20.44088565580072,129.83555560525252,97.55221185970775,63.07446482898138,34.89225713943654,34.89225713943654,16.10411867973994,93.94069229848276,56.36441537908968,8.05205933986997,16.326254948099585,13.68586923286797,13.420098899783229,69.78451427887296,69.78451427887296,59.29193489378557,{}
88,79,91,0,3.795458333333327,67.75869594312161,170.22955733297624,13.776103291490438,32.53297036214096,48.63089042624711,54.303822236459936,19.66879035092421,133.3728651858511,100.87210953356644,66.19204530239165,37.82402588708089,40.52574202187236,20.26287101093624,93.20920665030668,55.38518076322566,9.456006471770252,16.21029680874898,11.139460994180869,12.15772260656172,70.2446195045789,70.2446195045789,59.68286014946373,{}
89,79,92,0,3.83716666666666,63.37132806484959,168.4270313161292,13.156755870285451,29.06422368046029,49.99567230708499,52.69276619694477,16.848868479802455,119.83486416111582,90.8483281598751,57.88972582925624,28.94486291462817,31.57621408868522,17.103782631371132,88.15026433091305,51.31134789411351,9.209729109199884,13.417310983632492,13.156755870285563,11.841080283256986,71.0464816995418,71.0464816995418,52.8895040295286,{}
90,79,93,0,3.878874999999993,55.43572594405337,173.7559182889588,11.371650860024872,30.83571784023892,46.88651763352868,52.47510808676164,18.501430704143484,115.21174968869592,84.37950647215571,55.16060898062187,30.33833493934208,30.33833493934208,13.790152245155468,82.7409134709327,44.12848718449743,5.516060898062278,11.371650860024872,8.274091347093304,8.274091347093304,71.70879167480831,77.22485257287053,60.926884011887125,{}
91,79,94,0,3.9205833333333264,51.6244578949332,162.15137385110748,11.14124007510709,30.21092887700668,43.234362004734976,51.34080488062273,21.78541062908864,113.4258451677944,83.24193713302755,55.3940263185666,32.42577150355112,29.72362387825524,12.159664313831628,79.71335494622997,44.58543581738286,4.053221437943876,10.808590501183744,13.510738126479623,13.510738126479623,67.55369063239823,78.36228113358197,57.0018666015169,{}
92,79,95,0,3.96229166666666,49.589477261772174,156.16893192390154,11.289561379799538,30.613121483646445,41.162981891576514,46.54805403580713,26.96736265582261,117.61177209324768,87.01884113419209,60.23865816398563,41.07181238453563,35.59557073326425,13.690604128178506,76.66738311779977,41.07181238453563,8.214362476907127,13.96173152049126,13.961731520491314,13.690604128178563,68.45302064089265,79.40550394343546,60.79614863048085,{}
93,79,96,0,4.003999999999993,48.16957086735751,159.1500124370353,11.50506577633038,28.043055542050173,41.948734612477935,50.2269897446356,23.841088249677394,111.09110292922492,83.24528578093553,57.20296054250173,36.275048148903466,30.69427151061064,11.161553276585664,75.3404846169534,41.8558247871963,5.580776638292832,14.228244489828937,14.228244489828937,12.5567474361589,69.75970797866051,83.71164957439265,59.19307507836506,{}
94,79,97,0,4.045708333333327,46.47013051002823,152.2475830566567,11.193464924169495,30.35254338221459,40.72221017558604,46.15183819899744,26.737817159613453,113.95753173084674,83.63213585176415,58.36850125167325,40.72221017558593,32.577768140468834,12.216663052675813,74.65738532190755,39.36480316973302,4.072221017558604,10.859256046822908,13.574070058528662,12.216663052675756,62.4407222692318,76.01479232776046,55.37155848585056,{}
95,79,98,0,4.08741666666666,49.52454222183749,155.9644362044262,11.274778241127278,30.573035070644394,43.83793714779271,49.22163698144095,25.7975552539919,115.4025772045096,84.90281014842057,57.42524314501463,38.28349543000979,32.814424654294044,13.672676939289204,76.56699086001959,38.28349543000979,5.469070775715636,10.938141551431386,11.274778241127278,10.938141551431386,68.36338469644608,82.03606163573528,50.42234115679207,{}
96,79,99,0,4.129124999999993,55.68314637327673,170.8930088336983,11.935685470467272,29.092670749381195,43.51882135682477,49.21209190888658,29.804088044597528,124.98153637272108,96.22857266552944,65.13365105587945,40.52760510143605,34.73794722980233,11.57931574326733,83.95003913868914,49.212091908886805,2.894828935816804,11.935685470467272,8.684486807450583,10.131901275358985,66.58106552378786,72.37072339542158,64.27563334458695,{}
97,79,100,0,4.170833333333326,61.00573396115957,169.69880457981802,9.094197876961308,26.51391517138285,46.103188394632085,48.97375435612964,28.323718324854266,124.1616151985837,97.65153024105844,64.70635226279751,37.38589241850525,34.51005454015865,10.065432574212991,84.83721741122338,50.32716287106473,4.3137568175197885,11.503351513386235,14.379189391732837,12.941270452559536,71.8959469586639,77.64762271535704,69.97215555847522,{}
98,79,101,0,4.21254166666666,57.71004580432453,176.92184288693238,11.765603962931584,25.84024881758413,45.65724977727291,51.443610990195225,28.104485042340468,122.57106235355774,96.89568084050664,65.63229655482985,31.38935922187511,31.38935922187511,5.707156222159142,88.4609214434663,54.217984110511566,2.853578111079628,11.414312444318227,14.267890555397798,12.84110149985804,77.04660899914802,79.90018711022753,60.5335329896954,{}
99,79,102,0,4.254249999999993,59.80644623914085,178.61113938899507,11.6894062478214,28.912434447286547,48.19665666052265,53.94140779337568,22.85728638843416,121.77725398474,92.86837629669807,60.954595188307735,28.350974506189687,28.350974506189687,8.505292351856951,90.72311841980697,53.86685156176043,0.0,11.340389802475896,14.45621722364325,14.175487253094843,73.71253371609316,79.38272861733111,48.941370140637005,{}
100,79,103,0,4.295958333333326,56.98475350495514,181.46838468673224,14.45621722364325,28.912434447286547,48.19665666052242,56.77278220553381,25.357882489681568,124.5508357266098,95.6399020128526,65.20724136423632,34.02116940742769,31.186071956808632,9.922841077166368,89.30556969449754,52.4493028364509,1.4175487253095298,14.175487253094843,17.01058470371379,15.593035978404316,70.87743626547422,76.54763116671216,51.73567362710726,{}
101,79,104,0,4.337666666666659,59.99758677926211,182.08448201306123,15.220529949295594,29.998793389630965,50.74485564298425,56.79333674396262,32.149342441378835,136.43076677839218,106.5437096450696,74.62478771027111,47.75986413457349,47.75986413457349,17.909949050465002,86.56475374391448,47.75986413457349,5.9699830168216295,14.924957542054187,15.220529949295662,16.41745329625968,65.66981318503855,71.63979620186029,54.06049548545994,{}
102,79,105,0,4.3793749999999925,59.11691541835823,188.2582706565325,14.997116216449308,26.63348570040417,50.0,56.19109757218458,31.677440041967635,131.53341044116405,104.97981351514554,73.52941176470574,38.23529411764696,41.17647058823525,10.294117647058783,89.70588235294122,54.41176470588232,1.4705882352941444,14.70588235294116,14.70588235294116,14.70588235294116,64.70588235294116,70.58823529411762,53.26697140080816,{}
103,79,106,0,4.421083333333326,53.439177775031176,179.03845320534182,14.262642913748053,28.11085286681568,47.55128488670448,53.21911159189714,27.54857900834396,122.34066030479885,94.3592469324686,65.73265851985616,33.565612861203135,36.36274726630336,9.789970417850896,85.31259935555806,48.94985208925459,1.3985672025501117,14.262642913748008,17.014304351551864,15.384239228051456,64.33409131730605,69.92836012750655,53.80395455421809,{}
104,79,107,0,4.462791666666659,57.01913690722175,181.64434630456296,14.464939801201064,28.50956845361089,51.062545598724455,54.19714243819447,24.23769893560831,123.588499837254,95.14943588577572,65.24658604281478,34.04169706581649,39.71531324345256,14.184040444090217,85.10424266454095,48.225737509906594,2.8368080888179747,17.02084853290819,14.464939801201009,14.184040444090158,65.24658604281478,70.92020222045085,51.76688984492757,{}
105,79,108,0,4.504499999999992,62.46165238852617,181.6078128475756,11.694106924093692,28.503834429326496,51.13099925649135,53.96309932246909,29.61118916695763,131.5720778286671,103.08465186425602,70.90593830191949,39.70732544907492,45.37980051322848,14.181187660383898,87.92336349438017,53.88851310945881,2.83623753207678,17.017425192460678,14.181187660383957,14.181187660383957,65.23346323776593,68.06970076984271,54.18624196695824,{}
106,79,109,0,4.546208333333325,67.3244227875941,187.48579445389583,13.977472490679476,30.877245953471903,53.11439546458223,58.77190616430452,26.520389401736374,138.00232601284853,107.14441543776248,72.68285695153361,39.13692297390264,47.52340646831044,18.17071423788343,93.64906568755292,54.51214271365018,6.988736245339851,13.977472490679588,13.977472490679531,13.977472490679531,67.09186795526182,69.88736245339771,53.40784739646849,{}
107,79,110,0,4.587916666666659,68.3876970019661,188.9158657530088,13.666610481827888,30.066543060021445,49.19979773458067,57.65949278916494,30.559470059378505,142.3690900040078,112.36580424395964,77.89967974641934,43.73315354184945,54.66644192731178,19.133254674559,92.93295127643012,57.39976402367745,8.199966289096665,13.93726270630257,16.399932578193557,16.399932578193557,71.06637450550534,68.33305240913978,57.982517685214106,{}
108,79,111,0,4.629624999999992,62.86125789897301,188.7220968061937,13.652592788242371,27.30518557648452,51.95165865403978,57.92304564806805,27.441371885529364,131.1786130364753,103.90331730807968,72.35874177768426,38.22725980707844,49.14933403767225,16.383111345890825,87.37659384475069,51.8798525953207,5.461037115296904,16.609095970748015,13.652592788242316,13.652592788242316,70.99348249885998,65.53244538356307,65.75959492214294,{}
109,79,112,0,4.671333333333325,53.37031644112231,184.38005434295667,13.325932093055371,23.98667776749972,48.0473314548624,53.56958402828409,29.317050604721885,119.96299836488156,95.98372041026433,69.294846883888,37.312609860555085,50.638541953610456,14.658525302360886,75.9578129304158,43.97557590708277,3.997779627916543,18.84571389726181,15.991118511666514,17.323711720972028,69.29484688388806,61.299287628054856,61.35719910778963,{}
110,79,113,0,4.713041666666658,50.15213384267502,183.94492574323613,14.18516557245231,30.60133833201041,52.85685711892688,58.68508539112662,30.60133833201041,125.18729317640611,94.5859548443957,69.54849620911443,41.72909772546871,52.856857118927,16.691639090187437,77.89431575420826,41.72909772546871,5.5638796967291455,16.92187947117559,19.67128531631674,19.473578938552063,75.11237590584363,61.20267666402077,66.76655636074975,{}
111,79,114,0,4.754749999999992,48.01067022353959,168.79769964652428,13.336297284316515,24.153061645236505,48.01067022353959,50.95792037291918,29.8208672958777,114.97094960467768,90.84358365819268,66.6814864215828,37.341632396086425,53.34518913726629,16.003556741179864,69.34874587844604,37.34163239608631,5.334518913726697,19.41794194918751,16.00355674117992,17.337186469611538,72.01600533530944,56.01244859412958,66.6814864215828,{}
112,79,115,0,4.796458333333325,44.67230801662561,173.91389079918557,14.236560643375189,30.83886059466368,47.54637456704948,53.12178914850866,33.62036387719625,123.13406337787453,92.30569347284629,69.80048127597763,39.08826951454751,55.84038502078215,13.96009625519548,75.38451977805585,39.08826951454751,2.7920192510390507,10.066768571704127,11.511790280792166,9.772067378636848,97.72067378636864,64.21644277389942,84.50183602932226,{}
113,79,116,0,4.838166666666658,53.048365769742986,165.31960704222124,11.51179028079211,30.83886059466368,47.46432726766466,53.12178914850866,33.62036387719625,128.7057280528631,97.8800877158096,71.19649090149721,44.67230801662572,58.6324042718212,18.14812513175412,76.78052940357543,40.48427914006709,6.980048127597684,11.511790280792166,15.03548381153788,12.564086629675955,75.38451977805585,41.88028876558656,90.4286718999204,{}
114,79,117,0,4.879874999999991,52.99803830143912,164.95064188394804,11.500868940387566,28.03282595225607,47.50126688796696,50.2086678645212,33.58846793143354,125.8002974617728,97.78722798411732,71.12894614140532,47.41929742760351,58.57677917527496,19.525593058424988,72.52363135986411,39.05118611684986,8.368111310753534,12.474443822753162,14.223054288482995,12.552166966130358,75.31300179678203,44.6299269906857,78.89531004743594,{}
115,79,118,0,4.9215833333333245,53.312662070225656,165.92987421549347,8.873128435199055,28.19924330719036,47.78325897841816,50.50673248758176,34.1356066559178,123.9700209164101,95.77225881489912,68.74527477476465,42.08894373965177,53.31266207022554,14.029647913217218,75.76009873137332,42.08894373965177,5.611859165286887,12.548498573736708,11.569144047284334,11.223718330573831,78.5660283140167,44.89487332229527,73.81248301842716,{}
116,79,119,0,4.963291666666658,48.93319195420213,160.59933936976373,11.208706612544384,27.320694049120224,43.49617062595735,49.00864796194381,36.269456035465225,123.08580532880752,95.76723127774488,70.6812772671808,46.21468129007974,54.3702132824468,14.951808652672868,72.04053259924194,42.13691529389621,4.07776599618353,11.20870661254444,11.208706612544496,10.874042656489337,73.39978793130314,40.77765996183507,71.51285031248048,{}
117,79,120,0,5.004999999999991,47.03973741446544,149.16534043729897,8.264039486997262,26.263528348086773,44.50321461014732,47.03973741446521,34.372841481580146,115.46019597699122,89.19804715838067,65.33296863120188,41.81309992396916,49.6530561597134,11.75993435361636,69.252946749074,37.89312180609716,3.91997811787212,10.774989220064445,13.32536327725777,11.75993435361636,70.55960612169804,41.81309992396922,70.99382318080592,{}
118,79,121,0,5.046708333333324,55.0427291767668,162.38297226971412,8.24610817552741,24.890561806714548,46.72794632798832,49.47664905316424,33.999575007968495,121.72129658606733,96.83083206909592,68.71756812939452,41.23054087763671,49.47664905316401,12.36916226329106,75.58932494233397,45.35359496540036,4.123054087763649,14.015688832736954,14.01568883273691,12.36916226329106,74.21497357974607,43.97924360281252,72.30707943625585,{}
119,79,122,0,5.0884166666666575,46.816458878452295,165.4409750200225,11.0156373831652,27.676446397045016,46.81645887845207,49.57036822424334,36.74173335460556,121.67169173148392,93.99669907946114,70.22468831767833,46.81645887845218,55.07818691582611,15.14650140185222,70.22468831767833,39.93168551397389,6.884773364478292,14.0422374928555,11.354659116073153,11.0156373831652,74.35555233636529,46.81645887845218,74.81312928496872,{}
120,79,123,0,5.130124999999991,47.29297742219785,164.22872702397964,11.470231838922022,25.19153675807281,47.29297742219797,50.07491727056231,36.27205790117483,119.91419330675166,94.74945704913426,70.93946613329672,47.29297742219785,52.856857118927,13.909699241822976,69.54849620911443,38.94715787710413,2.7819398483645728,14.18516557245231,14.185165572452265,13.909699241822864,75.11237590584363,50.07491727056242,86.64302418730051,{}
121,79,124,0,5.171833333333324,38.51355758232494,159.24527881079996,13.991594115123238,27.576631198086822,46.64761515876262,49.39159252104264,35.671705709641856,115.2797109846563,87.80727559296452,68.59943405700358,46.64761515876239,52.13556988332266,13.71988681140067,65.85545669472344,35.671705709641856,2.743977362280134,13.991594115123297,13.991594115123238,12.347898130260605,74.08738878156385,52.13556988332266,77.02711516464967,{}
122,79,125,0,5.213541666666657,42.37347309278687,163.94147730226763,14.124491030928992,28.389875614494784,48.0232695051584,50.926576651845664,34.01627892524694,118.7801674504255,90.44087086154414,69.21000605155189,48.02326950515851,53.67306591753004,16.9493892371147,67.79755694845915,33.89877847422963,5.649796412371529,14.404211077254624,14.124491030928992,14.124491030928992,70.62245515464485,48.02326950515851,82.35922774052051,{}
123,79,126,0,5.25524999999999,39.548574886601045,161.11828649904692,11.299592824743172,28.248982061857987,45.28656332683162,50.84816771134433,36.72367668041534,115.82082645361754,87.57184439175956,67.79755694845903,48.02326950515851,53.67306591753004,14.12449103092888,64.97265874227332,31.07388026804381,5.649796412371529,17.18318496049362,16.949389237114758,15.536940134021847,70.62245515464491,48.02326950515851,99.23397374959188,{}
124,79,127,0,5.296958333333324,27.42540181382497,155.57291627508206,16.373576856725094,30.142011254198287,43.74806754600457,46.39180109405424,38.2050126656917,111.88610852095428,81.9133538146417,68.22323690302096,54.57858952241679,57.3075189985376,17.7380415947855,55.94305426047708,23.19590054702712,4.09339421418133,22.50332894981531,19.102506332845905,20.46697107090631,92.78360218810845,70.95216637914177,84.77269090127838,{}
125,79,128,0,5.338666666666657,14.22097979772797,156.20686084114698,16.73378157485172,33.46756314970344,44.71048769872281,47.412381128746574,41.9273163242836,106.12730268551928,72.72727272727265,65.54064450150258,61.3571991077896,64.14616270359818,20.91722696856459,43.22893573503359,6.972408989521568,6.972408989521568,25.25513949629165,22.31170876646894,23.706190564373287,89.24683506587587,64.14616270359829,84.0862117491321,{}
126,79,129,0,5.38037499999999,13.666610481828002,153.1636249342135,16.399932578193557,30.066543060021445,43.81848660551216,46.46647563821489,38.26650934911822,98.39959546916124,68.33305240913978,61.49974716822578,57.39976402367745,62.86640821640856,21.86657677092478,38.26650934911822,5.466644192731224,8.199966289096778,27.46954710093557,27.333220963655947,27.333220963655947,84.73298498733334,73.79969660187095,79.3134530369754,{}
127,79,130,0,5.422083333333323,10.864011249689383,154.90742933881995,16.29601687453419,29.87603093664609,46.251861263683146,48.88805062360257,38.12091606436008,95.0988905598151,65.24062635259364,59.752061873292064,54.32005624844737,59.752061873292064,19.01201968695659,38.02403937391307,5.432005624844692,5.432005624844805,27.29549045145934,24.44402531180134,25.80202671801254,78.76408156024871,73.33207593540396,78.76408156024877,{}
128,79,131,0,5.463791666666657,22.043293868960177,154.4014332846708,16.760515248807938,30.309529069820314,44.1726104299386,46.84199947154048,41.42292123595612,110.3541539323307,80.0967432508739,68.88529334050054,60.61905813964052,66.12988160688053,22.043293868960177,46.84199947154048,13.777058668100151,8.266235200860024,27.69154520785833,24.798705602580185,26.17641146939019,77.15152854136068,74.39611680774061,74.39611680774055,{}
129,79,132,0,5.50549999999999,50.93588854142456,169.8805946705606,14.148857928173584,31.127487441981657,45.27634537015524,50.935888541424674,39.71773689036812,135.85850970007377,104.7397818443679,79.23360439777173,59.42520329832871,65.08474646959814,22.63817268507762,73.57406122650218,39.61680219888581,11.319086342538752,28.858121068323467,28.438852471810776,28.297715856347,79.23360439777156,76.4038328121369,76.45621803105247,{}
130,79,133,0,5.547208333333323,81.07002233752628,184.4792360815272,11.175429888531426,27.93857472132868,50.28943449839153,55.94695227992008,33.64249899035347,153.7637222215992,125.84769643044118,85.21265290005238,58.67100691479016,64.25872185905598,27.93857472132868,92.19729658038456,58.67100691479016,16.763144832797252,28.077920098074493,28.07792009807455,29.33550345739508,78.2280092197202,75.43415174758735,72.64029427545438,{}
131,79,134,0,5.588916666666656,77.1732564323243,187.3823464780888,13.772158183482702,33.05317964035851,52.40663601231226,58.104799030282,25.394604929097728,148.96866751304344,115.98087094822672,77.124085827503,49.57976946053759,55.08863273393069,27.54431636696529,96.40510728437891,57.84306437062742,16.526589820179083,24.942439306957343,24.942439306957368,26.16710054861716,74.36965419080656,71.61522255411,74.42064470361295,{}
132,79,135,0,5.6306249999999896,80.50836792377142,199.93744511257228,13.872507913997085,30.519517410793583,52.78849277948986,58.33055539395088,25.124180398620588,149.92580957337827,119.4325449283751,79.07329510978343,47.16652690759008,55.49003165598833,26.357765036594515,98.49480618937925,62.42628561298682,12.485257122597432,25.124180398620563,25.124180398620588,24.97051424519475,74.91154273558419,74.91154273558419,74.96290478668902,{}
133,79,136,0,5.672333333333323,73.91244535966761,196.9838045889716,13.678111675535432,30.091845686177976,52.048764642803015,57.51316602021528,22.558519678890665,139.75790908738924,109.73221934592344,72.49399188033783,43.76995736171341,46.50557969682052,23.25278984841032,94.3789705611946,58.8158802048024,12.31030050798188,24.772113836885527,27.492664214186515,25.988412183517312,71.12618071278428,73.86180304789139,73.91244535966761,{}
134,79,137,0,5.714041666666656,70.42001870014201,197.15385992914003,13.502422214246508,29.70532887134232,54.00968885698603,59.47200072004039,22.26876519640986,135.45561053273096,105.87138961717318,70.21259551408184,43.207751085588825,45.90823552843813,22.954117764219063,90.4662288354516,55.35993107841068,12.152179992821855,27.139532767407424,24.45392668954887,24.30435998564372,70.21259551408184,75.61356439978044,70.42001870014201,{}
135,79,138,0,5.755749999999989,68.50320604710362,197.0408648908148,13.134890165481464,26.269780330963044,49.9125826288298,57.85318996727582,20.00646865415012,126.7772086877484,100.68559459216728,65.67445082740744,36.77769246334822,39.40467049644451,19.7023352482222,88.00376410872605,53.85304967847412,9.194423115837026,26.269780330962988,29.01592075976912,26.269780330962988,70.92840689360003,76.18236295979261,68.50320604710373,{}
136,79,139,0,5.7974583333333225,64.68860320501128,193.4477640657483,12.896517604383234,28.372338729643047,51.58607041753294,56.97867712196939,19.6433903861524,124.47645036064736,96.30167430534368,63.19293626147783,36.11024929227301,36.11024929227301,18.055124646136505,87.69631970980595,54.16537393840963,7.73791056262985,25.92167957392944,25.92167957392944,24.503383448328123,69.64119506366939,74.79980210542271,64.68860320501126,{}
137,79,140,0,5.839166666666656,71.90867053726127,204.0603009775673,14.06091157613828,27.57571634831993,55.15143269663986,63.4840665068953,22.739518241238912,135.82265056058927,108.42552855587816,71.69686250563177,41.36357452247989,41.36357452247989,19.303001443823973,93.75743558428768,60.66657596630375,8.272714904495956,24.97087319940691,24.97087319940691,24.818144713487985,74.45443414046377,79.96957741012773,71.74987313210175,{}
138,79,141,0,5.880874999999989,65.77237466669077,194.5306666801239,15.990322301024188,29.035965437785013,49.94706306651824,57.89315590786012,21.677580706593886,132.09520301547104,103.06074776501384,69.66300901382817,42.0606846875944,42.0606846875944,21.0303423437972,89.37895496113799,55.20464865246754,7.8863783789239505,29.03596543778504,29.390796919264247,27.602324326233827,73.60619820329015,81.4925765822141,63.30971408930361,{}
139,79,142,0,5.922583333333322,76.10659782555776,211.28114513864807,14.36307909747855,28.308806836527225,53.51979966434919,59.42112688144804,26.72281055609358,144.64916901833217,116.34571464451034,77.46286793524234,45.06930498050463,47.886136541786186,21.12623670961148,97.18068886421304,63.378710128834655,7.042078903203787,31.112921518961794,31.493134260961945,29.57673139345616,76.0544521546015,84.50494683844613,70.64577615168069,{}
140,79,143,0,5.964291666666656,69.62435418742906,211.00222789414363,16.656628802937576,27.89950795611712,55.52209600979177,61.137366345804914,21.142184278628285,134.29003462701627,106.40125610719882,70.79067241248458,38.86546720685431,41.64157200734394,20.820786003672083,92.99951081640144,56.91014841003664,6.940262001224028,30.663079742954213,31.03779523279117,30.53715280538552,77.73093441370867,86.05924881517745,66.85745703146958,{}
141,79,144,0,6.005999999999989,66.69878434770627,208.2715148581549,14.15848176938046,27.905557212885125,55.5341344807066,61.15062233683281,25.59997108710783,134.00307249725546,106.09781495253512,72.19437482491855,41.65060086052995,44.427307584565256,18.04859370622956,90.24296853114822,56.92248784272431,6.941766810088211,27.905557212885125,27.9055572128851,26.378713878335645,74.97108154895386,80.52449499702448,69.47318003946333,{}
142,79,145,0,6.047708333333322,65.77191926183264,205.3773152502924,16.65533876160614,30.24353302782521,54.83082680361275,60.48706605565043,20.852906944482346,132.45261505355458,102.23132633472616,68.45302064089265,41.07181238453563,43.80993321017127,23.27402701790345,88.98892683316046,53.39335609989621,6.845302064089196,30.24353302782523,30.24353302782521,30.11932908199276,79.40550394343546,82.14362476907115,68.50776116994523,{}
143,79,146,0,6.089416666666655,61.324537685553686,205.1792897815297,16.203066337267035,24.12144241566332,53.34190656476721,61.49785278673594,19.392521554318023,120.60721207831652,96.4857696626532,65.26230857866165,31.965212365058846,37.292747759235226,15.98260618252948,85.24056630682333,53.27535394176448,2.6637676970882467,24.121442415663285,21.47598175551692,21.31014157670586,79.91303091264689,82.57679860973514,63.98589582491805,{}
144,79,147,0,6.131124999999988,66.37957906024114,209.5484324879112,11.02504799109397,27.56261997773504,55.19410349256975,60.88781764672415,26.14819722339062,130.2752999137879,102.9086507506355,68.90654994433748,35.83140597105546,41.343929966602445,13.78130998886752,90.95664592652544,55.125239955469965,2.7562619977735494,14.054233711221304,14.05423371122126,13.781309988867465,68.90654994433743,66.15028794656394,74.41907393988436,{}
145,79,148,0,6.172833333333322,65.95553521877216,214.3400209068158,14.284256782850209,25.711662209130168,60.06186024177828,63.10990921151428,23.558199799654687,129.06519644616438,103.4795572646079,69.99285823596574,31.42536492227032,37.13906763541047,11.427405426280188,94.27609476681084,57.13702713140049,1.1368683772161605e-13,11.427405426280131,11.779099899827315,11.427405426280131,82.84868934053083,79.9918379839608,77.3463157538994,{}
146,79,149,0,6.214541666666655,54.700854700854734,164.13817277480746,17.09401709401709,30.76923076923072,44.4444444444448,51.28205128205127,34.18803418803418,136.75213675213672,105.982905982906,78.63247863247864,75.21367521367517,78.63247863247864,42.735042735042725,59.829059829059815,25.641025641025635,25.641025641025635,24.174590809796445,24.174590809796506,25.641025641025635,61.53846153846155,61.53846153846155,61.63335513613647,{}
147,79,150,0,6.256249999999988,50.51603852441741,164.68785298331494,20.16166138935057,30.2424920840258,47.04387657515099,50.40415347337648,33.60276898225089,134.45307282924077,104.22276776741693,78.9665071082897,77.28636865917707,80.64664555740222,45.36373812603881,55.444568820713926,25.202076736688127,25.20207673668824,30.42860148421401,27.091418459143824,28.56235363491328,63.84526106627675,63.84526106627675,63.93362825191266,{}
148,79,151,0,6.297958333333321,50.94386517512039,166.08261501556075,20.33241302223325,27.109884029644377,47.44229705187763,50.83103255558353,30.49861953334993,128.81653004889418,101.7185283563478,76.24654883337485,74.55218108152212,77.94091658522768,45.74792930002491,52.52540030743603,22.02678077408609,25.415516277791653,30.49861953334993,30.686305117333827,30.49861953334993,60.99723906669988,60.99723906669988,64.47509014879277,{}
149,79,152,0,6.339666666666655,50.40415347337637,161.2932911148041,20.161661389350456,26.88221518580076,47.04387657515099,47.04387657515099,37.11547145861042,134.45307282924077,107.58135225755376,82.32678400651474,80.64664555740222,80.64664555740222,43.68359967692618,53.76443037160141,23.52193828757561,26.88221518580076,27.091418459143824,30.42860148421396,28.562353634913222,63.84526106627675,63.84526106627675,63.93362825191266,{}
150,79,153,0,6.381374999999988,47.16373377978899,164.6535680130296,20.16166138935057,30.2424920840258,47.04387657515099,50.40415347337603,33.60276898225089,131.09387242521382,100.8642960135223,77.28636865917707,77.28636865917707,77.28636865917707,43.68359967692618,53.76443037160141,23.52193828757561,23.52193828757561,23.52193828757561,26.882215185800703,26.882215185800703,60.48498416805165,63.84526106627675,60.57825328153823,{}
151,79,154,0,6.423083333333321,47.45081192120551,166.07784172421952,20.33606225194524,27.325762576771275,47.45081192120551,50.84015562986315,33.89343708657532,128.83964983838146,101.68031125972608,77.95490529912331,74.56556159046579,74.56556159046579,40.67212450389047,54.22949933852067,23.72540596060276,23.72540596060276,30.50409337791785,27.11474966926028,27.11474966926028,64.39753046449323,67.78687417315075,68.12496541847337,{}
152,79,155,0,6.464791666666654,47.03226100784048,164.61291352744183,20.15668328907452,26.87557771876596,47.03226100784059,47.03226100784059,33.76202666492071,127.70318976669633,100.83939168792472,77.26728594145214,73.90783872660637,73.90783872660637,40.31336657814893,53.75115543753202,23.51613050392029,20.156683289074408,23.51613050392018,23.51613050392018,25.195854111343067,60.47004986722345,63.82949708206917,60.84217676334241,{}
153,79,156,0,6.506499999999988,46.77094918679746,163.3163150213988,16.66146077346866,26.65833723754997,46.65209016571225,49.98438232040599,36.65521370163117,126.67094023933564,100.02428742467669,76.64271955795596,76.64271955795607,73.31042740326234,38.32135977897804,51.65052839775296,21.65989900550926,21.659899005509374,23.326045082856183,23.56286379478676,23.326045082856183,59.98125878448735,63.31355093918109,63.66335222516319,{}
154,79,157,0,6.548208333333321,50.48754266062149,167.91906907806833,20.15028828936829,26.86705105249098,47.13712893560221,53.73410210498196,30.225432434052266,127.66267408019498,100.80739893043696,75.5635810851308,73.88439039435008,73.88439039435008,43.65895796029781,53.73410210498196,23.508669670929635,26.86705105249098,26.86705105249092,27.076136315234745,26.86705105249092,60.450864868104645,63.809246249666046,63.89756358778077,{}
155,79,158,0,6.589916666666654,49.9722453489577,166.5741511631927,19.988898139583057,30.167861856820576,49.97224534895759,53.303728372221485,33.314830232638485,133.3009579635745,103.27597372117924,78.28985104670045,76.6241095350685,76.6241095350685,43.309279302430014,56.635211395485385,23.32038116284696,23.32038116284696,23.32038116284696,26.85927481763406,26.6518641861108,59.966694418749285,63.29817744201313,63.38578741811783,{}
156,79,159,0,6.631624999999987,46.25572401142051,161.8950340399715,16.51990143265016,26.63754066530244,46.25572401142063,49.55970429795025,36.34378315183034,125.5947167890066,99.119408595901,75.99154659019081,79.29552687672077,79.29552687672077,42.951743724890434,46.25572401142051,19.823881719180235,26.43184229224028,26.43184229224028,26.63754066530244,26.43184229224028,62.77562544407061,62.77562544407061,62.86251216446949,{}
157,79,160,0,6.6733333333333205,13.10375381619292,150.6931688862187,19.65563072428938,26.20750763238584,42.71301169785431,42.58719990262716,42.58719990262705,101.5540920754952,75.34658444310935,68.79470753501289,75.34658444310935,75.34658444310935,32.7593845404823,26.20750763238584,0.0,16.379692270241208,26.20750763238589,23.16438295607277,22.93156917833761,65.51876908096466,62.24283062691643,59.05782035667551,{}
158,79,161,0,6.715041666666654,16.577247243512545,146.33407322151305,19.506393963766868,22.75745962439464,39.012787927533736,42.26385358816151,39.01278792753368,97.5861392036374,74.84515216597568,66.6468460428701,68.27237887318387,71.52344453381176,30.88512377596419,27.634058115336305,1.6255328303138867,14.629795472825208,26.21092931262384,26.00852528502241,26.00852528502241,71.52344453381173,65.0213132125561,58.60941969646869,{}
159,79,162,0,6.756749999999987,18.729434519434506,134.37272503243756,21.85100693934021,24.972579359245856,34.478894319154215,37.58870952884474,43.81335676965523,109.29961949133242,84.34024242366651,74.91773807773785,78.03931049764361,84.28245533745513,37.45886903886896,28.094151779151616,0.0,15.607862099528743,25.16692142926007,24.97257935924592,24.97257935924592,74.91773807773785,65.55302081802063,53.15846280779481,{}
160,79,163,0,6.79845833333332,50.379646798095,132.5835073346305,18.89236754928561,25.189823399047555,34.7788366752089,37.78473509857122,37.91570511033823,132.28405239027367,107.1030442586869,81.86692604690433,78.71819812202347,88.16438189666627,45.65655491077359,48.805282835654566,20.466731511726152,23.61545943660701,25.3858561096554,28.51294405500513,28.33855132392847,81.86692604690438,72.42074227226158,50.37964679809511,{}
161,79,164,0,6.840166666666653,59.35869888473468,132.1404989017718,18.74485227938993,25.187638421703703,34.50727677328432,37.61965193129368,38.00682836034935,140.89845994244354,115.762005091175,85.91390628053705,78.1035511641245,93.72426139694949,48.4242017217573,54.67248581488707,26.55520739580232,29.679349442367368,22.09102026516116,22.09102026516116,21.86899432595488,78.10355116412455,68.73112502442962,46.96615331414777,{}
162,79,165,0,6.881874999999987,54.49403637096448,131.55075066300486,19.19999999999999,28.800000000000068,32.15960198758685,38.533102652134986,35.345155254999206,137.7487568001977,108.98807274192892,81.59999999999991,76.79999999999995,86.39999999999998,46.39999999999992,56.000000000000114,24.00000000000012,23.999999999999886,19.464840096954337,19.464840096954337,19.19999999999993,83.20000000000002,67.20000000000002,48.1065484107933,{}
163,79,166,0,6.92358333333332,54.492292645499,115.9052208604328,16.316340328960088,25.79839925898748,28.976305215108308,32.6326806579202,35.7759428281428,132.1677798383186,106.36952511666152,78.39749132041601,76.79754251795845,89.59713293761826,47.99846407372405,47.99846407372411,19.1993856294896,28.799078444234453,16.316340328960035,19.46421725196762,19.19938562948971,79.99744012287348,63.99795209829878,42.08808180442192,{}
164,79,167,0,6.965291666666653,53.81808767079118,108.26257932252769,17.117816801191754,30.39965300106321,27.065644830631577,33.73823718432812,36.9278808035852,138.00825113936344,107.63617534158227,80.56992175327679,80.56992175327679,93.99824204548968,50.35620109579804,50.35620109579804,20.14248043831924,30.2137206574788,23.499560511372408,23.73814084642148,23.499560511372465,77.21284168022362,60.427441314957605,43.77096897341283,{}
165,79,168,0,7.006999999999986,65.52033516090093,107.63886431571534,17.55935257159195,27.763774182082685,24.3504407926248,31.18377952628608,34.60847891667852,145.28869611193747,117.53975679031632,84.3699728657989,86.09180904673349,99.86649849421087,58.54243015177872,51.65508542804014,20.66203417121608,37.88039598056275,24.35044079262501,24.105706533085424,24.105706533085424,86.09180904673349,65.42977487551741,44.89999428845712,{}
166,79,169,0,7.04870833333332,61.48978157254278,106.6126041526583,20.747326040872984,30.886464324525,24.118276624996373,30.886464324524635,34.2785116372764,147.2993016701789,116.41909864573113,85.27098476033984,81.86014536992627,95.50350293158068,54.57343024661759,57.98426963703105,27.28671512330868,30.69755451372248,24.11827662499636,23.875875732895167,25.58129542810201,81.86014536992622,64.80594841785825,47.87341217625704,{}
167,79,170,0,7.090416666666653,67.19471846809866,111.9967829034294,20.410977990271608,30.38574427775556,23.72727995821127,33.55544111512609,30.38574427775572,148.25278448301373,117.87468148349176,83.88860278781476,77.17751456478959,93.95523512235263,55.36647783995773,62.077566062982896,28.52212494785704,31.877669059369623,23.7272799582114,23.48880878058816,25.16658083634445,83.88860278781476,67.11088223025183,47.09730595276567,{}
168,79,171,0,7.132124999999986,65.00628509116314,107.70268308271412,19.77088975932061,29.432847395002124,26.204871283216992,32.66525398786551,29.43284739500217,143.34586026576352,113.94657978153136,81.25785636395398,78.00754210939584,87.75848487307024,53.63018520020961,60.130813709325935,27.627671163744367,30.8779854183025,22.983192503853747,22.75219978190711,22.75219978190711,78.00754210939579,61.755970836605,45.620334527671424,{}
169,79,172,0,7.173833333333319,59.90863453011472,107.47268485451389,19.15296423956946,25.3858561096554,25.385856109655176,31.64432400980317,28.51294405500508,132.8449766832248,107.4726848545138,77.14383415958292,78.71819812202347,88.16438189666627,55.102738685416455,48.805282835654566,20.46673151172604,33.06164321124987,22.26486867794758,22.26486867794758,20.466731511726152,72.4207422722616,59.82583057273786,44.19450244487669,{}
170,79,173,0,7.2155416666666525,59.45536556404807,110.08360902742471,19.008052836295608,28.29721500738621,31.404902929047683,34.515699859215495,28.297215007386217,134.95102469495777,106.65954609536008,76.56016360487604,78.12261592334278,90.6222344710776,56.248283464806775,49.99847419093942,21.87433245853606,34.37395100627077,22.09641259337113,21.874332458536003,21.874332458536003,71.8728066494754,59.37318810174054,43.86012666438809,{}
171,79,174,0,7.257249999999986,57.60000000000002,124.84101890003916,19.4648400969544,25.59999999999991,35.19999999999982,38.40000000000009,28.799999999999955,131.23901858822316,105.64847372300277,76.80000000000007,76.79999999999995,80.0,49.60000000000002,52.79999999999996,24.0,30.399999999999977,19.19999999999999,22.40000000000004,22.40000000000004,73.59999999999997,67.19999999999999,48.0,{}
172,79,175,0,7.298958333333319,53.09907904212605,140.5910866966203,15.61737618886059,28.111277139949152,34.35822761549343,40.60517809103749,31.39053764526081,128.10057024682203,100.0,73.40166808764485,74.96340570653098,71.83993046875884,42.166915709923614,54.66081666101218,26.549539521063025,26.549539521063025,18.999358140634605,21.86432666440481,20.3025890455188,68.71645523098664,65.59297999321453,46.956128979936814,{}
173,79,176,0,7.340666666666652,34.30805738534929,149.70788677243354,18.97161508644765,28.24297026960526,43.66480030862658,43.77604838780426,28.07022876983126,109.162000771566,81.15172895780147,63.93774330906013,62.37828615518055,62.37828615518055,34.30805738534929,46.78371461638545,18.713485846554192,15.594571538795094,18.713485846554136,22.054054569561536,21.832400154313177,65.49720046293959,65.49720046293959,53.11319678904415,{}
174,79,177,0,7.3823749999999855,34.05842089047911,157.90722412858486,15.7876866111554,24.96252433809805,43.34708113333727,46.44330121428993,31.116626709191,105.31700555787016,80.50172210476887,63.47251165952935,58.82818153810035,58.82818153810035,27.865980728573845,46.4433012142897,18.57732048571586,12.384880323810592,15.481100404763197,18.83357149397572,18.57732048571592,65.02062170000565,61.924401619053015,55.73196145714792,{}
175,79,178,0,7.424083333333319,28.11127713994904,159.2972371263786,18.74085142663273,24.98780190217701,43.840064091105056,49.9756038043538,28.11127713994909,99.95120760870788,74.96340570653086,60.9077671365564,59.346029517670274,59.346029517670274,31.23475237772118,40.6051780910376,12.493900951088447,15.61737618886059,18.99935814063457,18.74085142663273,18.74085142663273,65.59297999321456,65.59297999321456,53.19086662842527,{}
176,79,179,0,7.465791666666652,22.03017728378802,151.0640728031185,15.735840916991492,28.324513650584663,40.91318638417761,44.06035456757581,34.618850017381305,100.70938186874548,72.38486821816082,61.36977957626687,62.94336366796597,62.94336366796597,28.324513650584663,37.76601820077951,9.44150455019485,12.588672733593173,19.14347670252193,18.883009100389813,18.883009100389813,62.94336366796591,62.94336366796591,56.73638128875729,{}
177,79,180,0,7.507499999999985,19.66156609245695,160.6028909783508,16.70911819553869,26.215421456609302,45.99387178321398,45.99387178321398,39.32313218491396,101.63759807414716,75.44054061169787,65.53855364152327,65.53855364152327,62.26162595944703,24.57695761557113,37.68466834387596,8.192319205190529,11.469246887266536,19.93277291902981,19.66156609245695,19.66156609245695,65.53855364152327,68.81548132359939,65.62042569548285,{}
178,79,181,0,7.549208333333318,10.628003821565164,171.53611337770403,16.804349528559896,30.2478291514077,47.17205703649869,50.52495338172217,43.82038234578134,101.04990676344444,70.89762832978666,65.53696316138337,67.21739811423936,60.49565830281552,20.16521943427188,36.969568962831545,6.721739811423845,6.721739811423959,20.44337353167172,16.80434952855984,18.48478448141583,63.85652820852738,73.93913792566332,67.30136741382925,{}
179,79,182,0,7.590916666666652,13.630101241711202,158.81536726564403,13.63010124171131,29.935157481446087,43.10216466249683,46.2809917355371,46.3989052813825,103.32892302867964,73.40034152454385,66.11570247933889,66.11570247933889,59.50413223140504,16.52892561983481,39.669421487603245,9.917355371900726,6.611570247933969,19.834710743801622,20.108305885283382,19.83471074380168,66.11570247933884,76.03305785123968,66.44545865203888,{}
180,79,183,0,7.632624999999985,12.322620864138893,164.36874029391402,17.426817550046668,30.948409635823143,44.42984137375515,44.4298413737547,44.56109673023903,103.94468243668022,73.06165580012004,66.64476206063205,68.3536021134687,58.10056179644846,18.797240581203937,39.30332121524452,8.544200264183587,5.126520158510175,23.923760739714112,20.78893648733604,20.506080634040643,64.93592200779534,78.6066424304891,65.74038943256215,{}
181,79,184,0,7.674333333333318,13.187187889363866,147.43724276339756,13.187187889363866,25.78602572747944,38.513388842491935,38.513388842491935,42.06789535017342,94.12103176725252,68.37318852928031,60.76889428715003,60.76889428714992,51.17380571549472,14.392632857482909,36.78117285801181,7.995907143045997,4.797544285827598,22.388540000528906,22.615840650343227,20.789358571919703,67.16562000158677,83.15743428767888,55.21230333899732,{}
182,79,185,0,7.716041666666651,14.580797512097682,155.96121899043445,18.031983118742783,28.511068692466605,39.0604042348532,38.89999121937308,46.51359099506861,107.55427682642303,79.07547699151154,70.72725676249615,70.72725676249604,60.118168248121606,19.449995609686425,40.66817263843518,8.84090709531199,5.304544257187217,24.754539866873586,25.00586143574148,24.754539866873586,70.72725676249604,88.40907095312002,57.56781620454763,{}
183,79,186,0,7.757749999999985,14.704292441876223,153.5173200898437,14.704292441876111,28.75254879142336,35.841019744747754,39.22946233918219,46.90754699431473,104.94907539408403,76.23910175185729,67.7599804040417,64.19366564593429,57.06103612971936,14.26525903242998,42.79577709728949,10.698944274322344,3.566314758107524,24.96420330675221,25.9631633387852,24.964203306752268,74.89260992025669,92.72418371079397,61.045475503850696,{}
184,79,187,0,7.799458333333318,11.07485246967156,143.63191318520884,14.008703421801217,31.71355119258829,35.02175855450332,42.171781794967536,46.0639314430752,102.52466539414633,70.82712340976516,64.79025332583058,59.53698954265508,56.034813687204746,12.257615494076047,43.7771981931287,8.755439638625717,1.751087927725166,21.01305513270177,17.857663026974638,19.26196720497672,77.04786881990663,91.05657224170784,56.47088885301663,{}
185,79,188,0,7.841166666666651,8.114742206215748,145.1609215438807,14.962845305935458,32.86220128966976,36.29023038597006,36.29023038597006,47.31667144351488,102.64427198696626,69.80565191606696,65.32241469474616,58.06436861755219,58.06436861755219,10.887069115791064,43.54827646316414,7.258046077193967,3.629023038596984,18.14511519298503,18.504459289083933,18.14511519298503,83.46752988773125,87.09655292632823,65.72440257933906,{}
186,79,189,0,7.882874999999984,15.672280371491004,144.49128563212025,15.204345262576908,30.645337600254305,38.01086315644216,41.98437061378052,50.71281670207286,111.85790413285407,81.2579444164867,72.22063999724026,60.81738105030763,64.6184673659518,13.303802104754824,47.51357894555281,9.50271578911054,1.900543157822085,19.00543157822119,22.80651789386536,22.80651789386536,79.82281262852871,79.82281262852871,68.52505806759868,{}
187,79,190,0,7.924583333333317,15.984962402692693,147.52697566416214,12.25990651090692,31.256751266968696,38.76922847519381,43.34531515287694,50.99295855754846,110.27102697166056,79.07402100877978,69.78461125534852,58.15384271279049,65.90768840782926,11.630768542558144,46.52307417023235,7.753845695038763,0.0,23.26153708511617,23.26153708511617,21.323075661356484,89.16922549294543,85.29230264542605,62.151801315518725,{}
188,79,191,0,7.966291666666651,12.371988741680944,144.81041552017712,16.13109975238118,35.427984200051526,35.42798420005115,39.89846483779186,48.39329925714398,112.03312298062112,76.86580299051852,68.46641131692661,58.68549541450852,62.597861775475735,13.6932822633853,48.90457951209044,9.780915902418087,1.9561831804835488,19.56183180483617,19.949232418895896,19.56183180483617,86.07205994127924,78.24732721934475,66.96892480047293,{}
189,79,192,0,8.007999999999985,12.51406177843081,142.68225707939172,15.829175199959424,32.63268065792014,39.77031048613119,39.77031048613119,52.05007339056129,112.5570119696037,80.03131421981168,73.20993529981251,59.35940699984792,67.27399459982769,11.87188139996954,47.48752559987838,7.914587599979768,3.957293799989884,23.74376279993919,24.071278447959774,21.76511589994425,91.01775739976677,87.06046359977688,75.60399189259104,{}
190,79,193,0,8.049708333333319,16.628501591007534,145.24414810836072,12.753478537295658,32.51511796392867,36.297036241134265,44.545985459695295,53.045885948505145,114.71043229550654,82.25746492405683,72.59407248226853,60.49506040189044,64.52806442868314,10.08251006698174,50.41255033490859,10.082510066981628,2.016502013396348,24.198024160756177,20.165020133963367,20.165020133963367,92.7590926162319,84.6930845626465,72.70601406376906,{}
191,79,194,0,8.091416666666653,8.997514779765815,141.06312739243722,20.517490477710307,40.43879942189772,36.43715774149345,44.44444444444439,52.92496970749025,122.37943192889492,82.06996191084144,76.45240776923788,64.38097496356875,72.4285968340148,16.0952437408921,52.30954215789973,8.047621870446164,4.023810935223082,24.14286561133838,24.475886385778978,24.142865611338262,92.54765151013004,96.57146244535306,64.50659649758387,{}
192,79,195,0,8.133124999999987,28.14390178921169,143.2853553902387,15.920595043359867,36.695158447203234,35.82133884755967,39.99999999999983,45.38067805348501,125.67441826378436,88.99883189799696,73.6327520755392,63.68238017343924,63.68238017343924,19.90074380419981,59.70223141259942,19.90074380419981,3.9801487608399375,23.880892565039744,24.210299747450144,23.880892565039744,87.56327273847904,95.52357026015898,55.86404997140776,{}
193,79,196,0,8.174833333333321,43.38609156373126,133.55173369810836,16.195526603578195,35.56948189712753,35.35192950832288,39.47583272503063,48.58657981073502,143.35826145798003,107.85897432003205,84.45183160321562,74.63185118423712,74.63185118423712,27.495945173139944,66.77586684905418,23.56795300554859,11.783976502774294,23.56795300554859,27.77509898151535,25.531949089344263,86.41582768701142,94.2718120221943,55.13199730035165,{}
194,79,197,0,8.216541666666656,24.99864377356345,125.0626402665977,17.178674795931784,33.590918243394604,33.590918243394235,37.72872455011995,51.53602438779557,126.71734471175375,93.1644447049827,79.16237194961741,70.829490691763,74.99593132069026,22.91542345909977,52.08050786159061,14.58254220124536,6.249660943390836,33.33152503141798,24.99864377356345,27.081864088027142,87.49525320747205,70.82949069176311,75.45744910023946,{}
195,79,198,0,8.25824999999999,45.11558757925715,145.26938976777228,16.141043307530254,36.54084092026032,36.317347441943184,40.55386940895097,51.04246066321325,147.9901306527181,111.6097997706488,86.75810777797517,76.6699557107687,76.6699557107687,28.246825788177944,68.59943405700346,24.21156496129538,12.10578248064769,28.246825788177944,24.21156496129538,24.21156496129538,92.8109990182989,84.74047736453377,68.59943405700324,{}
196,79,199,0,8.299958333333324,38.6960873137928,157.365483785155,13.784910335911604,30.45186224993985,38.6960873137927,41.72070921253778,36.262437460081365,119.06205092932188,88.6102785950032,68.92455167955768,55.13964134364619,63.41058754519315,23.43434757104967,59.27511444441973,23.43434757104967,9.649437235138066,24.965534437274066,24.965534437274115,23.43434757104967,79.95247994828702,82.70946201546934,60.71623182972533,{}
197,79,200,0,8.341666666666658,40.0745441477264,154.8183882656605,13.328595119490274,26.790144631031225,40.07454414772639,42.983427710418006,37.41514946022909,117.56395129227975,90.79111840192031,70.64155413329843,53.314380477961095,61.31153754965521,19.99289267923541,59.97867803770623,27.99004975092953,6.664297559745137,21.32575219118445,21.32575219118445,19.99289267923541,77.30585169304362,79.9715707169417,61.54290266440371,{}
198,79,201,0,8.383374999999992,43.24773009933113,159.53081081636572,10.790877134792368,29.797283411473323,40.46578925547146,49.228757328425175,38.15151198481279,121.87601868272618,92.0788144672084,70.14070137615045,53.95438567396184,64.7452628087542,21.58175426958462,62.04754352505631,26.97719283698109,10.790877134792254,19.07575599240641,19.07575599240641,18.88403498588667,75.53613994354674,75.53613994354674,62.28168603071283,{}
199,79,202,0,8.425083333333326,44.36774991888876,159.73583983262097,13.307766035918632,26.22884519257806,42.08285124213323,47.26671332095314,33.92827934973843,117.44404390294062,91.38264369768676,69.16149252062064,49.58748520346376,62.63682341490164,22.18387495944421,61.33188959375798,27.403610244019543,9.13453674800644,21.04142562106661,21.041425621066672,20.878941138300604,73.07629398405203,73.07629398405203,60.08366523804653,{}
200,79,203,0,8.46679166666666,49.56336622128288,164.44499975324874,13.024963471134129,26.049926942268257,44.36142707040444,47.17842425651638,33.9649492754778,122.43465662866096,96.38472968639267,71.63729909123776,52.09985388453663,62.51982466144386,23.44493424804148,65.12481735567064,31.25991233072181,10.419970776907348,21.481320064519128,21.002122533291384,20.83994155381464,72.93979543835121,70.33480274412437,67.77988755030648,{}
201,79,204,0,8.508499999999994,62.49971210030892,163.25041460052702,13.574070058528603,29.862954128763025,46.23161671696754,51.65285928941066,38.104230451175525,143.98755198754694,114.15139214611382,82.80182735702476,65.15553628093744,76.01479232776046,32.57776814046872,73.29997831605476,38.00739616388023,19.003698081940115,19.196633973373785,21.71851209364587,21.71851209364587,78.72960633946616,67.87035029264325,70.6373529727021,{}
202,79,205,0,8.550208333333329,54.79589312732863,143.94175548795627,15.63824906372622,31.38490919126179,41.78336733186937,46.98709071478502,34.28150871979376,135.93188121253675,104.54779974711064,76.88805789665423,72.9784956307227,86.01036985049461,45.61155976920168,56.03705914501927,22.15418617361229,29.973310705475456,21.013265780641664,20.850998751635075,22.15418617361229,78.1912453186315,62.55299625490522,65.21147776140424,{}
203,79,206,0,8.591916666666663,33.278322752158935,133.91834528343253,18.04770447515705,30.73413325255089,36.095408950314095,41.15509824405167,38.36994603121266,120.3932051180876,89.65913582442052,72.74142904963594,71.46526362771249,89.33157953464058,42.113458923473445,39.56112807962654,3.8284962657703545,21.694812172698448,20.577549122025843,22.9709775946219,22.970977594621843,79.12225615925314,56.15127856463124,64.01213190660324,{}
204,79,207,0,8.633624999999997,22.979862035417856,133.1507436982378,20.45960143314084,35.88851501752352,35.61833414844898,40.6824456069134,38.40238806554408,117.72308222839736,81.83840573256337,69.78678392291687,68.51793330613651,86.2818419410608,39.334369120189535,39.334369120189535,1.2688506167803553,16.495058018143936,23.39644934213909,22.97986203541777,22.839311102045546,86.2818419410608,55.82942713833347,61.378804299422576,{}
205,79,208,0,8.675333333333331,37.77215533980096,129.72280115687744,22.60273285628801,30.36581092979296,35.29953819129706,40.2476659630652,35.738058585096624,126.39009384984006,96.02512553618104,76.1296556248497,67.39346563511282,92.35400846293231,44.92897709007525,44.928977090075136,9.984217131127709,19.968434262255755,23.012483427924533,22.602732856287982,22.464488545037625,89.85795418015033,57.40924850398494,55.81347051829929,{}
206,79,209,0,8.717041666666665,44.96102511209276,131.94973088960103,20.47169200926293,30.20161315103252,33.12144563006809,37.975824479098605,33.12144563006807,128.56675114065726,98.36692808230308,74.47671925526845,62.06393271272373,89.37206310632223,43.444752898906586,50.89242482443353,16.136622505308196,21.101737122326085,20.471692009262988,20.015016896121445,21.10173712232603,91.85462041483112,54.61626078719689,48.77451224719778,{}
207,79,210,0,8.75875,32.235381251056765,124.15976772594422,20.387445199445388,27.641611380427904,35.39853435834339,37.81954320732538,31.272913360038125,111.03535858340678,83.40257921700565,65.51703337752468,59.33618117209784,86.531930875976,43.26596543798803,35.84894279147579,6.180852205426845,21.01489749845132,20.38744519944549,20.387445199445445,19.778727057365927,89.00427175814679,49.44681764341488,50.96861299861349,{}
208,79,211,0,8.800458333333333,28.19371151044084,121.34630477729677,19.43955562354086,29.103419034034783,29.10341903403497,31.57316008635338,37.68778233823004,113.00570574302918,83.9626170216983,65.0897369852853,56.155851516716666,86.78631598038032,38.28808057957952,35.735541874274304,5.105077410610647,15.315232231831828,21.808900258196463,21.048773390902287,20.42030964244242,96.99647080160162,53.6033128114114,48.43101674701239,{}
209,79,212,0,8.842166666666667,28.918793982252108,110.49235287818249,19.939499770206734,28.19871100196152,24.838279896905348,29.272193580185423,35.611160457837386,111.8488946218929,83.82280596213599,66.76370698974392,60.21824552016108,86.40009139849212,39.27276881749651,34.036399641830144,5.236369175666141,15.70910752699865,21.590103206000144,21.59010320600025,20.94547670266479,96.87282974982452,54.98187634449499,42.298066502942206,{}
210,79,213,0,8.883875000000002,49.64872134652041,99.02276044430906,17.504916350495456,27.243759127030653,27.24375912703062,31.74568046655256,37.36205138603074,129.7674710558841,102.53625016440996,74.37014751029528,62.62749264024865,93.94123896037296,44.36114062017612,46.97061948018643,15.656873160062103,26.094788600103698,18.99729285462986,17.50491635049551,16.961612590067375,104.37915440041434,18.266352020072475,64.44937355562878,{}
211,79,214,0,8.925583333333336,43.24084672800496,93.6313211470679,19.63656695381201,33.36363361532225,22.242422410214804,27.507067777888658,40.09809724527935,135.4565995443963,102.10587305575156,78.2214074129621,72.82682759137845,91.7078569669211,44.50528352806464,49.899863349648285,14.835094509354915,22.926964241730275,24.867784246752564,21.74624648268865,22.926964241730275,97.10243678850468,59.34037803741956,37.56890117363958,{}
212,79,215,0,8.96729166666667,23.070838473863272,98.39969947170825,18.767878321482847,27.55464304449477,23.90398745833422,28.531564857874287,54.96706833941264,123.8616776096422,96.47168176371684,81.1347533258753,67.14600275244857,92.32575378461672,26.578626089510976,37.76962654825218,9.792125401398607,6.994375286713535,23.90398745833422,19.5842508027975,20.98312586014021,109.11225447272876,61.55050252307774,48.86060519260571,{}
213,79,216,0,9.009000000000004,17.249124363288626,91.84466521809786,15.27091958832624,26.902178258544907,19.850170040601824,22.86245531641196,53.80435651708992,113.00338174618167,86.10565046888476,73.72920300794908,68.05772585349143,82.2364187396355,24.10377790644486,32.61099363813128,4.253607865843264,9.9250850203008,23.38409936110623,20.051699776307814,21.26803932921604,104.92232735746596,59.55051012180502,50.24941561264659,{}
214,79,217,0,9.050708333333338,17.356313085099586,105.88235294117663,19.140922748704856,29.789956055406225,23.52941176470592,28.67591606242322,54.13870509510855,120.01085506232582,90.23117515851408,77.04072795271759,62.77392647999204,88.45416913089798,24.253562503633248,38.5203639763588,7.133400736362773,4.280040441817619,20.772776497998056,19.97352206181563,19.97352206181569,111.28105148725872,51.36048530181171,51.43968424677676,{}
215,79,218,0,9.092416666666672,52.45643766354136,130.69252814431155,15.597711069385346,33.024294494290686,35.82676439451187,40.961596025951614,49.49408479333861,149.63602372863105,116.61472157746891,86.89266695452386,57.92844463634924,86.89266695452386,26.06780008635724,72.4105557954365,34.7570667818095,8.689266695452488,24.74704239666936,23.35170258081453,23.17137785453974,118.75331150451592,69.51413356361911,40.34249345942158,{}
216,79,219,0,9.134125000000006,52.88109316354003,142.7445402771415,14.804664203952113,32.1780591666679,37.39257957249682,42.05401749346404,45.50664768434575,144.3242033517675,112.17773871749016,81.1001352155422,52.23398539306106,90.72218515636916,30.24072838545635,65.9797710228139,30.24072838545635,13.74578562975296,18.441906643360323,17.387196327372475,17.86952131867878,115.46459928992437,41.23735688925871,51.6519729615159,{}
217,79,220,0,9.17583333333334,55.386599523512096,108.42812698332015,20.962437226725367,38.41615026390009,26.07418643522493,34.55294639042381,43.95231967494775,156.65696043975584,118.37151133538605,84.94265987645872,69.10589278084774,89.26177817526172,41.75147688842878,70.54559888044889,30.233828091621035,18.716179294812942,20.96243722672536,23.21456331356168,23.03529759361595,103.65883917127172,77.7441293784538,37.87275442892941,{}
218,79,221,0,9.217541666666676,48.89393655788475,106.64796708434196,18.06555008708577,35.33189327371163,22.851314183617887,31.4205570024742,44.70995540355259,145.56506857481014,110.25907093341772,81.40780677913824,65.69752827790103,79.97959964266215,32.848764138950514,67.125735414377,32.8487641389504,15.710278501237212,15.382261617298925,17.374889710522734,17.138485637713302,99.97449955332758,68.55394255085321,40.39579804565147,{}
219,79,222,0,9.259250000000009,59.98808423517308,148.96213209926896,15.973582810820172,30.968244531622425,43.18881310158925,48.28656098134354,42.77943122630543,147.26915686660692,116.32726204299009,80.08793627276907,50.42573765322493,83.05415613472348,31.14530855052124,72.67238661788315,37.07774827443018,13.347989378794864,18.760021609212355,18.04281103292261,19.28042910270364,112.71635475426764,59.32439723908823,27.983262211209485,{}
220,79,223,0,9.300958333333345,41.74260255369032,140.72272710657853,18.66785937356152,30.10101877572887,41.74260255369043,48.04934390853694,41.1116956828187,131.0079461306077,100.96188626179092,76.74284105823222,56.08130692716964,79.69448879124104,29.516477330089288,59.032954660178575,23.613181864071407,11.80659093203576,18.66785937356157,15.050509387864436,16.234062531549114,103.3076706553125,50.17801146115176,31.926951745412296,{}
221,79,224,0,9.342666666666675,51.43679970496956,136.7296766220225,17.82714589600639,29.428293042974484,40.357918000525714,45.88542515367416,34.406853419350654,131.0325541281051,101.63036825141717,70.46798151437918,39.46206964805242,73.2867007749544,28.187192605751648,67.64926225380407,33.82463112690198,8.456157781725551,20.520585964018697,14.37270451301258,15.502955933163436,101.4738933807061,42.28078890862753,42.93345267533801,{}
222,79,225,0,9.384375000000013,38.92968019390853,107.28354953113742,16.00000000000018,34.465054765660895,26.387876003953377,32.15960198758685,45.48054529136593,131.66745991322225,97.32420048477135,67.19999999999993,35.200000000000045,67.20000000000005,16.0,67.19999999999993,32.0,3.200000000000045,21.466252583998184,20.2385770250777,19.200000000000045,99.2,32.0,57.6888204074235,"{'others': (['m1', 'm3', 'm12', 'e1', 'e2'], 4.183369638246971, 258)}"
223,79,226,0,9.426083333333343,27.698494473625978,108.61924534640391,19.34546768758669,34.87553784771283,24.470296117585804,33.64665716168065,42.49402727735144,122.84752792008116,88.06969718959236,68.8227078307101,48.94059223517161,67.29331432336096,21.411509102887635,58.11695327926623,24.47029611758569,3.0587870146982823,23.295027883104563,21.628890402984776,21.411509102887635,97.88118447034316,61.17574029396445,45.472138043908856,"{'others': (['m1', 'm3', 'm12', 'e1', 'e2'], 4.183369638246971, 258)}"
224,79,227,0,9.46779166666668,33.15931386819923,111.46660076978353,18.39347790938418,38.8010841566749,21.17248306703715,26.81287121712965,41.334200724039206,129.08238244604829,91.04307071531332,65.43594482135188,46.53222742851688,75.61486957133991,29.08264214282304,58.16528428564607,17.449585285693843,8.724792642846978,18.393477909384128,17.69028059084352,18.90371739283495,90.15619064275144,69.79834114277526,38.25224343790775,"{'others': (['m1', 'm3', 'm12', 'e1', 'e2'], 4.183369638246971, 258)}"
225,79,228,0,9.509500000000012,43.453114402188376,124.30481772382473,15.4632994702813,29.97894992831532,26.00219997431471,31.58608886913589,35.51803110207118,123.972717697549,94.05957861260724,70.35083429943927,51.68632724040435,66.04364036273887,24.40743230796864,61.73644642603858,30.150357556902577,10.050119185634117,20.304306936842696,14.357313122334515,17.22877574680149,91.88680398294105,68.91510298720578,43.16754867303147,"{'others': (['m1', 'm3', 'm12', 'e1', 'e2'], 4.183369638246971, 258)}"
226,79,229,0,9.551208333333348,31.2157241990574,109.45997438649349,17.658280208642005,33.96638016818398,22.509978840088767,27.92019251039096,37.45886903886902,119.27511468938386,85.64720999414259,65.612452399419,47.46432726766477,58.6324042718212,19.544134757273696,61.424423522860366,27.920192510391075,2.7920192510390507,19.742557456131337,16.98319008409199,18.14812513175417,89.34461603325133,69.80048127597763,45.01995768017751,"{'others': (['m1', 'm3', 'm12', 'e1', 'e2'], 4.183369638246971, 258)}"
227,79,230,0,9.592916666666682,39.17710806021082,111.3622648448224,16.850711327800575,31.585594301436387,24.932158898988064,30.472638654318416,45.85562932146035,132.42210245597,100.8382536453529,77.56671657462914,63.71551718630246,74.79647669696374,27.702398776653126,58.17503743097189,27.70239877665336,11.08095951066116,19.58855403010541,17.520535356897277,18.00655920482461,91.4179159629557,49.86431779797584,56.09308229827409,"{'others': (['m1', 'm3', 'm12', 'e1', 'e2'], 4.183369638246971, 258)}"
228,79,231,0,9.634625000000016,30.155347962088204,108.17683105558754,17.266902013746762,31.12835028948838,27.4375365240695,32.87520199446997,42.73340226401413,120.03291576266298,88.92873626767474,69.61849158544464,57.332875423307314,76.44383389774316,28.666437711653657,47.777396186089504,17.74589001197603,12.28561616213733,25.170618753791203,19.87569682619562,20.476026936895494,92.82465544725954,43.6821907987104,62.3763101043814,"{'others': (['m1', 'm3', 'm12', 'e1', 'e2'], 4.183369638246971, 258)}"
229,79,232,0,9.67633333333335,36.88969595373388,108.90732984236809,14.153731792386331,27.44006979352869,24.231562852751537,31.648706423075748,41.13912069469502,118.06809162327932,90.62810308995276,68.33533230301612,57.82220425639832,73.59189632632513,28.91110212819921,47.309076209780415,18.3979740815812,13.141410058272411,24.23156285275156,23.654538104890207,24.968679110717403,89.36158839625193,65.70705029136167,47.60021173433955,"{'others': (['m1', 'm3', 'm12', 'e1', 'e2'], 4.183369638246971, 258)}"
230,79,233,0,9.718041666666684,36.826153238480245,103.5303182885192,16.594082257183697,29.9154072237716,21.15338730988582,26.36840920579791,37.56645146318278,119.66162889508615,89.74622167131457,68.21762429675505,57.722605174177374,73.46513385804394,31.48505736773313,49.85134083224409,18.36628346451096,15.742528683866569,21.636036192632503,23.759110046764533,23.61379302579985,91.8314173225549,68.2176242967551,47.518220093529095,"{'others': (['m1', 'm3', 'm12', 'e1', 'e2'], 4.183369638246971, 258)}"
231,79,234,0,9.759750000000018,34.20957695327816,109.60262572094508,16.59408225718377,30.71026234675898,26.75715365077645,31.59419134268831,35.201364274865945,115.35572948462078,84.69486934407877,64.2819921257884,55.09885039353287,76.08888863868833,34.108812148377524,44.6038312709552,15.742528683866569,15.742528683866569,24.89112338577553,23.75911004676456,24.925670416122102,91.8314173225549,57.722605174177374,54.09009048158128,"{'others': (['m1', 'm3', 'm12', 'e1', 'e2'], 4.183369638246971, 258)}"
232,79,235,0,9.801458333333352,31.64870642307574,106.3074283408202,14.153731792386417,29.3850862104964,23.80010586716977,29.03032367370285,38.80611885447251,112.2802567566324,83.11357490077339,63.07876827970733,55.19392224474393,70.96361431467074,28.91110212819921,44.68079419812591,15.769692069926805,13.141410058272411,24.23156285275156,23.80010586716977,23.654538104890207,91.98987040790644,52.56564023308937,59.93405119837092,"{'others': (['m1', 'm3', 'm12', 'e1', 'e2'], 4.183369638246971, 258)}"
233,79,236,0,9.843166666666686,28.31387704812332,107.08216473202386,16.212478835723108,29.22746187228714,23.633546046824684,28.31387704812322,34.39186117374947,107.05147776628915,77.83678457819035,60.24032257483759,51.26835963815972,71.77570349342363,30.76101578289581,41.014687710527824,12.81708990953996,12.817089909539844,21.138486204028577,23.21273709620376,23.07076183717185,92.28304734868738,61.52203156579162,54.79961742326242,"{'others': (['m1', 'm3', 'm12', 'e1', 'e2'], 4.183369638246971, 258)}"
234,79,237,0,9.88487500000002,28.154757241538253,107.8144674469198,13.72684945422971,28.498819995163764,28.154757241538253,30.588143418103986,37.11417423214488,106.99779399025806,78.52446351652696,62.45079281196229,53.52925098168191,66.27431073922526,24.215613539332367,44.60770915140154,16.568577684806314,11.470553781789022,23.50072900910503,23.082284942626217,22.941107563578043,86.6664063512946,53.52925098168197,52.54922758516,"{'others': (['m1', 'm3', 'm12', 'e1', 'e2'], 4.183369638246971, 258)}"
235,79,238,0,9.926583333333356,63.15620327396704,149.7053093126249,16.597081742718842,26.761990175875862,49.79124522815664,49.90176977087497,36.51357983398157,142.73490298738227,116.2269827589321,84.64511688786627,69.70774331941925,79.66599236505056,38.17328800825328,68.04803514514742,34.85387165970974,21.57620626553444,10.496916163797618,10.49691616379787,9.95824904563142,79.66599236505056,66.38832697087548,63.068910622331714,"{'others': (['m1', 'm3', 'm12', 'e1', 'e2'], 4.183369638246971, 258)}"
236,79,239,0,9.968291666666689,62.75983052701518,141.9924283579325,16.492917297411623,29.68725113534083,42.881584973270265,49.47875189223464,36.28441805430555,145.1751512810404,115.49753408979284,84.11387821679921,72.5688361086111,79.1660030275757,39.58300151378785,69.27025264912868,36.28441805430555,23.090084216376223,9.895750378446904,11.8932117995608,9.89575037844702,75.86741956809334,65.97166918964643,66.05408230009174,"{'others': (['m1', 'm3', 'm12', 'e1', 'e2'], 4.183369638246971, 258)}"
237,79,240,0,10.010000000000025,66.519010523774,139.84821101427724,16.62975263094347,26.60760420950953,43.23735684045323,46.563307366641766,36.58545578807559,146.3418231523026,119.73421894279306,86.47471368090612,73.1709115761513,79.82281262852871,39.91140631426447,69.84496104996254,36.58545578807559,23.281653683321,13.303802104754824,10.517579047791846,9.97785157856606,79.82281262852877,69.8449610499627,63.19305999758535,"{'others': (['m1', 'm3', 'm12', 'e1', 'e2'], 4.183369638246971, 258)}"
238,79,241,0,10.051708333333355,58.919487950958455,130.9731053664748,19.63982931698615,32.73304886164351,39.27965863397208,45.8262684063011,32.73304886164351,144.02541499123163,111.29236612958812,81.83262215410889,75.28601238178021,78.5593172679445,44.18961596321879,67.10275016636933,31.096396418561422,24.54978664623264,10.351098916437492,10.351098916437492,9.819914658492962,78.5593172679445,68.73940260945142,65.46609772328725,"{'others': (['m1', 'm3', 'm12', 'e1', 'e2'], 4.183369638246971, 258)}"
239,79,242,0,10.093416666666691,58.03432921972444,122.55933265480016,16.1206470054791,32.241294010958086,38.68955281314948,41.913682214245455,35.46542341205384,141.86169364821546,109.62039963725738,80.60323502739516,77.3791056262994,80.60323502739516,43.52574691479344,62.87052332136818,27.405099909314345,27.405099909314345,9.672388203287367,13.293426071377358,11.284452903835245,77.37910562629935,67.70671742301192,61.25845862082019,"{'others': (['m1', 'm3', 'm12', 'e1', 'e2'], 4.183369638246971, 258)}"
240,79,243,0,10.135125000000023,57.58341836292345,115.21125980820348,19.19447278764119,31.990787979401944,38.38894557528238,41.58802437322265,35.33498024567886,143.9940868400579,112.01344973063615,83.17604874644496,79.9769699485048,83.17604874644508,46.38664257013284,62.38203655983375,27.192169782491646,27.192169782491646,10.116375415844518,10.116375415844626,9.597236393820594,73.57881235262448,70.37973355468426,57.67221320111521,"{'others': (['m1', 'm3', 'm12', 'e1', 'e2'], 4.183369638246971, 258)}"
241,79,244,0,10.17683333333336,50.88635037917178,111.1424528983954,19.04521995206857,31.74203325344763,35.06022167038927,41.26464322948186,35.060221670389154,136.63830059290433,104.94090936540564,79.35508313361902,85.70348978430843,88.87769310965325,52.37435486818856,49.20015154284374,14.283914964051403,33.32913491611998,10.037712264569851,13.08757558758332,12.696813301379052,66.65826983223991,63.48406650689515,60.64306938125608,"{'others': (['m1', 'm3', 'm12', 'e1', 'e2'], 4.183369638246971, 258)}"
242,79,245,0,10.218541666666694,35.47349067665152,112.9162576778419,19.349176732719,32.24862788786504,35.47349067665164,38.698353465438,38.83249027480042,125.81098636404036,93.57660543892824,75.78427553648271,83.84643250844897,80.62156971966238,43.53564764861778,43.53564764861778,8.06215697196626,24.18647091589878,9.674588366359558,16.44363828868165,14.511882549539225,64.49725577573003,64.49725577573003,58.4047491402192,"{'others': (['m1', 'm3', 'm12', 'e1', 'e2'], 4.183369638246971, 258)}"
243,79,246,0,10.260250000000028,16.246744630829312,126.76625959509188,19.496093556995103,29.424105974624933,38.99218711398999,42.36632666960606,42.36632666960619,107.42526429692818,78.05203964134243,69.86100191256583,81.23372315414633,77.98437422798054,37.36751265090732,27.619465872409705,4.874023389248805,17.87141909391221,12.997395704663404,9.748046778497496,11.372721241580392,68.23632744948293,68.23632744948293,55.334418301386506,"{'others': (['m1', 'm3', 'm12', 'e1', 'e2'], 4.183369638246971, 258)}"
244,79,247,0,10.301958333333362,19.354209355661965,135.5178612578665,19.354209355661965,26.0064373899797,38.70841871132416,41.93412027060094,42.42747983403332,106.88711476775477,80.90018353285326,70.96543430409372,77.41683742264775,74.19113586337085,33.869866372408524,30.6441648131314,1.6128507796383929,14.51565701674656,9.677104677830982,12.902806237107995,11.289955457469487,70.96543430409378,67.73973274481682,61.62694175906776,"{'others': (['m1', 'm3', 'm12', 'e1', 'e2'], 4.183369638246971, 258)}"
245,79,248,0,10.343666666666696,25.798399258987423,140.79549461625743,19.1993856294896,28.7990784442344,35.1988736540643,41.72156032472744,41.59866886389421,115.24074822942023,86.45647238822815,73.59764491304361,79.9974401228734,79.9974401228734,38.3987712589792,35.1988736540643,6.399795209829904,19.1993856294896,15.999488024574646,12.79959041965975,12.799590419659808,70.39774730812866,67.1978497032137,63.99795209829881,"{'others': (['m1', 'm3', 'm12', 'e1', 'e2'], 4.183369638246971, 258)}"
246,79,249,0,10.38537500000003,44.7985664688091,150.42922504316837,22.399283234404606,28.79907844423451,41.72156032472744,44.79856646880921,35.1988736540643,131.19580180151252,102.396723357278,79.99744012287351,79.99744012287351,83.19733772778841,46.39851527126666,49.59841287618156,17.59943682703215,23.99923203686205,12.79959041965975,12.79959041965975,12.79959041965975,70.3977473081286,67.19784970321365,57.59815688846902,"{'others': (['m1', 'm3', 'm12', 'e1', 'e2'], 4.183369638246971, 258)}"
247,79,250,0,10.427083333333364,57.14105756620711,165.1046875499886,22.221522386858283,28.570528783103555,44.443044773716565,50.79205116996195,34.91953517934883,142.85264391551777,114.28211513241422,85.71158634931066,79.3625799530655,82.53708315118809,46.030296372778025,61.90281236339092,30.157780382164788,23.808773985919743,15.872515990613069,15.872515990613124,15.872515990613069,69.8390703586976,66.66456716057496,57.14105756620711,"{'others': (['m1', 'm3', 'm12', 'e1', 'e2'], 4.183369638246971, 258)}"
248,79,251,0,10.468791666666698,59.36775340206009,171.88242628241653,15.932491214487824,28.121567400975778,46.86927900162641,53.11851620184325,37.49542320130104,140.64255070421171,112.52965871626088,82.80239290287318,71.86622780249365,74.99084640260207,35.933113901246884,67.17929990233108,39.0577325013553,20.310020900704785,15.6230930005421,15.6230930005421,14.060783700487889,68.74160920238535,62.49237200216845,59.36775340206009,"{'others': (['m1', 'm3', 'm12', 'e1', 'e2'], 4.183369638246971, 258)}"
249,79,252,0,10.510500000000032,59.37318810174054,175.02255837865528,15.933949721841548,24.999237095469766,46.87356955400583,53.12337882787324,34.373951006270886,134.40723057696778,109.41629468070084,79.68506824180974,68.74790201254177,71.87280664947548,35.93640332473774,64.0605450571411,35.936403324737626,20.311880140069206,15.62452318466859,15.624523184668533,15.624523184668533,68.74790201254166,62.498092738674245,59.37318810174065,"{'others': (['m1', 'm3', 'm12', 'e1', 'e2'], 4.183369638246971, 258)}"
250,79,253,0,10.552208333333366,50.39213865219176,176.48493188974786,15.747543328810025,25.19606932609588,50.39213865219176,53.54164731795368,34.78746024010092,126.019709339339,100.8334763687269,75.58820797828776,62.99017331523976,69.2891906467637,31.495086657619822,59.84066464947784,31.495086657619936,15.747543328809796,18.89705199457194,15.747543328809968,17.322297661690925,69.28919064676376,62.99017331523976,56.69115598371582,"{'others': (['m1', 'm3', 'm12', 'e1', 'e2'], 4.183369638246971, 258)}"
251,79,254,0,10.5939166666667,40.6237602801383,174.9946596682878,15.624523184668533,24.999237095469653,43.74866491707212,50.09603228212765,37.628834735343936,118.78748625359738,93.79920639284094,73.43525896794233,62.498092738674245,62.498092738674245,24.999237095469653,56.24828346480683,28.12414173240348,12.499618547734826,15.62452318466859,18.749427821602296,17.186975503135443,68.74790201254166,62.498092738674245,59.45536556404819,"{'others': (['m1', 'm3', 'm12', 'e1', 'e2'], 4.183369638246971, 258)}"
252,79,255,0,10.635625000000037,40.30886640644008,170.53751171955446,15.503410156323184,24.805456250117004,46.51023046896944,49.61091250023401,40.30886640644019,120.92659921932044,96.12114296920343,75.96670976598341,65.11432265655719,65.11432265655719,24.805456250117004,55.81227656276326,27.906138281381686,12.402728125058502,18.60409218758776,15.503410156323127,15.503410156323127,65.11432265655714,58.91295859402789,62.01364062529251,"{'others': (['m1', 'm3', 'm12', 'e1', 'e2'], 4.183369638246971, 258)}"
253,79,256,0,10.677333333333369,40.74501503251656,165.625,15.934435979977453,25.0,43.75,46.875,37.62998305872593,118.79111130467632,93.80206887377273,73.4375,68.75,68.75,31.25,50.0,21.875,15.625,18.75,18.75,17.1875,68.75,62.5,62.5,{}
254,79,257,0,10.719041666666705,3.149508665762028,157.47543328809957,18.89705199457194,28.52001396437612,44.093121320667706,47.34749721865381,40.94361265490579,91.39003704817996,62.99017331523976,61.41541898235869,66.13968198100167,66.13968198100167,25.19606932609588,25.196069326095994,3.149508665761914,6.299017331523942,18.89705199457194,15.747543328809911,15.747543328809911,66.13968198100179,59.84066464947779,62.990173315239645,{}
255,79,258,0,10.760750000000035,6.298431639756359,157.49228000352218,18.89529491926919,22.044510739147427,47.23823729817286,47.34309477968948,41.06075069490429,88.23426103240345,66.20847108818944,62.984316397563816,66.13353221744205,69.28274803732029,26.768334468964667,20.46990282920831,4.723823729817241,7.873039549695477,15.746079099390954,16.057912918074003,15.746079099390954,66.13353221744205,59.83510057768564,63.06299764797577,{}
256,79,259,0,10.802458333333371,16.047471979706263,157.3584091699147,18.883009100389813,25.373281071801543,44.06035456757627,47.31231205361209,44.06035456757616,103.8565500521438,78.74212279140171,70.81128412646171,72.38486821816082,72.38486821816082,28.324513650584663,31.471681833982984,3.147168183398321,12.588672733593173,15.735840916991435,18.88300910038976,17.309425008690653,69.2377000347625,62.94336366796591,59.87895842450198,{}
257,79,260,0,10.844166666666704,35.171873747006885,166.29778133419973,19.18465840745841,28.776987611187565,44.76420295073604,47.96164601864575,41.56675988282643,124.7002796484793,95.92329203729172,78.33735516378829,76.73863362983343,79.93607669774315,36.77059528096186,46.36292448469101,14.388493805593724,17.585936873503442,19.18465840745836,15.987215339548584,17.5859368735035,70.343747494014,60.75141829028479,63.948861358194335,{}
258,79,261,0,10.88587500000004,48.31018093370847,167.59912038543288,19.324072373483432,32.2067872891389,45.0895022047946,48.31018093370835,35.42746601805288,135.26850661438368,103.06171932524478,78.9066288583906,74.07561076501963,80.51696822284748,41.86882347588062,57.97221712045018,22.5447511023973,22.544751102397186,19.32407237348337,19.59062389436592,17.71373300902644,74.07561076501963,61.19289584936405,64.49404128620128,{}
259,79,262,0,10.927583333333374,48.286708498473786,157.7694257764937,19.314683399389537,28.97202509908425,41.84848069867735,45.0675945985754,35.556275179821725,132.0229215457357,103.06193117747732,78.86829054750717,77.25873359755803,80.47784749745631,43.45803764862649,53.115379348321085,20.92424034933856,24.14335424923695,19.31468339938948,16.095569499491262,14.486012549542124,70.8205057977616,57.94405019816856,61.16316409806677,{}
260,79,263,0,10.969291666666708,51.948462657077584,146.14112209167624,22.7274524124714,32.46778916067353,42.20812590887567,48.80978972029292,26.17636847307641,133.15752453675444,100.70250018388982,74.67591506954898,74.67591506954909,77.92269398561643,50.32507319904391,56.8186310311786,21.104062954437723,27.59762078657252,16.555389049349063,16.555389049349007,16.23389458033671,74.67591506954903,61.68879940527961,61.68879940527973,{}
261,79,264,0,11.011000000000042,52.3168531541786,140.6395586813593,22.888623254953245,32.6980332213617,45.77724650990626,45.77724650990626,26.361997169304694,134.10180592926957,101.4166280368536,75.20547640913185,81.74508305340419,85.01488637554041,57.221558137382885,50.68195149311066,14.71411494961285,34.33293488242964,16.672790945182832,16.672790945182776,16.349016610680906,75.20547640913185,65.3960664427234,62.12626312058728,{}
262,79,265,0,11.052708333333376,58.41316355549986,136.45182630412503,19.471054518499955,29.206581777749875,42.18728479008314,45.54821222259738,29.386316285114606,136.33600920052575,107.13995789879662,77.88421807399982,81.12939382708305,87.61974533324974,55.16798780241652,51.92281204933317,19.471054518499955,32.45175753083322,6.490351506166633,10.262146787295524,9.735527259250148,81.1293938270831,68.14869081474978,61.74367961144507,{}
263,79,266,0,11.09441666666671,61.19289584936405,135.4217854245952,22.5447511023973,28.986108560225148,38.64814474696664,45.0895022047946,25.765429831311167,138.48918534329766,109.50307678307252,78.90662885839049,80.51696822284748,86.95832568067533,57.97221712045018,54.75153839153632,22.5447511023973,35.42746601805288,9.66203618674166,10.18468039502396,9.662036186741716,80.51696822284748,70.85493203610577,61.27759193951752,{}
