,video_id,frame_seq,time_seconds,m1,m3,m4,m5,m6,m7,m8,m9,m10,m11,m12,m13,m14,m15,m16,m17,e1,e2,e3,b1,b2,b3,label_measures
0,259,0,0.0,27.94034309281209,148.53692423198456,11.710826613491196,26.506536833951905,45.61097228512792,47.291577973498846,43.67320738499174,109.72276831219588,83.25274456141786,68.99609036416916,55.19687229133535,78.43766062452914,23.240788333193905,42.12392885391375,10.167844895772191,10.167844895772305,26.506536833951863,26.18620438047984,26.14588687484309,84.24785770782762,56.64942156215994,60.18884649688216,"{'others': ['m1', 'm3', 'm12', 'e1', 'e2']}"
1,259,1,0.0333666666666666,26.159731093486894,146.59349954707082,12.981296956314477,24.74681380305939,42.45325118634501,45.0142082825058,43.10179667522926,106.86398299811673,82.16348382908467,68.81013279919534,55.90823289934622,78.84494383241133,24.370255366381684,38.70569969954738,8.601266599899418,8.601266599899418,25.03577721780057,27.237344233014824,25.80379979969825,78.84494383241127,54.47468846602959,57.62777300872702,"{'others': ['m1', 'm3', 'm12', 'e1', 'e2']}"
2,259,2,0.0667333333333332,24.78456518634988,146.81712863457008,13.00109998715735,24.78456518634984,43.666063148147686,45.33365667718427,43.28676333988461,105.78719285733938,81.02665127570303,68.19723733108901,55.99352117710464,78.96522217283996,24.407432307968747,37.32901411806984,7.178656561167259,10.050119185634117,26.199637888888635,28.71462624466909,27.278894932435666,73.22229692390619,50.25059592817093,54.72754657891962,"{'others': ['m1', 'm3', 'm12', 'e1', 'e2']}"
3,259,3,0.1000999999999998,24.759696763702216,145.25336276722192,12.988054898533344,23.348561365442595,43.62224934283951,46.69712273088504,43.24333011772857,104.26020966149416,80.94535047439825,68.1288093514737,54.50304748117901,77.45169905220177,22.948651571022765,37.291558802911936,7.1714536159446425,8.605744339133594,27.84888838431305,27.251523740589505,26.53437837899503,67.41166398987929,43.02872169566763,48.95534913162264,"{'others': ['m1', 'm3', 'm12', 'e1', 'e2']}"
4,259,4,0.1334666666666664,11.017915710785807,143.65604520415002,17.420854356918145,30.689633758809283,44.000368653281726,45.680729206796514,43.49803757274233,102.1042265145932,71.41890930043812,65.82590603372341,56.42220517176281,79.56977652428088,24.59429456205044,33.27463381924474,4.340169628597096,5.786892838129461,26.40022119196905,27.525786315560197,26.0410177715828,62.20909800989233,40.508249866906624,46.38547477669771,"{'others': ['m1', 'm3', 'm12', 'e1', 'e2']}"
5,259,5,0.166833333333333,10.890098677297544,143.40095489854542,18.64413671548818,28.741438508535676,43.48992759153491,46.31328241223581,42.922026041285775,100.59503477987478,71.8535962713391,66.492210502494,57.19760043225301,80.07664060515413,25.738920194513867,31.458680237739145,2.859880021612639,5.719760043225278,25.89731504456732,27.16886020532013,26.453890199917,58.62754044305928,35.748500270158104,41.56675988282635,"{'others': ['m1', 'm3', 'm12', 'e1', 'e2']}"
6,259,6,0.2001999999999996,9.02053593357149,145.63347267041993,20.018680963155603,30.087240026022755,43.37836828108867,46.194480700287215,44.30635285440017,103.17576854711278,73.08861059644859,68.46105423715017,58.47715049423243,79.87122994334186,24.959759357294278,33.51739113693816,2.139407944910886,3.565679908184848,25.830883878346278,27.13667481815215,26.386031320568293,55.624606567684566,32.80425515530118,38.74632581751944,"{'others': ['m1', 'm3', 'm12', 'e1', 'e2']}"
7,259,7,0.2335666666666662,11.648370420780193,142.83754421933412,18.41769077949963,27.171372635251483,42.96171234028313,44.15277440988509,45.22438286838697,102.1847493221902,75.07925293272652,69.21604761613696,59.32804081383165,80.51662681877144,24.720017005763225,31.782879007409747,0.7062862001647545,4.944003401152713,25.77702740416986,26.87602285670854,26.132589406092507,53.67775121251435,32.4891652075745,34.16556833876344,"{'others': ['m1', 'm3', 'm12', 'e1', 'e2']}"
8,259,8,0.2669333333333328,14.84511099127256,150.81566772637555,18.484748768806185,27.16543302816972,43.24551430495013,46.05300187847178,44.17065676028334,104.27509615012056,77.11124450240503,69.67328382088476,59.71995756075842,81.04851383245796,26.305219401762656,33.414738158995874,0.7109518757233673,6.398566881509737,25.75177219742331,27.016171277485967,25.594267526039346,52.61043880352531,31.28188253182589,34.24397700996835,"{'others': ['m1', 'm3', 'm12', 'e1', 'e2']}"
9,259,9,0.3002999999999994,14.474407100762804,152.1534913549698,18.45132106361893,28.528227959190545,45.96971991510644,47.60585558414491,45.44080812119763,106.68622235457634,78.17932237116274,70.96661947545749,59.61196035938429,82.3212785915307,25.54798301116466,35.483309737728746,1.4193323895091223,5.677329558036604,25.70520285207641,25.587378536510304,24.83831681641016,52.51529841183856,31.22531256920132,37.011660509880265,"{'others': ['m1', 'm3', 'm12', 'e1', 'e2']}"
10,259,10,0.333666666666666,13.131891940539075,151.07552033580657,18.571299681928263,28.62915435437222,44.72561231420694,46.13235034995793,45.601567386174665,105.748068078041,77.12582461911734,70.50550643448503,59.82285394441158,81.18815892455859,24.92618914350487,34.89666480090659,0.7121768326715028,4.985237828701088,24.38100747805738,25.63836597617637,24.92618914350481,54.125439283038986,32.76013430289203,34.45051912419024,"{'others': ['m1', 'm3', 'm12', 'e1', 'e2']}"
11,259,11,0.3670333333333326,13.173046309384787,151.75763691025034,20.054409040417266,30.14093783149849,44.86577904375067,46.27692569147128,45.81137352270557,109.0497616216647,78.9090246580382,72.15528291072008,60.01033430198504,82.8714140360745,25.718714700850683,37.14925456789558,1.4288174833806124,4.286452450141724,26.07347235162743,27.14753218423129,26.43312344254105,52.86624688508204,31.43398463437313,35.97670496468656,"{'others': ['m1', 'm3', 'm12', 'e1', 'e2']}"
12,259,12,0.4003999999999992,15.98129365689615,151.61186373537984,18.63723090615162,28.73079264718903,44.88439572864296,47.94388097068853,47.17054186047187,110.29640071473192,81.58916063087882,73.61463350952431,61.46464545455433,82.90580084567785,25.014681289644276,37.87937452431834,3.573525898520529,5.002936257928923,27.308846571908024,25.7293864693483,25.014681289644216,52.88818329810482,31.447027906981248,34.77905509851426,"{'others': ['m1', 'm3', 'm12', 'e1', 'e2']}"
13,259,13,0.4337666666666658,18.86793908819069,152.15200342218125,17.27370168417384,28.83315034506082,45.0443030264878,46.4610647225846,47.360323796254285,112.2217727853584,83.39879277111665,73.87689652844767,61.68362234414076,83.2011650223294,25.103799791220013,39.448828243345815,3.586257113031479,6.455262803456549,26.17722046939568,25.821051213826365,25.103799791220013,54.51110811807792,32.99356543988927,34.695995036314365,"{'others': ['m1', 'm3', 'm12', 'e1', 'e2']}"
14,259,14,0.4671333333333324,18.88300234353186,152.27347426579084,18.718560875465364,28.856169345912352,45.08026423215932,46.49815700267239,45.940738665888375,112.21038644143376,83.37890092016156,73.93587629041417,60.29721949897851,81.83194074861365,25.1238414579077,40.91597037430688,6.460416374890542,5.024768291581495,26.198119103539558,27.277313582871216,25.841665499562225,54.55462716574243,34.45555399941628,37.57450614565088,"{'others': ['m1', 'm3', 'm12', 'e1', 'e2']}"
15,259,15,0.5004999999999991,19.025334323670894,152.66291555688903,17.112109163198397,28.662428117531043,44.777593920539374,47.59539017818175,47.05830019879557,111.45700237836944,82.8190923575037,73.43946849205975,59.89238207119433,81.28251852519236,23.52915009939784,40.64125926259601,6.417040936199328,4.99103183926627,27.429832654947177,28.55580991250343,27.09417284173071,54.18834568346148,35.65022742332991,40.02998291649083,"{'others': ['m1', 'm3', 'm12', 'e1', 'e2']}"
16,259,16,0.5338666666666656,13.105413731144042,147.95705853366147,18.479262103899828,29.986189317885003,43.02184288762591,46.03933237219916,45.50961964129046,106.8477784852157,76.87837736348006,70.36334416484931,58.28074971229944,79.60297521679922,23.454448054949808,37.66926505794959,2.13222255044991,3.553704250750002,27.15736975233468,27.008152305699756,26.297411455549764,54.01630461139939,35.53704250749962,38.61619278909229,"{'others': ['m1', 'm3', 'm12', 'e1', 'e2']}"
17,259,17,0.5672333333333321,7.734141163599348,146.44249434876923,20.15794280784052,31.628891024724695,43.680133996690095,46.51583696788639,44.52201272539253,103.5654192053311,71.9388392776976,68.21921304697253,57.447758355345286,77.55447377971609,22.97910334213816,35.904848972090804,1.4361939588836776,1.4361939588836776,27.43844705791224,27.325453659312792,26.56958823934724,56.01156439646167,35.904848972090804,43.30071196375714,"{'others': ['m1', 'm3', 'm12', 'e1', 'e2']}"
18,259,18,0.6005999999999987,8.334823043702958,144.75911899975526,15.788353461371496,28.73079264718905,42.064513581585416,43.73154789332581,44.31172114165543,96.15374792235492,67.42515180311798,63.60876099366669,55.74700401692144,78.61756976745323,22.87056575053191,28.5882071881648,5.717641437633006,4.288231078224726,27.495257244949187,27.15879682875652,26.44409164905244,54.3175936575131,34.30584862579775,40.25256119351647,"{'others': ['m1', 'm3', 'm12', 'e1', 'e2']}"
19,259,19,0.6339666666666652,26.23667660817324,148.22890794225194,11.591599936171251,23.183199872342424,42.08982465043236,45.397745371498864,43.15678667750529,104.00688101917687,80.83490893673378,67.5747680127223,54.63491881879679,76.20133414200598,22.2852958339829,38.10066707100293,9.345446640057276,9.34544664005739,29.07691718232869,27.355269059894223,25.87969838785108,56.072679840344,34.50626451713475,40.48771797445477,"{'others': ['m1', 'm3', 'm12', 'e1', 'e2']}"
20,259,20,0.6673333333333318,20.612386235495464,142.9518560936576,11.606680227641991,23.213360455283983,42.365300103383404,45.205346100457774,41.84848069867725,97.14046237305956,73.92756572546709,63.34378606588507,51.826734053905966,74.86083807786417,21.59447252246082,33.11152453443992,4.318894504492164,8.637789008984328,27.691864838582894,27.39085736806197,25.913367026952983,56.14562855839813,34.55115603593731,46.270213339545606,"{'others': ['m1', 'm3', 'm12', 'e1', 'e2']}"
21,259,21,0.7006999999999983,22.09177472307983,144.60607134326287,11.643387613378014,21.85447702818956,42.49928496229347,43.92315658435788,41.98083106013652,97.44767962665524,75.59585070177172,64.26620990933532,51.99064172440615,73.65340910957536,20.940675138996998,33.93833557009839,5.054645723206136,6.498830215550811,27.59110598533453,28.919771921980917,26.717413108375297,56.32319520143994,34.660427816270726,44.86279570257714,"{'others': ['m1', 'm3', 'm12', 'e1', 'e2']}"
22,259,22,0.7340666666666649,16.57024320412061,147.17912362824137,13.39882359552369,23.433862671087965,44.20059065524482,45.888597625467774,43.62340910206325,96.6202910091144,73.18664370391186,64.67213784398587,52.31903286255033,75.57193635701708,20.346290557658563,31.97274230489188,2.906612936808301,5.813225873616716,27.76538109325134,27.651041357969923,26.88616966547727,55.225645799358745,33.42604877329609,45.26297273017163,"{'others': ['m1', 'm3', 'm12', 'e1', 'e2']}"
23,259,23,0.7674333333333314,17.878497291320766,143.29794593200947,13.088570717030988,23.306226972747517,42.80407282802934,45.3861929481671,41.941247442280535,95.9308414789108,72.62999075015776,63.5971968904928,52.03407018313044,73.71493275943476,20.95816715709418,32.52129386445654,3.613477096050701,5.058867934470982,27.614153194749555,27.50043622628065,26.01703509156522,56.37024269839134,34.68938012208696,44.900270178882856,"{'others': ['m1', 'm3', 'm12', 'e1', 'e2']}"
24,259,24,0.800799999999998,16.414324592058946,141.0912320142374,13.0364177030539,23.213360455283983,42.365300103383404,45.45680634980105,41.77412740210442,94.11711368334076,70.9082454627908,62.623970315136376,53.26636555540336,73.42120657636679,21.59447252246082,30.232261531445147,1.439631501497388,5.758526005989552,26.07283540610786,27.39085736806197,25.913367026952983,56.14562855839813,35.9907875374347,46.15809731982596,"{'others': ['m1', 'm3', 'm12', 'e1', 'e2']}"
25,259,25,0.8341666666666645,13.793559049638548,142.49635922883414,14.612205475348365,24.88793672042024,42.78721601750482,45.65554602531653,42.19015582882349,95.0544257750123,70.16811793866576,63.24764227348339,53.79684515215831,74.15240818270468,21.809531818442565,30.533344545819546,0.0,5.815875151584692,27.77803468937886,26.211795088419255,25.444453788182955,56.7047827279506,36.34921969740424,46.61778569161324,"{'others': ['m1', 'm3', 'm12', 'e1', 'e2']}"
26,259,26,0.867533333333331,9.726888102995762,142.1072867453444,16.01576096261319,26.260596384515512,44.09999389155527,45.53088798651967,40.703407858567786,92.08349065378404,65.82739345670274,60.89995242193072,52.199959218797744,72.49994335944132,21.749983007832384,28.99997734377655,2.899997734377621,5.799995468755242,27.702189460760025,27.54997847658774,26.82497904299328,56.54995582036429,36.24997167972072,47.93776078760698,"{'others': ['m1', 'm3', 'm12', 'e1', 'e2']}"
27,259,27,0.9008999999999976,7.220922461722966,135.8224611760849,15.951539093369547,27.5911059853346,40.84770591285325,42.49928496229349,41.98083106013664,91.71424351591376,64.13219915233947,60.655748678473856,54.87901070909538,75.09759360191993,23.10695187751378,25.995320862203016,7.220922461723035,7.220922461723035,26.155293577411918,26.03540619189221,25.273228616030732,56.32319520143994,34.660427816270726,44.86279570257714,"{'others': ['m1', 'm3', 'm12', 'e1', 'e2']}"
28,259,28,0.934266666666664,7.19815750748694,136.8180214169756,17.335458883889558,27.50412121733437,40.718927884742975,42.365300103383404,41.77412740210442,92.68588660162624,65.1820885152695,61.90415456438768,56.14562855839813,76.30046957936156,24.473735525455595,25.913367026952983,7.19815750748694,7.19815750748694,27.504121217334426,27.39085736806197,25.91336702695304,57.58526005989552,35.9907875374347,46.15809731982596,"{'others': ['m1', 'm3', 'm12', 'e1', 'e2']}"
29,259,29,0.9676333333333308,9.15533184040844,125.69840515637983,15.989099673821215,24.989192729149543,38.08001771491633,39.51138295651568,43.45167174525778,93.19795049954796,68.28245107003941,63.693742970774224,59.35098776822144,76.72200857843256,24.608946147799088,24.6089461477992,5.790340270070374,8.68551040510556,27.65607388279241,28.951701350351925,27.50411628283433,56.45581763318626,37.637211755457486,45.08478071221971,"{'others': ['m1', 'm3', 'm12', 'e1', 'e2']}"
30,259,30,1.0009999999999972,9.15203619527649,127.29228897787355,16.17866713836179,24.980197368543724,39.49716004257138,39.49716004257138,43.43603044541637,93.33282229764453,68.39578174216962,63.67081513182552,57.882559210750514,76.69439095424434,23.8765556744346,25.323619654703293,5.064723930940659,7.958851891478275,27.834831422280416,27.53226992100069,26.04715164483764,57.88255921075046,37.62366348698782,46.50909556602853,"{'others': ['m1', 'm3', 'm12', 'e1', 'e2']}"
