,frame_seq,m1,m3,m4,m5,m6,m7,m8,m9,m10,m11,m12,m13,m14,m15,m16,m17,e1,e2,e3,b1,b2,b3,label_measures
0,249,1.0,28.16025568065745,4.123105625617661,6.0,8.06225774829855,9.055385138137416,7.0,18.027756377319943,12.041594578792296,11.5,11.0,14.0,5.5,5.5,1.5,1.5,1.0,2.23606797749979,2.0,13.0,7.0,12.16552506059644,{}
1,250,1.0,26.0768096208106,4.123105625617661,5.0,8.06225774829855,9.055385138137416,6.082762530298219,16.1245154965971,11.180339887498947,10.5,11.0,13.0,6.0,4.0,2.0,2.0,2.0,2.23606797749979,2.0,14.0,8.0,11.180339887498947,{}
2,251,1.0,28.16025568065745,4.123105625617661,6.0,8.06225774829855,9.055385138137416,7.0,18.027756377319943,12.041594578792296,11.5,11.0,14.0,5.5,5.5,1.5,1.5,2.0,2.23606797749979,2.0,13.0,7.0,12.36931687685298,{}
3,252,3.0,26.30589287593181,3.1622776601683795,5.0,7.280109889280518,9.055385138137416,8.06225774829855,19.1049731745428,14.142135623730953,12.5,12.0,16.0,6.0,5.0,1.0,2.0,1.0,2.0,1.5,13.0,8.0,11.04536101718726,"{'neutral': (['m1', 'm3', 'm12', 'e1', 'e2'], None, 22)}"
4,253,3.1622776601683795,27.16615541441225,4.0,6.0,8.06225774829855,8.06225774829855,7.071067811865476,20.09975124224178,14.142135623730953,12.5,12.0,15.0,6.5,6.5,0.5,2.5,2.0,2.0,2.0,13.0,8.0,12.16552506059644,"{'neutral': (['m1', 'm3', 'm12', 'e1', 'e2'], None, 22)}"
5,254,2.0,26.0768096208106,4.0,6.082762530298219,8.06225774829855,9.055385138137416,7.071067811865476,19.1049731745428,13.038404810405298,12.0,12.0,14.0,6.0,6.0,1.0,2.0,2.0,1.4142135623730951,1.5,12.0,8.0,12.16552506059644,"{'neutral': (['m1', 'm3', 'm12', 'e1', 'e2'], None, 22)}"
6,255,2.0,27.16615541441225,4.0,6.0,8.06225774829855,9.055385138137416,7.071067811865476,19.026297590440446,13.038404810405298,12.0,12.0,15.0,6.5,5.5,0.5,2.5,1.0,2.0,2.0,13.0,8.0,12.16552506059644,"{'neutral': (['m1', 'm3', 'm12', 'e1', 'e2'], None, 22)}"
7,256,2.23606797749979,26.30589287593181,3.0,5.0,7.071067811865476,8.06225774829855,8.0,18.027756377319943,13.038404810405298,12.0,11.0,15.0,5.0,5.0,1.0,2.0,1.0,1.0,1.5,12.0,8.0,13.152946437965904,"{'neutral': (['m1', 'm3', 'm12', 'e1', 'e2'], None, 22)}"
8,257,2.23606797749979,26.30589287593181,3.0,5.0,7.071067811865476,8.06225774829855,8.0,18.027756377319943,13.038404810405298,12.0,11.0,15.0,5.0,5.0,1.0,2.0,1.0,1.0,1.5,12.0,8.0,13.152946437965904,"{'neutral': (['m1', 'm3', 'm12', 'e1', 'e2'], None, 22)}"
9,258,1.0,27.073972741361768,3.0,6.082762530298219,7.071067811865476,8.06225774829855,8.06225774829855,18.110770276274835,12.041594578792296,11.5,12.0,14.0,5.0,5.0,2.0,2.0,2.0,2.23606797749979,2.0,13.0,8.0,13.152946437965904,"{'neutral': (['m1', 'm3', 'm12', 'e1', 'e2'], None, 22)}"
10,259,1.4142135623730951,25.179356624028344,3.1622776601683795,6.082762530298219,8.06225774829855,8.06225774829855,8.06225774829855,18.110770276274835,12.041594578792296,11.5,11.0,14.0,4.5,5.5,1.5,1.5,1.0,2.23606797749979,2.0,14.0,9.0,12.16552506059644,"{'neutral': (['m1', 'm3', 'm12', 'e1', 'e2'], None, 22)}"
11,260,1.0,24.020824298928627,4.0,5.0,7.0,8.0,8.06225774829855,18.027756377319943,13.038404810405298,12.5,13.0,14.0,5.5,4.5,1.5,1.5,2.0,2.23606797749979,2.0,14.0,9.0,10.44030650891055,"{'neutral': (['m1', 'm3', 'm12', 'e1', 'e2'], None, 22)}"
12,261,2.0,25.079872407968907,3.0,5.0990195135927845,7.0,8.0,8.06225774829855,18.110770276274835,13.038404810405298,12.0,12.0,14.0,5.0,5.0,1.0,2.0,2.0,2.23606797749979,2.0,14.0,9.0,11.180339887498947,"{'neutral': (['m1', 'm3', 'm12', 'e1', 'e2'], None, 22)}"
13,262,0.0,24.020824298928627,3.0,6.082762530298219,7.0,8.0,8.246211251235321,17.26267650163207,11.180339887498947,11.0,12.0,13.0,4.5,4.5,2.5,1.5,1.0,1.4142135623730951,1.5,13.0,7.0,11.704699910719626,"{'neutral': (['m1', 'm3', 'm12', 'e1', 'e2'], None, 22)}"
14,263,2.0,23.345235059857504,3.1622776601683795,6.082762530298219,6.324555320336759,8.246211251235321,8.06225774829855,19.235384061671343,13.152946437965904,12.0,11.0,15.0,5.0,6.0,1.0,1.0,1.0,2.0,2.0,15.0,9.0,11.180339887498947,"{'neutral': (['m1', 'm3', 'm12', 'e1', 'e2'], None, 22)}"
15,264,1.4142135623730951,24.186773244895647,2.0,4.123105625617661,7.280109889280518,7.071067811865476,7.071067811865476,14.317821063276352,10.198039027185567,9.5,10.0,13.0,4.5,2.5,2.5,1.5,2.0,2.0,2.0,15.0,9.0,11.40175425099138,"{'neutral': (['m1', 'm3', 'm12', 'e1', 'e2'], None, 22)}"
16,265,1.4142135623730951,24.186773244895647,2.0,4.123105625617661,7.280109889280518,7.071067811865476,7.071067811865476,14.317821063276352,10.198039027185567,9.5,10.0,13.0,4.5,2.5,2.5,1.5,2.0,2.0,2.0,15.0,9.0,11.40175425099138,"{'neutral': (['m1', 'm3', 'm12', 'e1', 'e2'], None, 22)}"
17,266,0.0,23.345235059857504,3.0,4.123105625617661,6.082762530298219,7.280109889280518,7.071067811865476,14.142135623730953,10.04987562112089,10.0,10.0,14.0,5.0,2.0,3.0,2.0,2.23606797749979,2.0,2.5,13.0,7.0,10.44030650891055,"{'neutral': (['m1', 'm3', 'm12', 'e1', 'e2'], None, 22)}"
18,267,1.0,26.1725046566048,3.0,4.123105625617661,8.06225774829855,8.06225774829855,7.071067811865476,15.132745950421556,11.04536101718726,10.5,11.0,14.0,5.5,2.5,2.5,2.5,2.0,2.0,2.0,14.0,8.0,9.219544457292889,"{'neutral': (['m1', 'm3', 'm12', 'e1', 'e2'], None, 22)}"
19,268,3.0,23.08679276123039,3.0,3.1622776601683795,7.071067811865476,8.0,7.071067811865476,16.1245154965971,13.038404810405298,11.5,11.0,13.0,5.0,4.0,0.0,2.0,2.0,3.0,3.0,14.0,9.0,11.180339887498947,"{'neutral': (['m1', 'm3', 'm12', 'e1', 'e2'], None, 22)}"
20,269,2.23606797749979,22.20360331117452,2.0,3.0,6.0,7.071067811865476,7.071067811865476,14.142135623730953,11.180339887498947,10.0,10.0,13.0,4.5,2.5,0.5,2.5,2.23606797749979,3.1622776601683795,2.5,14.0,8.0,8.246211251235321,"{'neutral': (['m1', 'm3', 'm12', 'e1', 'e2'], None, 22)}"
21,270,1.4142135623730951,25.079872407968907,3.0,4.0,7.071067811865476,7.0,9.055385138137416,17.11724276862369,13.152946437965904,12.5,12.0,14.0,4.0,4.0,0.0,1.0,1.0,1.4142135623730951,1.5,13.0,9.0,10.198039027185567,"{'neutral': (['m1', 'm3', 'm12', 'e1', 'e2'], None, 22)}"
22,271,4.0,25.0,3.0,4.0,7.0,7.0,7.071067811865476,18.027756377319943,14.0356688476182,12.0,12.0,12.0,5.0,6.0,1.0,2.0,1.4142135623730951,1.0,1.5,14.0,10.0,12.041594578792296,"{'neutral': (['m1', 'm3', 'm12', 'e1', 'e2'], None, 22)}"
23,272,2.0,24.020824298928627,4.0,5.0,7.071067811865476,8.0,7.071067811865476,18.027756377319943,13.038404810405298,12.0,12.0,13.0,5.5,5.5,0.5,1.5,1.0,1.0,1.5,15.0,11.0,12.041594578792296,"{'neutral': (['m1', 'm3', 'm12', 'e1', 'e2'], None, 22)}"
24,273,2.0,24.020824298928627,4.0,5.0,7.071067811865476,8.0,7.071067811865476,18.027756377319943,13.038404810405298,12.0,12.0,13.0,5.5,5.5,0.5,1.5,1.0,1.0,1.5,15.0,11.0,12.041594578792296,"{'neutral': (['m1', 'm3', 'm12', 'e1', 'e2'], None, 22)}"
25,274,1.0,27.073972741361768,4.0,7.071067811865476,8.06225774829855,8.06225774829855,7.071067811865476,19.1049731745428,12.041594578792296,11.5,11.0,13.0,5.0,7.0,0.0,1.0,2.23606797749979,3.0,2.5,16.0,12.0,13.038404810405298,"{'neutral': (['m1', 'm3', 'm12', 'e1', 'e2'], None, 22)}"
26,275,2.0,25.179356624028344,3.0,6.082762530298219,7.071067811865476,8.06225774829855,7.071067811865476,18.110770276274835,12.041594578792296,11.0,10.0,13.0,4.5,6.5,0.5,1.5,3.0,3.1622776601683795,2.5,15.0,11.0,14.0356688476182,"{'neutral': (['m1', 'm3', 'm12', 'e1', 'e2'], None, 22)}"
27,276,4.0,26.0768096208106,3.0,5.0990195135927845,7.0,8.06225774829855,7.071067811865476,19.1049731745428,14.0356688476182,12.0,11.0,13.0,5.0,7.0,1.0,2.0,1.0,1.4142135623730951,1.5,15.0,12.0,14.0356688476182,"{'neutral': (['m1', 'm3', 'm12', 'e1', 'e2'], None, 22)}"
28,277,4.0,26.0768096208106,3.0,5.0990195135927845,7.0,8.06225774829855,7.071067811865476,19.1049731745428,14.0356688476182,12.0,11.0,13.0,5.0,7.0,1.0,2.0,1.0,1.4142135623730951,1.5,15.0,12.0,14.0356688476182,"{'neutral': (['m1', 'm3', 'm12', 'e1', 'e2'], None, 22)}"
29,278,3.0,24.08318915758459,3.0,6.082762530298219,7.071067811865476,8.06225774829855,7.071067811865476,19.1049731745428,13.038404810405298,11.5,11.0,13.0,5.0,7.0,1.0,2.0,2.23606797749979,1.0,1.0,16.0,12.0,13.038404810405298,"{'neutral': (['m1', 'm3', 'm12', 'e1', 'e2'], None, 22)}"
30,279,2.0,27.16615541441225,3.1622776601683795,5.0990195135927845,8.06225774829855,8.06225774829855,7.071067811865476,17.26267650163207,12.16552506059644,11.0,10.0,13.0,4.5,5.5,0.5,1.5,1.0,2.23606797749979,1.5,15.0,11.0,13.152946437965904,"{'neutral': (['m1', 'm3', 'm12', 'e1', 'e2'], None, 22)}"
31,280,1.0,26.0768096208106,3.0,6.082762530298219,7.071067811865476,8.06225774829855,6.082762530298219,16.1245154965971,10.04987562112089,9.5,9.0,11.0,4.0,6.0,0.0,1.0,2.0,3.0,2.5,16.0,11.0,13.152946437965904,"{'neutral': (['m1', 'm3', 'm12', 'e1', 'e2'], None, 22)}"
32,281,1.0,26.0768096208106,3.0,6.082762530298219,7.071067811865476,8.06225774829855,6.082762530298219,16.1245154965971,10.04987562112089,9.5,9.0,11.0,4.0,6.0,0.0,1.0,2.0,3.0,2.5,16.0,11.0,13.152946437965904,"{'neutral': (['m1', 'm3', 'm12', 'e1', 'e2'], None, 22)}"
33,282,1.0,28.0713376952364,3.0,5.0,7.071067811865476,8.06225774829855,7.071067811865476,16.0312195418814,11.04536101718726,10.5,9.0,11.0,3.0,6.0,0.0,0.0,1.4142135623730951,2.0,2.0,16.0,11.0,13.152946437965904,{}
34,283,4.0,27.073972741361768,3.1622776601683795,5.0990195135927845,8.06225774829855,9.0,7.071067811865476,19.235384061671343,14.142135623730953,12.0,10.0,12.0,4.0,8.0,2.0,1.0,2.23606797749979,2.23606797749979,2.5,16.0,11.0,14.142135623730953,{}
35,284,4.0,26.0768096208106,3.0,5.0990195135927845,7.0,8.06225774829855,8.246211251235321,20.223748416156685,15.132745950421556,13.0,11.0,13.0,4.0,8.0,3.0,2.0,1.4142135623730951,2.0,2.0,16.0,12.0,13.038404810405298,{}
36,285,4.0,26.0768096208106,3.0,5.0990195135927845,7.0,8.06225774829855,8.246211251235321,20.223748416156685,15.132745950421556,13.0,11.0,13.0,4.0,8.0,3.0,2.0,1.4142135623730951,2.0,2.0,16.0,12.0,13.038404810405298,{}
37,286,5.0,26.0768096208106,3.0,4.123105625617661,7.0,9.0,7.280109889280518,19.235384061671343,15.132745950421556,12.5,11.0,13.0,5.0,7.0,2.0,2.0,2.0,2.0,2.0,15.0,11.0,13.038404810405298,{}
38,287,4.123105625617661,25.079872407968907,3.0,6.082762530298219,8.0,8.06225774829855,7.280109889280518,20.39607805437113,14.317821063276352,12.0,11.0,13.0,5.0,8.0,2.0,2.0,1.0,1.4142135623730951,1.5,15.0,11.0,13.038404810405298,{}
39,288,3.1622776601683795,26.0768096208106,4.0,6.0,8.06225774829855,9.0,7.280109889280518,20.223748416156685,14.317821063276352,12.5,11.0,13.0,5.0,8.0,2.0,1.0,1.0,2.23606797749979,2.0,14.0,10.0,13.038404810405298,{}
40,289,3.1622776601683795,26.0768096208106,4.0,6.0,8.06225774829855,9.0,7.280109889280518,20.223748416156685,14.317821063276352,12.5,11.0,13.0,5.0,8.0,2.0,1.0,1.0,2.23606797749979,2.0,14.0,10.0,13.038404810405298,{}
41,290,5.0990195135927845,26.0768096208106,3.0,5.0,7.0,9.0,8.246211251235321,21.213203435596427,16.278820596099706,13.5,11.0,13.0,4.0,9.0,3.0,1.0,2.23606797749979,2.23606797749979,2.5,14.0,11.0,12.16552506059644,{}
42,291,5.0,26.019223662515376,4.123105625617661,5.0,8.0,8.0,8.06225774829855,22.09072203437452,17.11724276862369,14.5,13.0,14.0,5.5,8.5,2.5,2.5,2.0,2.23606797749979,2.0,14.0,11.0,12.16552506059644,{}
43,292,3.1622776601683795,26.0768096208106,3.0,4.0,7.071067811865476,7.0,8.246211251235321,18.24828759089466,14.317821063276352,12.5,11.0,13.0,4.0,6.0,1.0,1.0,2.0,2.0,2.5,13.0,11.0,12.041594578792296,{}
44,293,2.23606797749979,26.019223662515376,2.23606797749979,4.0,7.0,7.0,9.055385138137416,17.26267650163207,13.341664064126334,12.0,12.0,13.0,3.5,4.5,0.5,1.5,2.0,2.0,2.5,14.0,12.0,12.041594578792296,{}
45,294,3.1622776601683795,26.0768096208106,3.0,5.0,7.071067811865476,7.071067811865476,8.06225774829855,19.1049731745428,14.142135623730953,12.5,11.0,13.0,4.0,7.0,1.0,1.0,2.23606797749979,2.0,2.0,14.0,12.0,13.152946437965904,{}
46,295,2.0,27.018512172212592,3.0,6.082762530298219,8.06225774829855,9.055385138137416,8.246211251235321,19.235384061671343,13.152946437965904,12.0,12.0,13.0,4.5,6.5,0.5,1.5,3.0,2.23606797749979,2.5,14.0,12.0,13.038404810405298,{}
47,296,2.23606797749979,27.0,4.0,6.0,7.0,8.0,8.06225774829855,20.09975124224178,14.142135623730953,13.0,13.0,13.0,5.0,7.0,1.0,2.0,1.0,1.0,1.5,12.0,11.0,13.0,{}
48,297,2.0,26.019223662515376,3.0,5.0990195135927845,7.071067811865476,8.0,9.055385138137416,19.1049731745428,14.0356688476182,13.0,12.0,13.0,3.5,6.5,1.5,0.5,1.0,2.0,2.0,12.0,11.0,13.038404810405298,{}
49,298,3.0,28.0,3.0,5.0,7.0,9.0,9.055385138137416,20.024984394500787,15.033296378372908,13.5,14.0,14.0,5.0,6.0,1.0,2.0,2.23606797749979,1.4142135623730951,1.5,12.0,11.0,12.041594578792296,{}
50,299,2.0,28.0,2.0,6.0,7.0,8.0,8.06225774829855,18.027756377319943,12.041594578792296,11.0,12.0,12.0,4.0,6.0,0.0,2.0,2.0,2.0,2.5,12.0,11.0,14.0,{}
51,300,2.0,26.019223662515376,4.0,6.0,8.0,8.0,7.071067811865476,19.026297590440446,13.038404810405298,12.0,13.0,12.0,5.5,6.5,0.5,1.5,2.0,1.0,1.0,13.0,12.0,11.04536101718726,{}
52,301,2.23606797749979,26.019223662515376,4.123105625617661,5.0,8.0,9.0,8.06225774829855,19.026297590440446,14.0356688476182,13.0,14.0,13.0,5.5,5.5,0.5,2.5,2.23606797749979,1.0,1.5,12.0,11.0,13.038404810405298,{}
53,302,1.0,27.0,4.0,6.0,7.0,8.0,7.0,18.0,12.0,11.5,13.0,13.0,6.0,5.0,1.0,2.0,1.0,2.0,1.5,13.0,13.0,15.0,{}
54,303,5.385164807134504,30.0,3.0,7.0,7.0,8.06225774829855,13.152946437965904,28.284271247461906,21.37755832643195,18.5,19.0,19.0,6.0,9.0,3.0,3.0,2.0,2.0,1.5,15.0,15.0,15.0,{}
55,304,2.0,29.017236257093817,3.0,6.082762530298219,8.0,9.055385138137416,8.0,19.026297590440446,13.0,12.0,14.0,13.0,5.5,5.5,0.5,2.5,2.23606797749979,2.0,2.0,12.0,13.0,14.0,{}
56,305,2.23606797749979,30.01666203960727,3.0,6.0,8.0,8.06225774829855,8.06225774829855,19.0,13.0,12.0,14.0,13.0,5.5,5.5,0.5,2.5,2.0,2.0,1.5,12.0,13.0,14.0,{}
57,306,2.0,28.0178514522438,4.0,6.0,9.0,9.055385138137416,7.0,19.0,13.0,12.0,14.0,13.0,6.5,5.5,1.5,2.5,2.23606797749979,2.0,2.0,12.0,13.0,16.0,{}
58,307,4.123105625617661,27.073972741361768,4.0,5.0990195135927845,8.0,9.055385138137416,6.0,19.1049731745428,14.0356688476182,12.0,14.0,12.0,7.0,6.0,0.0,3.0,2.23606797749979,2.0,2.0,11.0,13.0,13.0,{}
59,308,3.0,27.018512172212592,4.0,6.082762530298219,8.0,9.0,7.0,20.024984394500787,14.0,12.5,14.0,13.0,6.5,6.5,0.5,2.5,2.0,2.0,2.0,11.0,14.0,14.0356688476182,{}
60,309,3.0,27.018512172212592,4.0,6.082762530298219,8.0,9.0,7.0,20.024984394500787,14.0,12.5,14.0,13.0,6.5,6.5,0.5,2.5,2.0,2.0,2.0,11.0,14.0,14.0356688476182,{}
61,310,4.0,27.073972741361768,3.0,5.0990195135927845,8.0,9.0,8.06225774829855,20.09975124224178,15.033296378372908,13.0,15.0,13.0,6.0,6.0,0.0,3.0,2.23606797749979,2.0,2.0,11.0,14.0,14.0356688476182,{}
62,311,3.0,28.16025568065745,4.0,6.082762530298219,9.0,9.0,8.0,21.02379604162864,15.0,13.5,17.0,14.0,7.5,5.5,0.5,3.5,2.23606797749979,2.0,2.0,10.0,14.0,15.132745950421556,{}
63,312,1.0,29.068883707497267,4.0,5.0,8.06225774829855,8.0,8.0,17.029386365926403,12.041594578792296,12.0,14.0,12.0,5.0,4.0,1.0,2.0,2.23606797749979,2.23606797749979,2.0,10.0,14.0,14.0356688476182,{}
64,313,1.0,29.068883707497267,4.0,5.0,8.06225774829855,8.0,8.0,17.029386365926403,12.041594578792296,12.0,14.0,12.0,5.0,4.0,1.0,2.0,2.23606797749979,2.23606797749979,2.0,10.0,14.0,14.0356688476182,{}
65,314,1.4142135623730951,29.27456233660889,4.0,5.0990195135927845,8.06225774829855,9.055385138137416,7.071067811865476,17.26267650163207,12.16552506059644,11.5,15.0,11.0,6.0,4.0,1.0,2.0,2.23606797749979,2.0,2.0,9.0,14.0,14.0356688476182,{}
66,315,1.4142135623730951,29.42787793912432,4.0,5.0990195135927845,8.06225774829855,8.246211251235321,8.0,16.1245154965971,11.04536101718726,11.5,16.0,11.0,5.5,2.5,2.5,2.5,3.1622776601683795,3.1622776601683795,2.5,8.0,13.0,15.033296378372908,{}
67,316,1.4142135623730951,27.29468812791236,4.0,7.071067811865476,8.06225774829855,9.055385138137416,8.06225774829855,20.223748416156685,13.152946437965904,12.5,16.0,12.0,6.0,6.0,1.0,3.0,3.1622776601683795,2.23606797749979,2.5,8.0,14.0,15.132745950421556,{}
68,317,2.23606797749979,27.29468812791236,4.0,7.071067811865476,8.246211251235321,9.055385138137416,8.06225774829855,21.213203435596427,14.142135623730953,13.0,17.0,13.0,7.0,6.0,1.0,4.0,3.1622776601683795,2.23606797749979,2.0,7.0,13.0,15.132745950421556,{}
69,318,1.4142135623730951,28.16025568065745,4.0,5.0990195135927845,8.06225774829855,9.0,8.06225774829855,18.24828759089466,13.152946437965904,12.5,16.0,13.0,6.5,3.5,1.5,2.5,3.1622776601683795,3.1622776601683795,2.5,7.0,13.0,15.033296378372908,{}
70,319,1.4142135623730951,28.16025568065745,5.0,6.082762530298219,8.06225774829855,9.055385138137416,7.071067811865476,19.235384061671343,13.152946437965904,12.5,15.0,12.0,6.5,5.5,0.5,2.5,2.23606797749979,2.23606797749979,2.0,8.0,14.0,16.1245154965971,{}
71,320,4.123105625617661,29.068883707497267,4.0,6.0,8.0,8.06225774829855,7.0,21.02379604162864,15.033296378372908,13.0,15.0,13.0,7.0,7.0,1.0,3.0,3.1622776601683795,3.1622776601683795,2.5,8.0,13.0,15.033296378372908,{}
72,321,4.123105625617661,28.0713376952364,4.0,6.0,8.06225774829855,8.06225774829855,7.071067811865476,21.095023109728988,15.132745950421556,13.0,16.0,14.0,8.0,6.0,0.0,4.0,2.23606797749979,2.23606797749979,2.0,8.0,13.0,15.033296378372908,{}
73,322,4.123105625617661,29.068883707497267,3.0,6.0,9.055385138137416,9.055385138137416,8.0,21.02379604162864,15.033296378372908,13.0,16.0,14.0,7.0,6.0,0.0,4.0,2.23606797749979,2.0,2.0,8.0,12.0,15.033296378372908,{}
74,323,3.0,28.0,4.0,6.082762530298219,8.0,9.0,7.071067811865476,20.0,14.0356688476182,12.5,15.0,15.0,8.0,5.0,1.0,4.0,2.23606797749979,2.0,2.0,9.0,12.0,16.0312195418814,{}
75,324,2.0,28.0178514522438,4.123105625617661,5.0,9.055385138137416,9.0,7.071067811865476,18.0,13.0,12.0,13.0,14.0,6.5,4.5,1.5,2.5,1.0,1.0,1.5,11.0,10.0,13.038404810405298,{}
76,325,2.0,28.0178514522438,4.123105625617661,5.0,9.055385138137416,9.0,7.071067811865476,18.0,13.0,12.0,13.0,14.0,6.5,4.5,1.5,2.5,1.0,1.0,1.5,11.0,10.0,13.038404810405298,{}
77,326,2.23606797749979,30.01666203960727,3.0,5.0,9.055385138137416,9.0,7.071067811865476,17.0,12.0,11.0,12.0,13.0,5.5,4.5,0.5,2.5,1.4142135623730951,1.0,1.5,13.0,11.0,14.0356688476182,{}
78,327,3.0,29.068883707497267,3.0,5.0,9.055385138137416,9.055385138137416,7.071067811865476,18.027756377319943,13.038404810405298,11.5,13.0,15.0,7.0,4.0,2.0,3.0,1.0,1.0,1.5,12.0,9.0,15.132745950421556,{}
79,328,3.0,27.16615541441225,4.0,6.0,8.06225774829855,9.055385138137416,8.06225774829855,21.02379604162864,15.033296378372908,13.5,13.0,16.0,6.5,6.5,0.5,2.5,2.0,2.0,2.5,13.0,9.0,14.142135623730953,{}
80,329,3.0,27.16615541441225,4.0,6.0,8.06225774829855,9.055385138137416,8.06225774829855,21.02379604162864,15.033296378372908,13.5,13.0,16.0,6.5,6.5,0.5,2.5,2.0,2.0,2.5,13.0,9.0,14.142135623730953,{}
81,330,3.0,27.16615541441225,3.1622776601683795,5.0,8.06225774829855,8.06225774829855,8.06225774829855,19.1049731745428,14.142135623730953,12.5,12.0,15.0,5.5,5.5,0.5,2.5,3.0,2.0,2.5,13.0,9.0,13.038404810405298,{}
82,331,4.123105625617661,27.16615541441225,3.1622776601683795,5.0990195135927845,8.06225774829855,8.06225774829855,7.071067811865476,19.1049731745428,14.0356688476182,12.0,12.0,15.0,6.5,5.5,0.5,2.5,2.0,3.1622776601683795,2.5,14.0,10.0,14.142135623730953,{}
83,332,1.0,27.073972741361768,4.0,6.0,9.0,9.0,6.0,17.0,11.0,10.5,12.0,14.0,7.0,4.0,3.0,3.0,2.23606797749979,3.1622776601683795,2.5,12.0,8.0,15.132745950421556,{}
84,333,1.0,27.073972741361768,4.0,6.0,9.0,9.0,6.0,17.0,11.0,10.5,12.0,14.0,7.0,4.0,3.0,3.0,2.23606797749979,3.1622776601683795,2.5,12.0,8.0,15.132745950421556,{}
85,334,1.0,29.068883707497267,4.0,6.0,9.0,9.055385138137416,6.0,17.0,11.0,10.5,12.0,14.0,7.0,4.0,3.0,3.0,2.0,3.0,2.5,12.0,9.0,15.132745950421556,{}
86,335,1.0,27.073972741361768,3.0,6.0,8.0,9.055385138137416,7.071067811865476,17.029386365926403,11.04536101718726,10.5,12.0,14.0,6.0,4.0,2.0,3.0,2.0,2.0,2.0,12.0,9.0,13.152946437965904,{}
87,336,3.0,27.073972741361768,4.123105625617661,5.0,8.06225774829855,8.06225774829855,6.0,18.027756377319943,13.038404810405298,11.5,12.0,14.0,7.0,5.0,1.0,3.0,2.0,2.0,2.5,13.0,9.0,13.038404810405298,{}
88,337,3.0,27.073972741361768,4.123105625617661,5.0,8.06225774829855,8.06225774829855,6.0,18.027756377319943,13.038404810405298,11.5,12.0,14.0,7.0,5.0,1.0,3.0,2.0,2.0,2.5,13.0,9.0,13.038404810405298,{}
89,338,4.0,27.073972741361768,3.0,5.0,9.055385138137416,9.0,6.082762530298219,18.027756377319943,13.038404810405298,11.0,12.0,14.0,7.0,5.0,1.0,3.0,2.0,2.0,2.0,13.0,9.0,13.152946437965904,{}
90,339,3.0,27.073972741361768,4.0,6.082762530298219,9.055385138137416,9.055385138137416,6.082762530298219,19.1049731745428,13.038404810405298,11.5,12.0,14.0,7.0,6.0,0.0,3.0,2.0,2.0,2.0,13.0,9.0,14.142135623730953,{}
91,340,1.0,28.284271247461906,4.0,6.0,8.246211251235321,9.055385138137416,6.082762530298219,17.029386365926403,11.04536101718726,10.5,11.0,15.0,7.0,4.0,3.0,2.0,3.0,3.0,3.0,13.0,8.0,14.0356688476182,{}
92,341,1.0,28.284271247461906,4.0,6.0,8.246211251235321,9.055385138137416,6.082762530298219,17.029386365926403,11.04536101718726,10.5,11.0,15.0,7.0,4.0,3.0,2.0,3.0,3.0,3.0,13.0,8.0,14.0356688476182,{}
93,342,1.0,29.27456233660889,3.1622776601683795,6.0,8.246211251235321,9.219544457292889,7.0,17.029386365926403,11.04536101718726,10.5,11.0,15.0,6.0,4.0,3.0,2.0,2.0,2.23606797749979,2.0,13.0,7.0,14.317821063276352,{}
94,343,1.0,29.27456233660889,4.0,6.082762530298219,9.219544457292889,9.055385138137416,6.0,17.029386365926403,11.0,10.5,11.0,15.0,7.0,4.0,3.0,2.0,2.0,2.0,2.0,14.0,8.0,15.132745950421556,{}
95,344,2.0,28.442925306655784,4.0,5.0990195135927845,8.246211251235321,8.246211251235321,6.0,17.029386365926403,12.0,11.0,10.0,15.0,6.5,4.5,2.5,1.5,2.0,2.23606797749979,2.0,13.0,6.0,15.132745950421556,{}
96,345,2.0,28.442925306655784,4.0,5.0990195135927845,8.246211251235321,8.246211251235321,6.0,17.029386365926403,12.0,11.0,10.0,15.0,6.5,4.5,2.5,1.5,2.0,2.23606797749979,2.0,13.0,6.0,15.132745950421556,{}
97,346,4.123105625617661,29.42787793912432,3.0,6.0,9.055385138137416,9.055385138137416,7.071067811865476,20.09975124224178,14.142135623730953,12.0,11.0,16.0,6.5,6.5,0.5,2.5,2.23606797749979,2.23606797749979,2.0,14.0,7.0,14.317821063276352,{}
98,347,4.0,28.442925306655784,4.123105625617661,6.082762530298219,8.06225774829855,9.055385138137416,6.082762530298219,20.223748416156685,14.142135623730953,12.0,11.0,16.0,7.5,6.5,0.5,3.5,2.0,2.0,2.0,14.0,6.0,14.317821063276352,{}
99,348,2.0,28.442925306655784,3.0,6.082762530298219,8.246211251235321,8.06225774829855,7.071067811865476,18.110770276274835,12.041594578792296,11.0,10.0,15.0,5.5,5.5,1.5,1.5,2.0,2.0,2.0,14.0,6.0,13.341664064126334,{}
100,349,2.23606797749979,29.42787793912432,4.0,6.0,9.219544457292889,9.219544457292889,6.082762530298219,18.110770276274835,12.16552506059644,11.0,10.0,15.0,6.5,5.5,2.5,1.5,2.0,3.0,2.5,14.0,6.0,13.341664064126334,{}
101,350,2.0,29.42787793912432,3.1622776601683795,5.0990195135927845,8.246211251235321,8.246211251235321,7.0,17.11724276862369,12.041594578792296,11.0,10.0,15.0,5.5,4.5,1.5,1.5,2.0,2.0,2.0,14.0,6.0,13.341664064126334,{}
102,351,1.0,29.42787793912432,4.123105625617661,6.0,8.06225774829855,9.219544457292889,7.071067811865476,18.110770276274835,12.16552506059644,11.5,11.0,16.0,6.5,4.5,2.5,2.5,2.0,2.23606797749979,2.0,15.0,6.0,15.297058540778355,{}
103,352,6.0,27.459060435491963,4.123105625617661,5.0990195135927845,8.246211251235321,8.06225774829855,7.071067811865476,22.20360331117452,17.11724276862369,14.0,13.0,18.0,8.5,6.5,0.5,3.5,2.23606797749979,2.0,2.5,14.0,6.0,13.601470508735444,{}
104,353,6.0,27.459060435491963,4.123105625617661,5.0990195135927845,8.246211251235321,8.06225774829855,7.071067811865476,22.20360331117452,17.11724276862369,14.0,13.0,18.0,8.5,6.5,0.5,3.5,2.23606797749979,2.0,2.5,14.0,6.0,13.601470508735444,{}
105,354,4.0,26.68332812825267,3.1622776601683795,5.0,7.071067811865476,8.06225774829855,8.06225774829855,20.09975124224178,15.132745950421556,13.0,11.0,17.0,6.0,6.0,0.0,2.0,2.23606797749979,2.23606797749979,2.0,15.0,6.0,13.341664064126334,{}
106,355,1.0,28.284271247461906,5.0,6.0,8.06225774829855,9.055385138137416,7.071067811865476,17.029386365926403,11.04536101718726,11.5,11.0,15.0,6.0,4.0,3.0,1.0,2.0,3.1622776601683795,3.0,15.0,6.0,13.601470508735444,{}
107,356,2.0,28.442925306655784,3.0,5.0990195135927845,7.280109889280518,8.06225774829855,9.219544457292889,19.235384061671343,14.142135623730953,13.0,11.0,16.0,4.5,5.5,1.5,0.5,2.23606797749979,3.1622776601683795,2.5,15.0,6.0,13.601470508735444,{}
108,357,2.0,28.442925306655784,3.0,5.0990195135927845,7.280109889280518,8.06225774829855,9.219544457292889,19.235384061671343,14.142135623730953,13.0,11.0,16.0,4.5,5.5,1.5,0.5,2.23606797749979,3.1622776601683795,2.5,15.0,6.0,13.601470508735444,{}
109,358,7.071067811865476,25.495097567963924,3.0,5.0,7.071067811865476,7.071067811865476,9.219544457292889,24.186773244895647,19.235384061671343,15.5,13.0,18.0,6.5,8.5,2.5,3.5,2.23606797749979,2.23606797749979,2.0,14.0,6.0,13.601470508735444,{}
110,359,7.0,24.515301344262525,3.1622776601683795,5.0990195135927845,8.06225774829855,8.06225774829855,9.055385138137416,24.186773244895647,19.1049731745428,15.5,14.0,19.0,7.5,7.5,1.5,4.5,2.0,2.0,2.0,14.0,7.0,13.341664064126334,{}
111,360,2.0,27.073972741361768,3.1622776601683795,6.0,8.06225774829855,8.06225774829855,9.055385138137416,20.09975124224178,14.142135623730953,13.0,14.0,16.0,6.0,5.0,2.0,3.0,2.0,2.0,2.0,14.0,7.0,14.317821063276352,{}
112,361,2.0,27.073972741361768,3.1622776601683795,6.0,8.06225774829855,8.06225774829855,9.055385138137416,20.09975124224178,14.142135623730953,13.0,14.0,16.0,6.0,5.0,2.0,3.0,2.0,2.0,2.0,14.0,7.0,14.317821063276352,{}
113,362,1.0,28.16025568065745,3.0,5.0,8.06225774829855,9.055385138137416,9.055385138137416,18.027756377319943,13.038404810405298,12.5,13.0,16.0,5.5,3.5,2.5,2.5,2.23606797749979,2.0,2.0,14.0,7.0,14.317821063276352,{}
114,363,0.0,27.16615541441225,4.123105625617661,5.0,8.06225774829855,8.06225774829855,8.06225774829855,17.11724276862369,12.16552506059644,12.0,13.0,16.0,6.5,2.5,3.5,2.5,2.0,3.1622776601683795,2.5,13.0,6.0,13.152946437965904,{}
115,364,1.0,28.16025568065745,4.123105625617661,6.0,8.06225774829855,9.055385138137416,7.071067811865476,17.029386365926403,11.04536101718726,11.0,11.0,14.0,5.5,4.5,2.5,1.5,2.0,2.23606797749979,1.5,13.0,7.0,13.152946437965904,{}
116,365,0.0,28.0713376952364,3.0,5.0990195135927845,8.06225774829855,8.06225774829855,8.06225774829855,16.1245154965971,11.04536101718726,11.0,12.0,14.0,5.0,3.0,3.0,2.0,2.0,3.0,3.0,13.0,7.0,13.152946437965904,{}
117,366,0.0,28.0713376952364,4.0,6.082762530298219,9.055385138137416,9.055385138137416,8.06225774829855,18.110770276274835,12.041594578792296,12.0,14.0,16.0,7.0,3.0,4.0,3.0,2.0,2.0,2.0,14.0,8.0,15.297058540778355,{}
118,367,2.0,29.154759474226505,4.0,5.0990195135927845,8.06225774829855,9.0,6.082762530298219,17.11724276862369,12.041594578792296,11.0,11.0,14.0,6.5,4.5,1.5,2.5,2.0,2.23606797749979,2.0,15.0,8.0,13.341664064126334,{}
119,368,4.0,28.284271247461906,4.0,6.082762530298219,9.055385138137416,9.055385138137416,7.280109889280518,21.213203435596427,15.132745950421556,13.0,13.0,17.0,8.0,6.0,1.0,3.0,2.0,2.23606797749979,2.0,14.0,7.0,14.317821063276352,{}
120,369,4.0,28.284271247461906,4.0,6.082762530298219,9.055385138137416,9.055385138137416,7.280109889280518,21.213203435596427,15.132745950421556,13.0,13.0,17.0,8.0,6.0,1.0,3.0,2.0,2.23606797749979,2.0,14.0,7.0,14.317821063276352,{}
121,370,9.0,29.27456233660889,4.123105625617661,6.082762530298219,8.06225774829855,9.055385138137416,7.071067811865476,26.1725046566048,20.09975124224178,15.5,15.0,19.0,10.0,9.0,2.0,6.0,2.0,2.0,2.0,15.0,8.0,15.132745950421556,{}
122,371,8.06225774829855,28.284271247461906,4.0,6.0,8.06225774829855,9.055385138137416,7.071067811865476,25.079872407968907,19.1049731745428,15.0,15.0,19.0,10.0,8.0,1.0,6.0,2.23606797749979,3.1622776601683795,3.0,13.0,8.0,14.142135623730953,{}
123,372,5.0,28.0713376952364,4.0,6.082762530298219,9.055385138137416,9.055385138137416,5.0,20.024984394500787,14.0,11.5,13.0,15.0,9.0,6.0,1.0,4.0,2.0,2.0,2.0,12.0,7.0,14.142135623730953,{}
124,373,5.0,28.0713376952364,4.0,6.082762530298219,9.055385138137416,9.055385138137416,5.0,20.024984394500787,14.0,11.5,13.0,15.0,9.0,6.0,1.0,4.0,2.0,2.0,2.0,12.0,7.0,14.142135623730953,{}
125,374,3.0,28.16025568065745,3.0,6.082762530298219,8.06225774829855,9.055385138137416,7.071067811865476,19.1049731745428,13.038404810405298,11.5,13.0,16.0,7.5,4.5,2.5,4.5,2.0,2.0,2.0,12.0,7.0,13.152946437965904,{}
126,375,1.0,29.154759474226505,4.0,6.0,9.055385138137416,8.06225774829855,7.0,17.029386365926403,11.04536101718726,11.0,12.0,15.0,6.5,3.5,2.5,2.5,2.0,2.23606797749979,2.0,12.0,7.0,13.152946437965904,{}
127,376,1.4142135623730951,28.16025568065745,4.123105625617661,6.082762530298219,8.06225774829855,8.06225774829855,6.0,17.029386365926403,11.0,10.5,12.0,15.0,7.5,3.5,2.5,2.5,2.0,2.0,2.0,12.0,6.0,13.152946437965904,{}
128,377,2.0,30.26549190084312,3.1622776601683795,5.0,8.06225774829855,8.06225774829855,7.0,17.029386365926403,12.041594578792296,11.0,12.0,16.0,7.0,3.0,3.0,3.0,2.0,2.0,2.0,12.0,6.0,14.142135623730953,{}
129,378,1.0,29.27456233660889,4.123105625617661,5.0990195135927845,8.06225774829855,9.219544457292889,7.0,17.11724276862369,12.041594578792296,11.5,12.0,16.0,7.0,3.0,3.0,3.0,2.0,2.23606797749979,2.0,11.0,6.0,14.142135623730953,{}
130,379,5.0,29.27456233660889,3.1622776601683795,6.0,8.246211251235321,9.055385138137416,8.0,22.02271554554524,16.0312195418814,13.5,14.0,18.0,8.0,6.0,1.0,4.0,2.0,2.0,1.5,11.0,5.0,14.142135623730953,{}
131,380,4.0,30.26549190084312,4.0,6.082762530298219,9.055385138137416,10.04987562112089,7.071067811865476,21.095023109728988,15.033296378372908,13.0,13.0,17.0,8.0,6.0,1.0,4.0,2.0,1.4142135623730951,1.5,12.0,5.0,14.142135623730953,{}
132,381,4.0,30.26549190084312,4.0,6.082762530298219,9.055385138137416,10.04987562112089,7.071067811865476,21.095023109728988,15.033296378372908,13.0,13.0,17.0,8.0,6.0,1.0,4.0,2.0,1.4142135623730951,1.5,12.0,5.0,14.142135623730953,{}
133,382,2.0,30.26549190084312,4.123105625617661,6.0,8.06225774829855,9.055385138137416,8.0,20.024984394500787,14.0356688476182,13.0,14.0,18.0,8.0,4.0,3.0,4.0,2.0,1.4142135623730951,1.5,12.0,5.0,14.142135623730953,{}
134,383,3.0,30.14962686336267,4.123105625617661,6.0,9.055385138137416,9.055385138137416,7.0,20.024984394500787,14.0356688476182,12.5,14.0,17.0,8.5,4.5,1.5,3.5,2.0,2.0,2.0,12.0,6.0,14.142135623730953,{}
135,384,3.0,29.27456233660889,4.123105625617661,5.0,9.219544457292889,9.219544457292889,7.0,19.026297590440446,14.0356688476182,12.5,13.0,17.0,8.0,4.0,2.0,3.0,2.0,1.0,1.5,12.0,6.0,14.142135623730953,{}
136,385,3.0,29.27456233660889,4.123105625617661,5.0,9.219544457292889,9.219544457292889,7.0,19.026297590440446,14.0356688476182,12.5,13.0,17.0,8.0,4.0,2.0,3.0,2.0,1.0,1.5,12.0,6.0,14.142135623730953,{}
137,386,3.0,30.4138126514911,4.0,5.0,10.198039027185567,9.219544457292889,7.071067811865476,19.026297590440446,14.0356688476182,12.5,12.0,17.0,7.5,4.5,1.5,2.5,2.23606797749979,2.23606797749979,2.0,13.0,7.0,13.152946437965904,{}
138,387,3.1622776601683795,29.27456233660889,4.0,5.0,9.055385138137416,10.04987562112089,6.082762530298219,18.110770276274835,13.152946437965904,11.5,11.0,15.0,7.0,5.0,2.0,3.0,1.4142135623730951,3.1622776601683795,2.5,13.0,6.0,14.142135623730953,{}
139,388,3.0,29.42787793912432,4.0,5.0990195135927845,9.055385138137416,9.055385138137416,7.0,19.026297590440446,14.0,12.5,11.0,16.0,6.5,5.5,0.5,2.5,2.23606797749979,2.0,2.0,14.0,6.0,14.317821063276352,{}
140,389,3.0,29.42787793912432,4.0,5.0990195135927845,9.055385138137416,9.055385138137416,7.0,19.026297590440446,14.0,12.5,11.0,16.0,6.5,5.5,0.5,2.5,2.23606797749979,2.0,2.0,14.0,6.0,14.317821063276352,{}
141,390,3.0,31.400636936215164,3.0,5.0990195135927845,9.219544457292889,9.219544457292889,7.071067811865476,18.110770276274835,13.038404810405298,11.5,10.0,15.0,5.5,5.5,0.5,1.5,2.23606797749979,3.1622776601683795,2.5,13.0,5.0,13.341664064126334,{}
142,391,3.0,30.59411708155671,3.1622776601683795,4.0,9.219544457292889,9.219544457292889,8.0,18.027756377319943,14.0356688476182,12.5,11.0,17.0,6.0,4.0,1.0,2.0,2.23606797749979,2.23606797749979,2.0,13.0,5.0,14.317821063276352,{}
143,392,0.0,29.42787793912432,3.1622776601683795,5.0990195135927845,8.246211251235321,9.219544457292889,8.06225774829855,16.278820596099706,11.180339887498947,11.0,10.0,15.0,4.5,3.5,2.5,0.5,2.0,2.23606797749979,2.0,15.0,6.0,12.649110640673518,{}
144,393,0.0,30.4138126514911,3.1622776601683795,5.0,8.06225774829855,9.219544457292889,8.06225774829855,16.1245154965971,11.180339887498947,11.0,10.0,15.0,4.5,3.5,2.5,0.5,2.0,3.1622776601683795,2.5,14.0,5.0,13.341664064126334,{}
145,394,1.0,28.635642126552707,4.123105625617661,6.082762530298219,8.06225774829855,9.219544457292889,7.071067811865476,16.278820596099706,10.198039027185567,10.5,9.0,15.0,5.0,4.0,3.0,1.0,2.23606797749979,3.1622776601683795,3.0,15.0,5.0,13.601470508735444,{}
146,395,1.0,28.635642126552707,5.0990195135927845,6.082762530298219,8.06225774829855,8.246211251235321,7.071067811865476,17.26267650163207,11.180339887498947,11.5,10.0,16.0,6.0,4.0,3.0,1.0,2.23606797749979,2.23606797749979,2.0,15.0,5.0,12.649110640673518,{}
147,396,2.23606797749979,29.8328677803526,4.123105625617661,6.082762530298219,9.486832980505138,9.486832980505138,8.06225774829855,20.39607805437113,14.317821063276352,13.0,10.0,17.0,5.5,6.5,0.5,0.5,2.0,2.23606797749979,2.0,16.0,4.0,11.704699910719626,{}
148,397,2.23606797749979,29.8328677803526,4.123105625617661,6.082762530298219,9.486832980505138,9.486832980505138,8.06225774829855,20.39607805437113,14.317821063276352,13.0,10.0,17.0,5.5,6.5,0.5,0.5,2.0,2.23606797749979,2.0,16.0,4.0,11.704699910719626,{}
149,398,2.0,28.16025568065745,4.123105625617661,6.324555320336759,8.246211251235321,9.219544457292889,8.246211251235321,20.615528128088304,14.317821063276352,13.0,10.0,18.0,6.0,6.0,1.0,2.0,2.23606797749979,2.8284271247461903,2.0,16.0,4.0,12.649110640673518,{}
150,399,3.1622776601683795,29.120439557122072,3.1622776601683795,5.0990195135927845,8.246211251235321,9.486832980505138,7.071067811865476,18.43908891458577,13.341664064126334,11.5,8.0,16.0,5.0,6.0,1.0,1.0,1.4142135623730951,2.8284271247461903,2.0,17.0,5.0,13.0,{}
151,400,2.0,27.892651361962702,4.123105625617661,5.385164807134504,8.246211251235321,8.246211251235321,8.06225774829855,19.4164878389476,14.142135623730953,13.0,10.0,17.0,5.5,5.5,0.5,1.5,2.23606797749979,2.23606797749979,2.0,15.0,4.0,12.649110640673518,{}
152,401,3.0,27.892651361962702,3.1622776601683795,5.385164807134504,8.246211251235321,8.246211251235321,8.06225774829855,19.4164878389476,14.142135623730953,12.5,10.0,17.0,5.5,5.5,0.5,1.5,2.23606797749979,2.23606797749979,2.5,15.0,4.0,11.704699910719626,{}
153,402,2.0,28.861739379323623,4.123105625617661,5.0990195135927845,8.246211251235321,9.219544457292889,8.246211251235321,19.4164878389476,14.317821063276352,13.0,10.0,17.0,5.5,5.5,0.5,1.5,2.0,2.23606797749979,2.0,15.0,5.0,12.649110640673518,{}
154,403,1.0,28.861739379323623,4.123105625617661,5.0990195135927845,8.06225774829855,8.246211251235321,8.06225774829855,18.24828759089466,13.152946437965904,12.5,9.0,16.0,4.5,5.5,0.5,0.5,2.23606797749979,2.23606797749979,2.0,15.0,5.0,12.36931687685298,{}
155,404,2.0,28.635642126552707,4.123105625617661,5.0990195135927845,8.06225774829855,8.06225774829855,8.06225774829855,19.235384061671343,14.142135623730953,13.0,11.0,17.0,6.0,5.0,2.0,2.0,2.23606797749979,3.1622776601683795,2.5,14.0,6.0,12.649110640673518,{}
156,405,0.0,29.61418578992169,4.0,6.082762530298219,9.219544457292889,9.055385138137416,8.246211251235321,18.24828759089466,12.16552506059644,12.0,10.0,16.0,5.0,5.0,2.0,1.0,1.4142135623730951,2.23606797749979,2.0,14.0,5.0,12.36931687685298,{}
157,406,2.0,29.61418578992169,4.123105625617661,5.0990195135927845,8.06225774829855,9.219544457292889,7.071067811865476,18.24828759089466,13.152946437965904,12.0,10.0,16.0,6.0,5.0,1.0,2.0,2.0,3.1622776601683795,2.5,14.0,6.0,12.36931687685298,{}
158,407,3.0,39.20459156782532,4.123105625617661,7.0,10.04987562112089,11.04536101718726,11.04536101718726,25.079872407968907,18.110770276274835,16.5,15.0,19.0,6.0,8.0,0.0,2.0,3.0,3.1622776601683795,3.0,16.0,10.0,19.1049731745428,{}
159,408,3.0,40.049968789001575,4.0,7.0,12.0,11.0,9.055385138137416,23.021728866442675,16.0312195418814,14.5,15.0,17.0,7.0,7.0,1.0,3.0,3.0,4.0,4.0,16.0,11.0,18.110770276274835,{}
160,409,3.1622776601683795,40.0,4.0,7.0,11.04536101718726,12.0,9.055385138137416,23.08679276123039,16.1245154965971,14.5,16.0,16.0,7.0,7.0,1.0,3.0,3.0,3.1622776601683795,3.5,17.0,12.0,18.110770276274835,{}
161,410,2.0,40.049968789001575,5.0990195135927845,8.0,11.04536101718726,12.0,9.055385138137416,24.08318915758459,16.1245154965971,15.0,16.0,18.0,8.0,7.0,1.0,3.0,3.0,4.123105625617661,4.0,16.0,11.0,18.110770276274835,{}
162,411,2.0,40.01249804748511,5.0,8.0,12.041594578792296,11.0,8.246211251235321,23.08679276123039,15.132745950421556,14.0,16.0,17.0,8.5,6.5,1.5,3.5,3.0,3.0,3.0,17.0,12.0,17.029386365926403,{}
163,412,4.0,38.0,5.0,7.071067811865476,12.0,12.0,9.055385138137416,25.0,18.027756377319943,16.0,18.0,18.0,9.0,7.0,1.0,4.0,3.0,4.0,4.0,15.0,12.0,19.026297590440446,{}
164,413,2.23606797749979,38.0,5.0,8.0,12.0,12.0,10.04987562112089,25.0,17.0,16.0,18.0,18.0,8.0,7.0,1.0,3.0,3.0,3.0,3.0,15.0,13.0,18.027756377319943,{}
165,414,2.23606797749979,38.0,5.0,8.0,12.0,12.0,10.04987562112089,25.0,17.0,16.0,18.0,18.0,8.0,7.0,1.0,3.0,3.0,3.0,3.0,15.0,13.0,18.027756377319943,{}
166,415,4.0,39.0,5.0,7.0,11.0,12.0,8.0,24.0,17.0,15.0,16.0,16.0,8.0,8.0,0.0,3.0,3.0,3.0,3.0,15.0,13.0,18.027756377319943,{}
167,416,1.0,38.0,5.0,8.06225774829855,12.0,12.0,9.0,23.021728866442675,15.0,14.5,17.0,17.0,8.0,6.0,3.0,3.0,3.0,3.1622776601683795,3.0,14.0,12.0,18.0,{}
168,417,3.1622776601683795,39.0,5.0,7.0,12.0,12.041594578792296,8.0,23.021728866442675,16.0312195418814,14.5,16.0,16.0,8.0,7.0,1.0,4.0,3.1622776601683795,3.0,2.5,13.0,12.0,19.0,{}
169,418,3.1622776601683795,39.0,5.0,7.0,12.0,12.041594578792296,8.0,23.021728866442675,16.0312195418814,14.5,16.0,16.0,8.0,7.0,1.0,4.0,3.1622776601683795,3.0,2.5,13.0,12.0,19.0,{}
170,419,5.0,40.0,3.0,6.0,11.0,12.041594578792296,10.0,24.0,18.0,15.5,16.0,16.0,6.0,8.0,2.0,3.0,2.23606797749979,2.0,2.5,13.0,13.0,19.0,{}
171,420,4.0,41.04875150354759,5.0,8.06225774829855,12.041594578792296,13.038404810405298,10.0,27.018512172212592,19.0,17.0,20.0,18.0,9.0,8.0,0.0,5.0,3.1622776601683795,3.0,3.0,11.0,14.0,19.026297590440446,{}
172,421,3.1622776601683795,40.19950248448356,4.0,8.0,11.0,12.041594578792296,10.0,25.019992006393608,17.029386365926403,15.5,20.0,16.0,8.0,7.0,1.0,4.0,2.23606797749979,2.23606797749979,2.0,10.0,14.0,19.026297590440446,{}
173,422,4.123105625617661,39.20459156782532,5.0,7.071067811865476,11.04536101718726,12.041594578792296,9.0,25.079872407968907,18.027756377319943,16.0,20.0,16.0,9.0,7.0,0.0,5.0,2.23606797749979,3.1622776601683795,3.0,10.0,14.0,19.0,{}
174,423,3.1622776601683795,39.45883931389772,5.0990195135927845,8.06225774829855,12.16552506059644,12.041594578792296,8.0,24.186773244895647,16.1245154965971,14.5,21.0,15.0,10.0,6.0,2.0,6.0,4.123105625617661,3.0,3.0,11.0,15.0,19.026297590440446,{}
175,424,2.0,37.12142238654117,5.0990195135927845,8.06225774829855,11.0,12.041594578792296,8.0,23.08679276123039,15.033296378372908,14.0,18.0,15.0,8.5,6.5,2.5,3.5,3.1622776601683795,3.1622776601683795,3.5,11.0,16.0,20.024984394500787,{}
176,425,2.0,37.12142238654117,4.123105625617661,7.071067811865476,11.04536101718726,12.041594578792296,10.04987562112089,23.194827009486403,16.1245154965971,15.0,19.0,16.0,7.5,5.5,2.5,3.5,3.1622776601683795,2.23606797749979,2.0,9.0,15.0,19.026297590440446,{}
177,426,0.0,37.21558813185679,5.0990195135927845,8.06225774829855,11.04536101718726,12.041594578792296,10.04987562112089,23.194827009486403,15.132745950421556,15.0,20.0,16.0,8.0,5.0,3.0,4.0,3.1622776601683795,3.1622776601683795,3.0,9.0,15.0,20.09975124224178,{}
178,427,4.123105625617661,40.311288741492746,3.0,7.071067811865476,12.041594578792296,12.041594578792296,11.04536101718726,25.179356624028344,18.110770276274835,16.0,20.0,15.0,6.5,7.5,0.5,3.5,2.23606797749979,3.1622776601683795,3.0,10.0,15.0,19.026297590440446,{}
179,428,7.071067811865476,37.21558813185679,4.0,7.071067811865476,11.04536101718726,12.041594578792296,11.04536101718726,29.154759474226505,22.09072203437452,18.5,22.0,18.0,9.0,9.0,2.0,6.0,3.1622776601683795,3.1622776601683795,3.5,9.0,16.0,18.027756377319943,{}
180,429,7.071067811865476,39.20459156782532,4.123105625617661,8.0,11.04536101718726,12.041594578792296,11.0,30.066592756745816,22.09072203437452,18.5,21.0,17.0,8.0,11.0,3.0,5.0,2.23606797749979,2.0,2.0,10.0,17.0,18.110770276274835,{}
181,430,7.071067811865476,39.20459156782532,4.123105625617661,8.0,11.04536101718726,12.041594578792296,11.0,30.066592756745816,22.09072203437452,18.5,21.0,17.0,8.0,11.0,3.0,5.0,2.23606797749979,2.0,2.0,10.0,17.0,18.110770276274835,{}
182,431,7.071067811865476,41.30375285612676,4.0,7.0,11.04536101718726,12.041594578792296,10.0,28.0178514522438,21.02379604162864,17.5,21.0,16.0,8.5,9.5,1.5,5.5,3.1622776601683795,3.0,3.0,10.0,18.0,18.110770276274835,{}
183,432,3.1622776601683795,41.30375285612676,5.0,8.06225774829855,12.041594578792296,13.038404810405298,10.0,26.0768096208106,18.027756377319943,16.5,21.0,16.0,8.5,7.5,0.5,4.5,4.47213595499958,4.123105625617661,4.5,11.0,20.0,23.194827009486403,{}
184,433,2.0,40.19950248448356,4.0,8.06225774829855,12.041594578792296,12.041594578792296,10.04987562112089,24.08318915758459,16.0312195418814,15.0,18.0,14.0,6.0,8.0,0.0,3.0,4.123105625617661,4.123105625617661,4.5,15.0,23.0,22.09072203437452,{}
185,434,2.0,40.19950248448356,4.0,8.06225774829855,12.041594578792296,12.041594578792296,10.04987562112089,24.08318915758459,16.0312195418814,15.0,18.0,14.0,6.0,8.0,0.0,3.0,4.123105625617661,4.123105625617661,4.5,15.0,23.0,22.09072203437452,{}
186,435,2.0,41.19465984809196,5.0,8.06225774829855,12.041594578792296,13.038404810405298,9.055385138137416,24.08318915758459,16.0312195418814,15.0,18.0,14.0,7.0,8.0,1.0,3.0,3.1622776601683795,4.123105625617661,4.0,16.0,22.0,23.08679276123039,{}
187,436,6.082762530298219,42.1070065428546,4.123105625617661,8.0,11.04536101718726,12.041594578792296,11.04536101718726,29.017236257093817,21.02379604162864,18.0,19.0,16.0,6.5,11.5,2.5,3.5,4.0,5.0990195135927845,4.5,16.0,23.0,24.08318915758459,{}
188,437,6.082762530298219,41.19465984809196,5.0,8.0,12.041594578792296,13.152946437965904,10.04987562112089,29.0,21.0,18.0,18.0,14.0,6.0,13.0,4.0,2.0,4.0,4.123105625617661,4.5,16.0,23.0,23.194827009486403,{}
189,438,6.082762530298219,41.19465984809196,5.0,8.0,12.041594578792296,13.152946437965904,10.04987562112089,29.0,21.0,18.0,18.0,14.0,6.0,13.0,4.0,2.0,4.0,4.123105625617661,4.5,16.0,23.0,23.194827009486403,{}
190,439,10.04987562112089,41.19465984809196,3.0,7.071067811865476,12.041594578792296,12.041594578792296,10.0,30.066592756745816,23.021728866442675,18.0,20.0,16.0,8.0,12.0,5.0,5.0,4.123105625617661,4.123105625617661,4.0,15.0,22.0,24.08318915758459,{}
191,440,9.0,41.10960958218893,4.123105625617661,7.071067811865476,12.041594578792296,13.038404810405298,10.04987562112089,30.01666203960727,23.0,18.5,20.0,17.0,8.5,11.5,4.5,5.5,3.1622776601683795,4.123105625617661,4.0,13.0,20.0,23.08679276123039,{}
192,441,9.055385138137416,42.1070065428546,4.0,8.0,12.0,13.152946437965904,10.0,31.016124838541646,23.021728866442675,18.5,20.0,17.0,8.5,12.5,3.5,4.5,4.123105625617661,3.1622776601683795,3.5,13.0,19.0,22.02271554554524,{}
193,442,9.055385138137416,42.1070065428546,4.0,8.0,12.0,13.152946437965904,10.0,31.016124838541646,23.021728866442675,18.5,20.0,17.0,8.5,12.5,3.5,4.5,4.123105625617661,3.1622776601683795,3.5,13.0,19.0,22.02271554554524,{}
194,443,8.06225774829855,41.10960958218893,4.0,8.0,12.0,13.038404810405298,10.0,30.01666203960727,22.02271554554524,18.0,20.0,17.0,8.5,11.5,3.5,4.5,4.0,4.123105625617661,4.5,12.0,17.0,21.095023109728988,{}
195,444,5.0,41.19465984809196,3.0,7.071067811865476,11.0,13.038404810405298,10.04987562112089,25.079872407968907,18.027756377319943,15.5,19.0,15.0,7.0,8.0,1.0,4.0,3.1622776601683795,4.123105625617661,4.0,12.0,16.0,20.024984394500787,{}
196,445,5.0990195135927845,40.11234224026316,4.0,7.0,12.041594578792296,12.041594578792296,9.0,25.019992006393608,18.027756377319943,15.5,19.0,16.0,8.5,7.5,0.5,5.5,3.1622776601683795,4.0,4.0,12.0,16.0,19.026297590440446,{}
197,446,5.0990195135927845,40.11234224026316,4.0,7.0,12.041594578792296,12.041594578792296,9.0,25.019992006393608,18.027756377319943,15.5,19.0,16.0,8.5,7.5,0.5,5.5,3.1622776601683795,4.0,4.0,12.0,16.0,19.026297590440446,{}
198,447,5.0,42.1070065428546,4.123105625617661,7.071067811865476,12.0,12.041594578792296,9.0,25.079872407968907,18.027756377319943,15.5,18.0,15.0,7.5,8.5,1.5,3.5,4.123105625617661,3.0,3.5,12.0,16.0,20.024984394500787,{}
199,448,6.082762530298219,42.04759208325728,4.0,7.0,11.0,13.038404810405298,9.0,26.019223662515376,19.026297590440446,16.0,18.0,16.0,8.0,9.0,2.0,4.0,3.1622776601683795,2.0,2.5,12.0,15.0,19.026297590440446,{}
200,449,7.0,42.0,4.0,7.071067811865476,11.0,13.038404810405298,9.0,27.018512172212592,20.0,16.5,17.0,17.0,8.0,10.0,3.0,4.0,3.1622776601683795,3.0,3.0,14.0,15.0,19.0,{}
201,450,7.0,42.0,4.0,7.071067811865476,11.0,13.038404810405298,9.0,27.018512172212592,20.0,16.5,17.0,17.0,8.0,10.0,3.0,4.0,3.1622776601683795,3.0,3.0,14.0,15.0,19.0,{}
202,451,9.0,40.01249804748511,4.0,7.071067811865476,13.0,13.038404810405298,9.0,29.017236257093817,22.0,17.5,19.0,18.0,9.5,10.5,2.5,5.5,3.0,3.1622776601683795,3.0,14.0,14.0,18.0,{}
203,452,5.0990195135927845,40.049968789001575,4.0,7.0,12.041594578792296,12.0,9.0,25.019992006393608,18.027756377319943,15.5,16.0,18.0,8.0,8.0,1.0,4.0,3.0,3.1622776601683795,3.0,16.0,12.0,19.1049731745428,{}
204,453,7.0,40.19950248448356,4.123105625617661,8.0,12.16552506059644,13.038404810405298,9.0,28.0178514522438,20.024984394500787,16.5,15.0,19.0,8.0,11.0,2.0,3.0,3.1622776601683795,3.1622776601683795,2.5,17.0,12.0,20.09975124224178,{}
205,454,7.0,40.19950248448356,4.123105625617661,7.0,12.041594578792296,13.038404810405298,8.0,26.019223662515376,19.026297590440446,15.5,14.0,18.0,8.0,10.0,1.0,4.0,2.0,2.0,2.0,17.0,12.0,19.1049731745428,{}
206,455,7.071067811865476,40.44749683231337,4.0,8.0,11.04536101718726,13.038404810405298,9.219544457292889,28.16025568065745,20.223748416156685,16.5,15.0,21.0,9.0,10.0,1.0,5.0,2.0,3.1622776601683795,3.0,18.0,11.0,18.24828759089466,{}
207,456,13.0,38.3275357934736,4.123105625617661,8.06225774829855,12.041594578792296,13.038404810405298,9.486832980505138,34.36568055487916,26.30589287593181,19.5,18.0,23.0,11.5,13.5,3.5,7.5,3.1622776601683795,2.0,2.0,19.0,12.0,17.26267650163207,{}
208,457,15.033296378372908,37.21558813185679,4.123105625617661,9.055385138137416,11.180339887498947,13.038404810405298,8.54400374531753,36.49657518178932,27.459060435491963,19.5,18.0,22.0,12.0,16.0,6.0,7.0,2.0,3.0,3.0,19.0,12.0,19.235384061671343,{}
209,458,16.0312195418814,37.33630940518894,4.123105625617661,8.06225774829855,11.180339887498947,11.04536101718726,7.615773105863909,35.510561809129406,27.459060435491963,19.0,16.0,21.0,11.5,16.5,6.5,6.5,3.0,3.0,3.0,20.0,12.0,18.24828759089466,{}
210,459,13.038404810405298,39.45883931389772,4.123105625617661,8.246211251235321,11.180339887498947,12.041594578792296,8.54400374531753,33.734255586866,25.495097567963924,18.5,15.0,21.0,10.0,15.0,5.0,5.0,3.0,3.0,3.0,19.0,11.0,18.24828759089466,{}
211,460,6.082762530298219,38.47076812334269,4.123105625617661,6.082762530298219,11.04536101718726,12.16552506059644,9.055385138137416,25.317977802344327,19.235384061671343,16.0,13.0,19.0,7.0,9.0,1.0,3.0,2.0,3.1622776601683795,3.0,18.0,10.0,18.24828759089466,{}
212,461,4.123105625617661,41.593268686170845,4.0,8.0,11.180339887498947,12.041594578792296,9.219544457292889,25.179356624028344,17.26267650163207,15.0,12.0,19.0,6.5,9.5,0.5,1.5,2.0,3.0,3.0,19.0,10.0,19.235384061671343,{}
213,462,4.0,40.44749683231337,4.123105625617661,7.071067811865476,12.16552506059644,13.152946437965904,9.055385138137416,24.186773244895647,17.11724276862369,15.0,13.0,19.0,7.0,8.0,1.0,2.0,3.0,3.0,3.0,19.0,10.0,18.24828759089466,{}
214,463,1.0,41.43669871020132,5.0990195135927845,8.06225774829855,12.041594578792296,13.152946437965904,9.055385138137416,23.194827009486403,15.132745950421556,14.5,12.0,18.0,6.0,8.0,2.0,1.0,3.0,3.1622776601683795,3.5,19.0,10.0,18.43908891458577,{}
215,464,2.0,40.60788100849391,4.123105625617661,8.06225774829855,11.180339887498947,12.16552506059644,10.198039027185567,24.33105012119288,16.278820596099706,15.0,12.0,19.0,5.5,8.5,0.5,0.5,3.0,4.0,4.0,19.0,10.0,17.46424919657298,{}
216,465,4.0,39.81205847478876,4.123105625617661,7.071067811865476,12.16552506059644,11.180339887498947,10.198039027185567,25.317977802344327,18.24828759089466,16.0,12.0,20.0,6.0,9.0,0.0,2.0,3.0,3.1622776601683795,3.0,20.0,10.0,18.43908891458577,{}
217,466,5.0,41.77319714841085,4.123105625617661,6.082762530298219,11.40175425099138,12.16552506059644,10.198039027185567,25.317977802344327,19.235384061671343,16.5,12.0,20.0,6.0,9.0,1.0,1.0,3.1622776601683795,4.123105625617661,3.5,20.0,10.0,20.39607805437113,{}
218,467,6.082762530298219,38.63935817272331,4.0,7.071067811865476,11.180339887498947,12.16552506059644,9.486832980505138,26.476404589747453,19.4164878389476,16.0,13.0,20.0,7.5,9.5,1.5,3.5,3.0,3.1622776601683795,3.5,21.0,10.0,19.235384061671343,{}
219,468,3.0,39.6232255123179,4.123105625617661,6.082762530298219,10.198039027185567,11.180339887498947,10.198039027185567,23.345235059857504,17.26267650163207,15.5,13.0,20.0,6.5,6.5,1.5,2.5,4.0,3.1622776601683795,3.5,20.0,9.0,18.68154169226941,{}
220,469,1.4142135623730951,39.81205847478876,4.0,7.071067811865476,11.40175425099138,12.16552506059644,10.198039027185567,22.36067977499789,15.297058540778355,14.5,12.0,20.0,6.0,6.0,3.0,1.0,4.123105625617661,4.123105625617661,4.0,20.0,9.0,18.43908891458577,{}
221,470,1.4142135623730951,39.81205847478876,4.0,7.071067811865476,11.40175425099138,12.16552506059644,10.198039027185567,22.36067977499789,15.297058540778355,14.5,12.0,20.0,6.0,6.0,3.0,1.0,4.123105625617661,4.123105625617661,4.0,20.0,9.0,18.43908891458577,{}
222,471,2.0,39.81205847478876,4.123105625617661,7.071067811865476,11.180339887498947,11.40175425099138,9.219544457292889,22.36067977499789,15.297058540778355,14.0,12.0,20.0,7.0,6.0,3.0,2.0,3.0,4.123105625617661,3.5,21.0,9.0,18.97366596101028,{}
223,472,1.0,38.8329756778952,4.0,7.071067811865476,11.180339887498947,11.180339887498947,9.219544457292889,21.213203435596427,14.142135623730953,13.5,11.0,19.0,6.0,6.0,3.0,1.0,3.1622776601683795,3.1622776601683795,3.5,20.0,8.0,19.6468827043885,{}
224,473,1.4142135623730951,38.8329756778952,4.0,7.071067811865476,10.44030650891055,10.198039027185567,10.198039027185567,22.36067977499789,15.297058540778355,14.5,12.0,20.0,6.0,6.0,2.0,1.0,4.123105625617661,4.123105625617661,3.5,21.0,9.0,18.68154169226941,{}
225,474,1.0,39.81205847478876,4.0,7.280109889280518,11.180339887498947,11.40175425099138,10.198039027185567,22.36067977499789,15.132745950421556,14.5,12.0,20.0,6.0,6.0,2.0,1.0,3.1622776601683795,4.123105625617661,3.5,21.0,9.0,17.72004514666935,{}
226,475,6.082762530298219,37.8549864614954,4.0,8.06225774829855,11.180339887498947,11.180339887498947,11.40175425099138,29.42787793912432,21.37755832643195,18.0,14.0,22.0,7.0,11.0,1.0,2.0,3.1622776601683795,4.123105625617661,4.0,21.0,10.0,17.72004514666935,{}
227,476,8.0,34.20526275297414,4.123105625617661,7.280109889280518,10.198039027185567,12.16552506059644,10.44030650891055,29.61418578992169,22.36067977499789,18.0,14.0,23.0,8.5,10.5,1.5,4.5,3.0,3.1622776601683795,3.0,20.0,10.0,17.46424919657298,{}
228,477,5.0,36.6742416417845,3.1622776601683795,7.071067811865476,10.198039027185567,11.180339887498947,11.40175425099138,26.476404589747453,19.4164878389476,16.5,14.0,21.0,6.5,8.5,0.5,2.5,3.1622776601683795,4.123105625617661,3.5,21.0,10.0,17.46424919657298,{}
229,478,5.0,36.6742416417845,3.1622776601683795,7.071067811865476,10.198039027185567,11.180339887498947,11.40175425099138,26.476404589747453,19.4164878389476,16.5,14.0,21.0,6.5,8.5,0.5,2.5,3.1622776601683795,4.123105625617661,3.5,21.0,10.0,17.46424919657298,{}
230,479,2.0,38.47076812334269,4.123105625617661,7.071067811865476,11.180339887498947,11.180339887498947,10.04987562112089,23.194827009486403,16.1245154965971,15.0,13.0,19.0,6.0,7.0,1.0,1.0,3.0,4.123105625617661,3.5,20.0,10.0,17.46424919657298,{}
231,480,1.0,40.60788100849391,5.0990195135927845,8.06225774829855,12.041594578792296,12.16552506059644,9.219544457292889,23.345235059857504,15.297058540778355,14.5,12.0,19.0,6.5,7.5,1.5,1.5,4.123105625617661,3.1622776601683795,3.5,20.0,9.0,17.46424919657298,{}
232,481,2.0,40.44749683231337,5.0990195135927845,7.280109889280518,11.180339887498947,12.16552506059644,8.246211251235321,22.56102834535696,15.297058540778355,14.0,12.0,18.0,7.0,7.0,2.0,1.0,4.123105625617661,4.123105625617661,4.0,19.0,9.0,17.46424919657298,{}
233,482,2.0,39.45883931389772,5.0990195135927845,7.071067811865476,11.180339887498947,12.041594578792296,9.219544457292889,23.345235059857504,16.278820596099706,15.0,13.0,19.0,7.0,7.0,1.0,2.0,3.1622776601683795,3.1622776601683795,3.5,19.0,9.0,16.492422502470642,{}
234,483,4.123105625617661,40.44749683231337,4.0,7.071067811865476,11.04536101718726,12.041594578792296,10.198039027185567,25.317977802344327,18.24828759089466,16.0,13.0,19.0,6.0,9.0,0.0,2.0,3.1622776601683795,4.123105625617661,3.5,20.0,10.0,17.46424919657298,{}
235,484,5.0,37.48332962798263,3.1622776601683795,8.246211251235321,11.180339887498947,12.041594578792296,11.04536101718726,27.29468812791236,19.1049731745428,16.5,13.0,19.0,5.0,11.0,1.0,1.0,4.123105625617661,4.123105625617661,4.0,19.0,10.0,18.24828759089466,{}
236,485,2.0,40.44749683231337,4.123105625617661,7.071067811865476,11.04536101718726,11.180339887498947,12.16552506059644,25.317977802344327,18.24828759089466,17.0,13.0,19.0,4.0,9.0,1.0,0.0,3.0,4.123105625617661,4.0,18.0,9.0,17.72004514666935,{}
237,486,2.0,40.44749683231337,4.123105625617661,7.071067811865476,11.04536101718726,11.180339887498947,12.16552506059644,25.317977802344327,18.24828759089466,17.0,13.0,19.0,4.0,9.0,1.0,0.0,3.0,4.123105625617661,4.0,18.0,9.0,17.72004514666935,{}
238,487,0.0,39.45883931389772,5.0990195135927845,7.071067811865476,10.04987562112089,11.180339887498947,11.04536101718726,23.194827009486403,16.1245154965971,16.0,13.0,19.0,5.0,7.0,2.0,0.0,4.123105625617661,4.0,4.0,19.0,10.0,17.46424919657298,{}
239,488,5.0990195135927845,39.45883931389772,4.123105625617661,7.071067811865476,11.04536101718726,12.16552506059644,12.16552506059644,28.442925306655784,21.37755832643195,18.5,13.0,19.0,4.0,12.0,3.0,0.0,4.123105625617661,3.0,3.0,19.0,10.0,17.26267650163207,{}
240,489,6.082762530298219,39.45883931389772,3.1622776601683795,7.071067811865476,11.04536101718726,11.04536101718726,12.16552506059644,28.442925306655784,21.37755832643195,18.0,13.0,19.0,4.0,12.0,3.0,1.0,3.1622776601683795,4.0,4.0,19.0,10.0,17.26267650163207,{}
241,490,6.082762530298219,39.45883931389772,3.1622776601683795,7.071067811865476,11.04536101718726,11.04536101718726,12.16552506059644,28.442925306655784,21.37755832643195,18.0,13.0,19.0,4.0,12.0,3.0,1.0,3.1622776601683795,4.0,4.0,19.0,10.0,17.26267650163207,{}
242,491,5.0990195135927845,39.45883931389772,4.123105625617661,8.06225774829855,11.04536101718726,12.041594578792296,11.180339887498947,28.442925306655784,20.39607805437113,17.5,13.0,19.0,5.0,12.0,3.0,1.0,3.1622776601683795,4.0,4.0,19.0,11.0,17.26267650163207,{}
243,492,7.071067811865476,39.45883931389772,4.0,7.071067811865476,11.04536101718726,11.180339887498947,11.40175425099138,29.42787793912432,22.36067977499789,18.5,13.0,19.0,5.0,13.0,4.0,1.0,4.123105625617661,4.0,4.0,19.0,11.0,18.43908891458577,{}
244,493,4.123105625617661,37.48332962798263,4.123105625617661,8.06225774829855,11.04536101718726,11.180339887498947,12.16552506059644,28.442925306655784,20.39607805437113,18.0,13.0,19.0,4.0,12.0,3.0,0.0,3.0,3.1622776601683795,3.0,19.0,11.0,17.26267650163207,{}
245,494,4.123105625617661,37.48332962798263,4.123105625617661,8.06225774829855,11.04536101718726,11.180339887498947,12.16552506059644,28.442925306655784,20.39607805437113,18.0,13.0,19.0,4.0,12.0,3.0,0.0,3.0,3.1622776601683795,3.0,19.0,11.0,17.26267650163207,{}
246,495,6.082762530298219,38.3275357934736,3.1622776601683795,7.071067811865476,10.198039027185567,11.04536101718726,11.180339887498947,27.459060435491963,20.39607805437113,17.0,13.0,18.0,4.5,11.5,2.5,0.5,3.0,3.1622776601683795,3.5,19.0,11.0,18.43908891458577,{}
247,496,5.0,38.3275357934736,3.1622776601683795,7.071067811865476,11.04536101718726,12.041594578792296,11.180339887498947,26.30589287593181,19.235384061671343,16.5,13.0,18.0,4.5,10.5,1.5,1.5,3.1622776601683795,3.1622776601683795,3.0,19.0,10.0,17.46424919657298,{}
248,497,4.0,39.45883931389772,4.123105625617661,8.06225774829855,11.04536101718726,11.04536101718726,10.198039027185567,26.30589287593181,18.24828759089466,16.0,13.0,19.0,6.0,10.0,1.0,2.0,3.1622776601683795,4.123105625617661,4.0,18.0,10.0,18.24828759089466,{}
249,498,4.0,39.45883931389772,4.123105625617661,8.06225774829855,11.04536101718726,11.04536101718726,10.198039027185567,26.30589287593181,18.24828759089466,16.0,13.0,19.0,6.0,10.0,1.0,2.0,3.1622776601683795,4.123105625617661,4.0,18.0,10.0,18.24828759089466,{}
250,499,4.0,38.3275357934736,4.0,7.071067811865476,11.04536101718726,11.04536101718726,11.180339887498947,26.1725046566048,19.1049731745428,17.0,13.0,18.0,4.5,10.5,1.5,0.5,3.1622776601683795,3.1622776601683795,3.0,19.0,11.0,17.46424919657298,{}
251,500,3.0,38.2099463490856,4.123105625617661,8.06225774829855,11.04536101718726,12.041594578792296,10.198039027185567,25.317977802344327,17.26267650163207,15.5,13.0,17.0,5.0,10.0,1.0,1.0,3.1622776601683795,4.123105625617661,4.0,19.0,11.0,17.26267650163207,{}
252,501,5.0,37.21558813185679,4.0,8.06225774829855,11.04536101718726,11.04536101718726,10.198039027185567,27.16615541441225,19.1049731745428,16.5,15.0,19.0,7.0,10.0,1.0,3.0,4.123105625617661,4.0,3.5,18.0,11.0,18.24828759089466,{}
253,502,5.0990195135927845,38.2099463490856,4.0,8.0,11.04536101718726,12.041594578792296,10.198039027185567,27.16615541441225,19.235384061671343,16.5,15.0,19.0,7.0,10.0,1.0,2.0,3.0,3.1622776601683795,3.0,18.0,11.0,18.110770276274835,{}
254,503,5.0,39.20459156782532,4.123105625617661,8.0,12.16552506059644,12.041594578792296,10.198039027185567,27.16615541441225,19.235384061671343,16.5,16.0,20.0,8.0,9.0,0.0,3.0,3.0,3.0,3.0,17.0,10.0,18.110770276274835,{}
255,504,8.0,38.11823710509184,4.0,7.071067811865476,11.04536101718726,12.041594578792296,10.198039027185567,29.154759474226505,22.09072203437452,18.0,16.0,19.0,7.5,11.5,3.5,3.5,2.0,3.0,3.0,18.0,12.0,18.110770276274835,{}
256,505,8.0,38.2099463490856,4.123105625617661,7.0,12.041594578792296,13.038404810405298,10.04987562112089,29.068883707497267,22.09072203437452,18.0,16.0,20.0,8.0,11.0,3.0,3.0,2.0,3.1622776601683795,2.5,17.0,12.0,17.11724276862369,{}
257,506,8.0,38.2099463490856,4.123105625617661,7.0,12.041594578792296,13.038404810405298,10.04987562112089,29.068883707497267,22.09072203437452,18.0,16.0,20.0,8.0,11.0,3.0,3.0,2.0,3.1622776601683795,2.5,17.0,12.0,17.11724276862369,{}
258,507,7.0,38.11823710509184,4.123105625617661,7.0,12.0,13.038404810405298,10.04987562112089,28.0713376952364,21.095023109728988,17.5,17.0,20.0,8.5,9.5,1.5,4.5,1.4142135623730951,1.4142135623730951,1.0,17.0,12.0,17.11724276862369,{}
259,508,9.0,38.01315561749642,3.0,6.0,11.04536101718726,11.04536101718726,11.04536101718726,29.017236257093817,23.021728866442675,18.5,19.0,20.0,8.5,9.5,2.5,5.5,2.0,2.0,2.0,15.0,13.0,18.110770276274835,{}
260,509,9.055385138137416,38.05259518088089,3.0,6.0,11.04536101718726,11.0,10.04987562112089,28.0,22.0,17.5,18.0,20.0,9.0,9.0,2.0,5.0,2.0,3.0,2.5,16.0,14.0,17.11724276862369,{}
261,510,8.0,38.01315561749642,3.0,6.0,11.0,12.0,9.055385138137416,26.019223662515376,20.024984394500787,16.0,17.0,18.0,8.5,8.5,1.5,5.5,2.0,3.1622776601683795,2.5,15.0,13.0,17.029386365926403,{}
262,511,5.0,40.01249804748511,3.1622776601683795,7.0,10.0,11.04536101718726,10.04987562112089,25.0,18.0,15.5,17.0,18.0,7.5,7.5,0.5,4.5,2.23606797749979,2.0,2.5,14.0,13.0,18.027756377319943,{}
263,512,1.0,38.11823710509184,5.0,7.0,11.0,11.0,10.0,22.02271554554524,15.033296378372908,15.0,16.0,19.0,7.5,4.5,3.5,2.5,2.0,2.23606797749979,2.0,15.0,11.0,17.029386365926403,{}
264,513,1.4142135623730951,38.11823710509184,4.0,8.0,11.04536101718726,11.04536101718726,10.04987562112089,23.0,15.0,14.5,16.0,19.0,7.5,5.5,3.5,3.5,2.23606797749979,2.0,2.0,16.0,10.0,18.110770276274835,{}
265,514,1.4142135623730951,38.11823710509184,4.0,8.0,11.04536101718726,11.04536101718726,10.04987562112089,23.0,15.0,14.5,16.0,19.0,7.5,5.5,3.5,3.5,2.23606797749979,2.0,2.0,16.0,10.0,18.110770276274835,{}
266,515,6.082762530298219,34.36568055487916,4.123105625617661,7.071067811865476,10.04987562112089,10.04987562112089,9.219544457292889,26.1725046566048,19.1049731745428,16.0,16.0,21.0,9.5,7.5,0.5,5.5,2.23606797749979,2.23606797749979,2.0,17.0,11.0,17.11724276862369,{}
267,516,10.0,37.48332962798263,3.0,6.082762530298219,10.198039027185567,11.04536101718726,10.198039027185567,29.154759474226505,23.08679276123039,18.0,16.0,22.0,9.0,10.0,2.0,5.0,2.0,2.0,2.0,18.0,9.0,16.278820596099706,{}
268,517,8.0,37.10795063055895,4.123105625617661,7.071067811865476,10.198039027185567,11.180339887498947,9.055385138137416,28.16025568065745,21.095023109728988,17.0,15.0,24.0,10.5,8.5,0.5,5.5,3.1622776601683795,3.605551275463989,3.0,21.0,9.0,17.46424919657298,{}
269,518,8.0,36.87817782917155,5.0990195135927845,6.082762530298219,10.198039027185567,11.180339887498947,9.055385138137416,28.16025568065745,22.09072203437452,18.0,16.0,24.0,11.0,8.0,0.0,5.0,3.0,3.605551275463989,3.0,19.0,8.0,17.72004514666935,{}
270,519,6.082762530298219,37.8549864614954,5.0990195135927845,7.071067811865476,11.40175425099138,12.36931687685298,9.055385138137416,27.29468812791236,20.223748416156685,17.0,15.0,23.0,10.0,8.0,0.0,4.0,2.0,2.23606797749979,2.5,19.0,7.0,17.46424919657298,{}
271,520,6.0,40.024992192379,5.0,7.280109889280518,11.180339887498947,12.36931687685298,9.219544457292889,27.29468812791236,20.09975124224178,17.0,15.0,24.0,10.5,7.5,1.5,4.5,2.0,3.605551275463989,2.5,21.0,7.0,15.524174696260024,{}
272,521,5.0990195135927845,38.3275357934736,4.0,8.06225774829855,9.486832980505138,10.44030650891055,9.486832980505138,26.476404589747453,18.43908891458577,15.5,14.0,24.0,10.0,7.0,3.0,4.0,2.23606797749979,2.8284271247461903,2.0,21.0,7.0,18.68154169226941,{}
273,522,5.0,38.3275357934736,5.0990195135927845,8.246211251235321,10.198039027185567,11.40175425099138,8.246211251235321,26.476404589747453,18.24828759089466,15.5,13.0,23.0,10.0,8.0,2.0,4.0,3.0,2.23606797749979,2.0,20.0,6.0,17.72004514666935,{}
274,523,7.0,39.05124837953327,4.123105625617661,7.280109889280518,10.198039027185567,11.40175425099138,9.219544457292889,27.459060435491963,20.223748416156685,16.5,14.0,23.0,9.5,8.5,0.5,4.5,2.23606797749979,2.23606797749979,2.0,21.0,7.0,16.76305461424021,{}
275,524,5.0990195135927845,39.81205847478876,4.0,7.071067811865476,11.40175425099138,12.36931687685298,9.486832980505138,25.495097567963924,18.43908891458577,15.5,13.0,21.0,8.0,8.0,0.0,2.0,2.23606797749979,3.605551275463989,3.0,22.0,7.0,17.72004514666935,{}
276,525,5.0990195135927845,37.10795063055895,5.0,7.071067811865476,10.198039027185567,11.180339887498947,8.54400374531753,25.495097567963924,18.43908891458577,15.5,13.0,22.0,9.5,7.5,1.5,3.5,3.1622776601683795,3.1622776601683795,3.0,21.0,6.0,16.76305461424021,{}
277,526,5.0990195135927845,37.10795063055895,5.0,7.071067811865476,10.198039027185567,11.180339887498947,8.54400374531753,25.495097567963924,18.43908891458577,15.5,13.0,22.0,9.5,7.5,1.5,3.5,3.1622776601683795,3.1622776601683795,3.0,21.0,6.0,16.76305461424021,{}
278,527,5.0990195135927845,39.05124837953327,4.123105625617661,7.071067811865476,10.44030650891055,10.44030650891055,9.219544457292889,25.495097567963924,18.43908891458577,15.5,12.0,21.0,7.5,8.5,0.5,2.5,3.1622776601683795,3.605551275463989,3.0,22.0,7.0,16.76305461424021,{}
279,528,5.0,38.3275357934736,4.123105625617661,7.280109889280518,10.44030650891055,11.40175425099138,9.486832980505138,25.70992026436488,18.43908891458577,15.5,12.0,22.0,8.0,8.0,1.0,3.0,2.23606797749979,2.23606797749979,2.0,21.0,6.0,18.027756377319943,{}
280,529,6.0,37.10795063055895,4.123105625617661,7.280109889280518,10.44030650891055,11.40175425099138,9.486832980505138,26.68332812825267,19.4164878389476,16.0,13.0,22.0,8.5,8.5,0.5,3.5,3.1622776601683795,4.123105625617661,4.0,22.0,7.0,17.08800749063506,{}
281,530,6.0,37.10795063055895,4.123105625617661,7.280109889280518,10.44030650891055,11.40175425099138,9.486832980505138,26.68332812825267,19.4164878389476,16.0,13.0,22.0,8.5,8.5,0.5,3.5,3.1622776601683795,4.123105625617661,4.0,22.0,7.0,17.08800749063506,{}
282,531,10.04987562112089,36.1386219991853,5.0990195135927845,8.246211251235321,11.180339887498947,11.180339887498947,9.486832980505138,32.7566787083184,24.515301344262525,19.0,15.0,24.0,10.5,12.5,2.5,4.5,3.1622776601683795,3.1622776601683795,3.5,22.0,8.0,16.76305461424021,{}
283,532,10.04987562112089,36.87817782917155,6.324555320336759,7.071067811865476,10.198039027185567,11.180339887498947,10.44030650891055,33.734255586866,26.68332812825267,21.0,16.0,24.0,10.0,13.0,4.0,4.0,4.123105625617661,3.1622776601683795,3.5,21.0,8.0,16.76305461424021,{}
284,533,5.0990195135927845,38.07886552931954,5.0990195135927845,8.06225774829855,11.180339887498947,12.36931687685298,10.770329614269007,28.861739379323623,20.8806130178211,17.5,13.0,22.0,7.5,10.5,0.5,1.5,3.1622776601683795,3.1622776601683795,3.0,21.0,7.0,16.76305461424021,{}
285,534,7.071067811865476,38.07886552931954,4.123105625617661,8.06225774829855,10.198039027185567,12.36931687685298,10.770329614269007,29.8328677803526,21.840329667841555,17.5,13.0,22.0,7.5,11.5,1.5,2.5,3.1622776601683795,3.1622776601683795,3.0,21.0,8.0,17.08800749063506,{}
286,535,4.123105625617661,38.07886552931954,4.123105625617661,7.071067811865476,11.40175425099138,11.180339887498947,10.44030650891055,25.70992026436488,18.68154169226941,16.0,12.0,21.0,6.5,8.5,0.5,1.5,3.1622776601683795,3.605551275463989,3.5,21.0,7.0,18.027756377319943,{}
287,536,2.23606797749979,38.8329756778952,5.0990195135927845,7.071067811865476,11.40175425099138,11.180339887498947,10.44030650891055,24.73863375370596,17.72004514666935,16.0,13.0,21.0,7.0,7.0,2.0,1.0,3.1622776601683795,4.123105625617661,3.5,21.0,8.0,16.76305461424021,{}
288,537,2.0,39.81205847478876,4.123105625617661,7.280109889280518,11.40175425099138,12.36931687685298,11.180339887498947,24.515301344262525,17.26267650163207,16.0,12.0,20.0,5.0,8.0,0.0,0.0,3.1622776601683795,3.1622776601683795,3.5,21.0,9.0,17.72004514666935,{}
289,538,2.0,39.81205847478876,4.123105625617661,7.280109889280518,11.40175425099138,12.36931687685298,11.180339887498947,24.515301344262525,17.26267650163207,16.0,12.0,20.0,5.0,8.0,0.0,0.0,3.1622776601683795,3.1622776601683795,3.5,21.0,9.0,17.72004514666935,{}
290,539,3.0,39.81205847478876,3.1622776601683795,6.324555320336759,11.180339887498947,12.16552506059644,11.40175425099138,23.769728648009423,17.46424919657298,15.5,12.0,20.0,5.0,7.0,1.0,1.0,3.1622776601683795,4.123105625617661,3.5,21.0,9.0,16.76305461424021,{}
291,540,2.23606797749979,39.81205847478876,4.123105625617661,7.071067811865476,12.36931687685298,12.16552506059644,11.180339887498947,24.515301344262525,17.46424919657298,16.0,13.0,21.0,6.0,7.0,1.0,1.0,3.1622776601683795,4.123105625617661,4.0,20.0,8.0,17.46424919657298,{}
292,541,2.23606797749979,40.79215610874228,4.123105625617661,7.071067811865476,11.180339887498947,11.180339887498947,11.180339887498947,24.515301344262525,17.46424919657298,16.0,12.0,20.0,5.0,8.0,0.0,0.0,3.1622776601683795,4.0,3.5,20.0,8.0,18.027756377319943,{}
293,542,2.23606797749979,40.024992192379,4.123105625617661,7.071067811865476,11.180339887498947,12.16552506059644,11.180339887498947,24.515301344262525,17.46424919657298,16.0,12.0,21.0,5.5,7.5,0.5,0.5,3.1622776601683795,4.123105625617661,3.5,21.0,9.0,16.76305461424021,{}
294,543,2.0,40.79215610874228,4.123105625617661,6.082762530298219,11.180339887498947,12.16552506059644,10.44030650891055,22.56102834535696,16.492422502470642,15.0,11.0,19.0,5.0,7.0,1.0,0.0,3.1622776601683795,4.123105625617661,4.0,20.0,9.0,16.76305461424021,{}
295,544,4.123105625617661,41.0,4.123105625617661,8.06225774829855,11.180339887498947,11.180339887498947,10.44030650891055,26.68332812825267,18.68154169226941,16.0,11.0,20.0,5.5,10.5,0.5,0.5,3.1622776601683795,3.0,3.5,20.0,9.0,16.76305461424021,{}
296,545,7.0,37.65634076752546,4.123105625617661,7.071067811865476,11.180339887498947,12.16552506059644,10.44030650891055,28.442925306655784,21.37755832643195,17.5,14.0,21.0,7.5,10.5,1.5,2.5,4.123105625617661,4.123105625617661,4.0,21.0,10.0,17.72004514666935,{}
297,546,5.0,38.63935817272331,5.0990195135927845,8.246211251235321,11.180339887498947,12.16552506059644,10.44030650891055,28.635642126552707,20.39607805437113,17.5,14.0,21.0,7.5,10.5,0.5,2.5,3.1622776601683795,4.123105625617661,4.0,21.0,11.0,17.72004514666935,{}
298,547,5.0,37.65634076752546,5.0990195135927845,8.06225774829855,12.16552506059644,12.16552506059644,8.246211251235321,26.30589287593181,18.24828759089466,15.5,13.0,20.0,8.5,9.5,0.5,2.5,3.1622776601683795,4.123105625617661,4.0,21.0,12.0,18.43908891458577,{}
299,548,2.0,37.21558813185679,6.082762530298219,9.055385138137416,10.04987562112089,11.04536101718726,7.280109889280518,24.33105012119288,15.297058540778355,14.0,14.0,18.0,9.0,8.0,2.0,3.0,5.0990195135927845,4.0,4.0,24.0,13.0,22.36067977499789,{}
300,549,3.0,40.311288741492746,6.082762530298219,8.06225774829855,11.04536101718726,11.04536101718726,7.071067811865476,24.186773244895647,16.1245154965971,14.5,14.0,19.0,9.5,7.5,2.5,3.5,4.123105625617661,4.123105625617661,4.0,24.0,14.0,22.56102834535696,{}
301,550,3.0,41.19465984809196,5.0990195135927845,9.055385138137416,12.16552506059644,12.041594578792296,8.06225774829855,25.179356624028344,16.1245154965971,14.5,16.0,20.0,10.0,7.0,3.0,4.0,4.0,4.123105625617661,4.5,25.0,14.0,22.56102834535696,{}
302,551,4.123105625617661,40.311288741492746,5.0,8.0,9.055385138137416,10.04987562112089,9.219544457292889,26.1725046566048,18.24828759089466,16.0,17.0,22.0,10.5,6.5,2.5,4.5,4.123105625617661,5.0,5.0,24.0,13.0,24.515301344262525,{}
303,552,1.4142135623730951,40.44749683231337,5.0990195135927845,9.055385138137416,12.16552506059644,12.16552506059644,9.219544457292889,24.515301344262525,15.524174696260024,14.5,15.0,21.0,9.0,6.0,4.0,3.0,3.1622776601683795,3.1622776601683795,3.5,23.0,12.0,23.345235059857504,{}
304,553,1.4142135623730951,38.07886552931954,7.071067811865476,10.04987562112089,12.36931687685298,12.16552506059644,10.04987562112089,28.284271247461906,18.24828759089466,17.5,16.0,25.0,10.5,7.5,4.5,2.5,2.23606797749979,3.605551275463989,3.0,23.0,13.0,24.33105012119288,{}
305,554,1.4142135623730951,38.07886552931954,7.071067811865476,10.04987562112089,12.36931687685298,12.16552506059644,10.04987562112089,28.284271247461906,18.24828759089466,17.5,16.0,25.0,10.5,7.5,4.5,2.5,2.23606797749979,3.605551275463989,3.0,23.0,13.0,24.33105012119288,{}
306,555,2.23606797749979,37.8549864614954,5.0990195135927845,9.055385138137416,12.36931687685298,12.36931687685298,11.04536101718726,27.29468812791236,18.24828759089466,17.0,16.0,24.0,9.0,7.0,4.0,3.0,3.1622776601683795,3.605551275463989,3.5,22.0,11.0,22.56102834535696,{}
307,556,2.23606797749979,40.024992192379,5.0990195135927845,7.280109889280518,12.16552506059644,13.341664064126334,11.04536101718726,25.495097567963924,18.24828759089466,17.0,13.0,22.0,6.5,7.5,1.5,0.5,3.0,4.123105625617661,4.0,22.0,13.0,23.194827009486403,{}
308,557,2.0,40.60788100849391,5.0990195135927845,7.280109889280518,12.36931687685298,13.152946437965904,11.04536101718726,25.317977802344327,18.110770276274835,17.0,14.0,21.0,6.5,7.5,1.5,0.5,4.123105625617661,3.1622776601683795,3.5,22.0,13.0,22.20360331117452,{}
309,558,2.23606797749979,41.77319714841085,5.0990195135927845,7.071067811865476,13.341664064126334,13.152946437965904,12.041594578792296,26.30589287593181,19.235384061671343,18.0,15.0,23.0,7.0,7.0,2.0,1.0,3.1622776601683795,4.123105625617661,4.0,21.0,12.0,24.186773244895647,{}
310,559,1.4142135623730951,40.79215610874228,5.0990195135927845,8.06225774829855,13.341664064126334,13.152946437965904,11.04536101718726,25.317977802344327,17.26267650163207,16.5,13.0,21.0,6.0,8.0,2.0,0.0,3.1622776601683795,3.0,3.5,22.0,13.0,22.20360331117452,{}
311,560,1.4142135623730951,42.7551166528639,4.0,7.071067811865476,13.341664064126334,13.152946437965904,12.16552506059644,24.33105012119288,17.26267650163207,16.5,12.0,20.0,4.0,8.0,0.0,1.0,3.0,4.123105625617661,4.0,20.0,11.0,22.36067977499789,{}
312,561,1.4142135623730951,39.45883931389772,5.0,7.071067811865476,11.180339887498947,12.041594578792296,11.04536101718726,24.186773244895647,17.11724276862369,16.5,14.0,20.0,6.0,7.0,2.0,0.0,3.1622776601683795,4.123105625617661,4.0,20.0,12.0,20.39607805437113,{}
313,562,1.4142135623730951,39.45883931389772,5.0,7.071067811865476,11.180339887498947,12.041594578792296,11.04536101718726,24.186773244895647,17.11724276862369,16.5,14.0,20.0,6.0,7.0,2.0,0.0,3.1622776601683795,4.123105625617661,4.0,20.0,12.0,20.39607805437113,{}
314,563,1.0,39.6232255123179,5.0990195135927845,7.071067811865476,11.180339887498947,12.16552506059644,11.04536101718726,23.345235059857504,16.278820596099706,16.0,14.0,21.0,6.5,5.5,2.5,0.5,3.0,4.123105625617661,4.0,20.0,12.0,21.37755832643195,{}
315,564,1.4142135623730951,39.6232255123179,5.0,6.082762530298219,11.180339887498947,12.041594578792296,10.04987562112089,22.20360331117452,16.1245154965971,15.5,13.0,20.0,6.5,5.5,2.5,0.5,3.1622776601683795,3.1622776601683795,3.5,20.0,11.0,21.37755832643195,{}
316,565,1.0,40.60788100849391,5.0,7.071067811865476,12.16552506059644,12.16552506059644,11.180339887498947,23.345235059857504,16.278820596099706,16.0,13.0,20.0,5.5,6.5,2.5,0.5,3.1622776601683795,4.123105625617661,4.0,18.0,10.0,20.223748416156685,{}
317,566,1.0,41.77319714841085,5.0,7.071067811865476,12.36931687685298,13.152946437965904,11.180339887498947,23.345235059857504,16.278820596099706,16.0,13.0,21.0,6.0,6.0,3.0,0.0,3.1622776601683795,4.123105625617661,4.0,18.0,10.0,20.223748416156685,{}
318,567,0.0,41.593268686170845,5.0990195135927845,7.071067811865476,12.16552506059644,13.152946437965904,11.04536101718726,23.194827009486403,16.1245154965971,16.0,13.0,20.0,5.5,6.5,2.5,0.5,3.1622776601683795,4.123105625617661,4.0,19.0,10.0,19.4164878389476,{}
319,568,3.1622776601683795,30.26549190084312,4.0,7.071067811865476,8.06225774829855,9.055385138137416,7.0,21.095023109728988,14.0356688476182,12.5,17.0,13.0,8.0,6.0,1.0,4.0,1.4142135623730951,2.23606797749979,1.5,8.0,12.0,15.033296378372908,{}
320,569,3.1622776601683795,27.16615541441225,3.0,5.0,8.06225774829855,8.06225774829855,8.0,19.026297590440446,14.0356688476182,12.5,16.0,13.0,6.5,4.5,1.5,4.5,1.0,2.0,1.5,9.0,13.0,14.142135623730953,{}
321,570,3.1622776601683795,28.16025568065745,3.0,6.082762530298219,8.0,9.055385138137416,8.0,20.09975124224178,14.0356688476182,12.5,16.0,13.0,6.5,5.5,0.5,3.5,1.4142135623730951,2.23606797749979,2.0,9.0,13.0,14.0356688476182,{}
322,571,3.1622776601683795,28.0713376952364,3.0,4.0,8.06225774829855,8.06225774829855,8.0,18.027756377319943,14.0356688476182,12.5,15.0,13.0,6.0,4.0,0.0,4.0,2.23606797749979,2.0,2.0,9.0,13.0,14.142135623730953,{}
323,572,3.1622776601683795,28.0713376952364,4.0,5.0990195135927845,8.06225774829855,9.055385138137416,8.0,20.09975124224178,15.033296378372908,13.5,15.0,13.0,6.0,6.0,0.0,3.0,2.23606797749979,2.0,2.0,10.0,12.0,13.038404810405298,{}
324,573,1.4142135623730951,27.073972741361768,4.0,6.0,8.06225774829855,9.0,7.071067811865476,18.110770276274835,12.16552506059644,11.5,15.0,13.0,7.0,4.0,2.0,3.0,1.4142135623730951,1.0,1.0,10.0,12.0,14.0356688476182,{}
325,574,1.4142135623730951,27.073972741361768,4.0,6.0,8.06225774829855,9.0,7.071067811865476,18.110770276274835,12.16552506059644,11.5,15.0,13.0,7.0,4.0,2.0,3.0,1.4142135623730951,1.0,1.0,10.0,12.0,14.0356688476182,{}
326,575,2.23606797749979,27.018512172212592,4.0,6.082762530298219,8.0,9.055385138137416,7.0,19.1049731745428,13.038404810405298,12.0,14.0,13.0,6.5,5.5,0.5,2.5,1.4142135623730951,1.0,1.5,10.0,12.0,13.0,{}
327,576,2.0,26.0768096208106,3.0,5.0990195135927845,8.0,8.06225774829855,8.06225774829855,18.110770276274835,13.038404810405298,12.0,14.0,12.0,5.0,5.0,1.0,2.0,1.0,1.0,1.0,9.0,11.0,14.0,{}
328,577,1.0,26.0768096208106,3.0,6.082762530298219,8.0,9.055385138137416,8.06225774829855,18.110770276274835,12.041594578792296,11.5,15.0,13.0,6.0,4.0,2.0,3.0,2.23606797749979,1.0,1.5,10.0,11.0,14.0,{}
329,578,1.0,26.0768096208106,3.0,6.082762530298219,8.0,9.055385138137416,8.06225774829855,18.110770276274835,12.041594578792296,11.5,15.0,13.0,6.0,4.0,2.0,3.0,2.23606797749979,1.0,1.5,10.0,11.0,14.0,{}
330,579,2.0,28.0713376952364,3.0,6.082762530298219,9.055385138137416,9.055385138137416,7.071067811865476,18.110770276274835,12.041594578792296,11.0,14.0,12.0,6.0,5.0,1.0,3.0,1.4142135623730951,1.0,1.5,10.0,11.0,14.0,{}
331,580,1.0,28.0178514522438,4.0,6.0,8.0,9.055385138137416,7.0,17.029386365926403,11.04536101718726,11.0,13.0,12.0,5.5,4.5,1.5,2.5,1.4142135623730951,2.0,1.5,10.0,10.0,13.0,{}
332,581,1.0,28.0178514522438,4.0,7.0,9.0,10.04987562112089,7.071067811865476,18.0,11.0,11.0,14.0,13.0,6.5,4.5,2.5,3.5,2.23606797749979,2.0,2.0,11.0,11.0,14.0356688476182,{}
333,582,1.0,28.0178514522438,3.0,6.082762530298219,9.0,9.055385138137416,8.0,18.027756377319943,12.0,11.5,14.0,13.0,5.5,4.5,1.5,2.5,2.0,2.0,2.0,11.0,11.0,13.038404810405298,{}
334,583,1.4142135623730951,28.0,4.0,5.0,8.0,9.0,8.0,18.027756377319943,13.038404810405298,12.5,12.0,12.0,4.0,6.0,0.0,1.0,1.4142135623730951,2.23606797749979,1.5,11.0,11.0,14.0,{}
335,584,1.0,27.018512172212592,3.0,6.082762530298219,8.0,8.0,8.0,18.027756377319943,12.0,11.5,12.0,13.0,4.5,5.5,1.5,1.5,1.4142135623730951,2.23606797749979,1.5,12.0,11.0,13.038404810405298,{}
336,585,2.0,27.0,3.0,5.0,7.071067811865476,8.06225774829855,8.0,18.0,13.0,12.0,12.0,12.0,4.0,6.0,0.0,1.0,1.0,2.0,1.5,12.0,11.0,11.180339887498947,{}
337,586,2.0,27.0,3.0,5.0,7.071067811865476,8.06225774829855,8.0,18.0,13.0,12.0,12.0,12.0,4.0,6.0,0.0,1.0,1.0,2.0,1.5,12.0,11.0,11.180339887498947,{}
338,587,2.0,28.0178514522438,4.0,6.0,7.071067811865476,9.0,7.071067811865476,19.026297590440446,13.038404810405298,12.0,11.0,12.0,4.5,7.5,1.5,0.5,1.0,2.23606797749979,2.0,14.0,11.0,11.04536101718726,{}
339,588,3.1622776601683795,25.079872407968907,3.1622776601683795,6.082762530298219,7.0,8.0,7.071067811865476,19.1049731745428,13.038404810405298,11.5,11.0,13.0,5.0,7.0,1.0,2.0,2.0,2.0,2.5,13.0,10.0,11.04536101718726,{}
340,589,3.0,26.019223662515376,3.0,6.0,8.0,9.055385138137416,8.06225774829855,20.024984394500787,14.0356688476182,12.5,13.0,14.0,5.5,6.5,0.5,2.5,2.0,2.0,2.0,14.0,11.0,13.038404810405298,{}
341,590,3.0,26.019223662515376,3.0,6.0,8.0,9.055385138137416,8.06225774829855,20.024984394500787,14.0356688476182,12.5,13.0,14.0,5.5,6.5,0.5,2.5,2.0,2.0,2.0,14.0,11.0,13.038404810405298,{}
342,591,2.0,26.0768096208106,3.1622776601683795,6.0,8.0,8.0,9.0,20.024984394500787,14.0356688476182,13.0,12.0,14.0,4.0,7.0,0.0,1.0,1.0,1.4142135623730951,1.5,13.0,11.0,13.038404810405298,{}
343,592,3.0,26.019223662515376,3.0,5.0,7.0,8.0,8.0,19.0,14.0,12.5,12.0,13.0,4.5,6.5,1.5,1.5,1.4142135623730951,1.0,1.5,12.0,10.0,12.041594578792296,{}
344,593,2.0,26.019223662515376,3.0,5.0,7.0,8.0,9.055385138137416,19.026297590440446,14.0356688476182,13.0,12.0,13.0,3.5,6.5,1.5,1.5,2.0,2.0,2.0,13.0,10.0,12.16552506059644,{}
345,594,3.0,25.019992006393608,2.0,5.0,7.0,7.0,9.055385138137416,19.026297590440446,14.0356688476182,12.5,12.0,13.0,3.5,6.5,0.5,1.5,2.0,1.0,1.0,12.0,10.0,12.16552506059644,{}
346,595,1.4142135623730951,26.0,3.0,4.123105625617661,7.071067811865476,8.0,9.055385138137416,17.029386365926403,13.0,12.5,13.0,13.0,4.0,4.0,0.0,2.0,1.0,2.0,1.5,12.0,10.0,10.04987562112089,{}
347,596,2.0,27.0,3.0,5.0,7.0,7.0,8.06225774829855,18.027756377319943,13.038404810405298,12.0,12.0,12.0,4.0,6.0,1.0,2.0,2.0,1.0,1.5,13.0,10.0,12.041594578792296,{}
348,597,1.0,27.018512172212592,3.0,5.0,7.0,8.0,9.055385138137416,18.027756377319943,13.038404810405298,12.5,13.0,14.0,4.5,4.5,0.5,1.5,1.0,2.23606797749979,2.0,12.0,10.0,11.04536101718726,{}
349,598,1.0,27.018512172212592,3.0,5.0,7.0,8.0,9.055385138137416,18.027756377319943,13.038404810405298,12.5,13.0,14.0,4.5,4.5,0.5,1.5,1.0,2.23606797749979,2.0,12.0,10.0,11.04536101718726,{}
350,599,2.0,26.0768096208106,3.0,5.0,7.0,8.0,8.06225774829855,18.027756377319943,13.038404810405298,12.0,11.0,13.0,4.0,6.0,1.0,1.0,1.0,1.4142135623730951,1.5,12.0,10.0,12.16552506059644,{}
351,600,1.0,26.019223662515376,4.0,5.0,7.0,7.0,8.06225774829855,18.027756377319943,13.038404810405298,12.5,12.0,13.0,4.5,5.5,0.5,1.5,2.0,1.0,1.5,13.0,10.0,12.16552506059644,{}
352,601,2.0,26.0,2.0,4.0,7.0,8.0,9.055385138137416,17.029386365926403,13.038404810405298,12.0,12.0,12.0,3.0,5.0,0.0,1.0,1.0,1.0,1.5,13.0,10.0,12.16552506059644,{}
353,602,2.0,26.0,2.0,4.0,7.0,8.0,9.055385138137416,17.029386365926403,13.038404810405298,12.0,12.0,12.0,3.0,5.0,0.0,1.0,1.0,1.0,1.5,13.0,10.0,12.16552506059644,{}
354,603,1.0,27.018512172212592,3.0,5.0,7.0,8.0,8.06225774829855,17.029386365926403,12.041594578792296,11.5,12.0,13.0,4.5,4.5,0.5,1.5,1.0,1.0,1.5,13.0,10.0,11.180339887498947,{}
355,604,2.23606797749979,26.019223662515376,3.0,4.123105625617661,6.0,7.0,9.055385138137416,18.027756377319943,14.0,13.0,12.0,13.0,3.5,5.5,0.5,1.5,2.0,1.0,1.5,13.0,10.0,11.180339887498947,{}
356,605,1.0,27.018512172212592,3.0,4.123105625617661,7.0,8.0,9.055385138137416,17.11724276862369,13.038404810405298,12.5,12.0,13.0,3.5,4.5,0.5,1.5,1.0,1.0,1.5,12.0,9.0,12.041594578792296,{}
357,606,3.0,27.0,2.0,5.0990195135927845,7.0,8.06225774829855,9.055385138137416,19.1049731745428,14.0356688476182,12.5,12.0,12.0,3.0,7.0,1.0,1.0,2.0,1.4142135623730951,1.5,13.0,10.0,12.041594578792296,{}
358,607,5.0,27.073972741361768,2.0,4.0,7.0,8.06225774829855,9.219544457292889,20.09975124224178,16.1245154965971,13.5,12.0,14.0,4.0,7.0,2.0,2.0,2.0,1.4142135623730951,1.5,12.0,10.0,12.041594578792296,{}
359,608,3.0,27.018512172212592,3.0,6.0,8.0,8.0,9.219544457292889,21.095023109728988,15.132745950421556,13.5,12.0,13.0,3.5,8.5,2.5,0.5,2.0,2.23606797749979,2.0,12.0,10.0,12.041594578792296,{}
360,609,4.0,27.018512172212592,3.1622776601683795,5.0,8.0,9.0,7.280109889280518,19.235384061671343,14.317821063276352,12.0,11.0,12.0,4.5,7.5,1.5,1.5,2.0,2.0,2.0,13.0,11.0,13.038404810405298,{}
361,610,4.0,27.018512172212592,3.1622776601683795,5.0,8.0,9.0,7.280109889280518,19.235384061671343,14.317821063276352,12.0,11.0,12.0,4.5,7.5,1.5,1.5,2.0,2.0,2.0,13.0,11.0,13.038404810405298,{}
362,611,3.0,28.0178514522438,3.0,5.0,8.0,9.0,8.246211251235321,19.1049731745428,14.142135623730953,12.5,11.0,12.0,3.5,7.5,1.5,0.5,2.0,2.0,2.0,13.0,11.0,13.038404810405298,{}
363,612,3.0,27.073972741361768,3.1622776601683795,6.082762530298219,7.071067811865476,8.06225774829855,9.055385138137416,21.213203435596427,15.132745950421556,13.5,11.0,13.0,3.0,9.0,2.0,0.0,1.0,2.23606797749979,2.0,12.0,10.0,13.038404810405298,{}
364,613,7.0,27.073972741361768,2.23606797749979,6.082762530298219,7.0,8.06225774829855,8.54400374531753,23.53720459187964,17.46424919657298,13.5,10.0,12.0,3.0,12.0,5.0,1.0,2.23606797749979,2.23606797749979,2.0,12.0,11.0,12.041594578792296,{}
365,614,7.0,27.073972741361768,2.23606797749979,6.082762530298219,7.0,8.06225774829855,8.54400374531753,23.53720459187964,17.46424919657298,13.5,10.0,12.0,3.0,12.0,5.0,1.0,2.23606797749979,2.23606797749979,2.0,12.0,11.0,12.041594578792296,{}
366,615,9.055385138137416,27.018512172212592,3.0,6.0,7.0,8.0,7.615773105863909,25.317977802344327,19.4164878389476,14.5,12.0,13.0,5.5,12.5,5.5,2.5,1.0,2.23606797749979,1.5,12.0,11.0,12.041594578792296,{}
367,616,6.082762530298219,28.0178514522438,2.0,5.0,7.0,8.06225774829855,9.486832980505138,22.36067977499789,17.46424919657298,14.0,11.0,12.0,2.5,10.5,4.5,0.5,2.0,2.0,2.0,13.0,11.0,12.041594578792296,{}
368,617,5.0,27.018512172212592,3.1622776601683795,5.0990195135927845,8.06225774829855,8.0,9.219544457292889,22.36067977499789,17.26267650163207,14.5,12.0,13.0,3.5,9.5,3.5,0.5,2.0,2.0,2.0,13.0,11.0,12.041594578792296,{}
369,618,5.0,27.018512172212592,3.1622776601683795,5.0990195135927845,8.06225774829855,8.0,9.219544457292889,22.36067977499789,17.26267650163207,14.5,12.0,13.0,3.5,9.5,3.5,0.5,2.0,2.0,2.0,13.0,11.0,12.041594578792296,{}
370,619,4.0,27.018512172212592,3.1622776601683795,5.0990195135927845,8.0,9.0,9.055385138137416,21.213203435596427,16.1245154965971,14.0,12.0,13.0,3.5,8.5,2.5,0.5,2.0,2.0,2.0,13.0,11.0,13.038404810405298,{}
371,620,2.0,27.018512172212592,3.0,6.082762530298219,8.06225774829855,8.0,9.219544457292889,20.223748416156685,14.142135623730953,13.0,12.0,13.0,3.5,7.5,1.5,0.5,1.0,2.0,2.0,13.0,11.0,12.041594578792296,{}
372,621,2.0,26.0768096208106,4.0,6.082762530298219,8.06225774829855,8.0,8.06225774829855,20.09975124224178,14.0356688476182,13.0,12.0,14.0,5.0,7.0,1.0,1.0,1.0,2.0,2.0,13.0,11.0,12.16552506059644,{}
373,622,4.0,25.079872407968907,3.0,5.0990195135927845,7.0,8.0,8.06225774829855,20.09975124224178,15.033296378372908,13.0,12.0,14.0,5.0,7.0,1.0,2.0,1.0,2.0,2.0,12.0,10.0,12.16552506059644,{}
374,623,2.0,26.019223662515376,3.0,6.0,8.0,9.0,8.06225774829855,19.026297590440446,13.038404810405298,12.0,12.0,13.0,4.5,6.5,0.5,1.5,1.0,1.4142135623730951,1.5,13.0,10.0,12.16552506059644,{}
375,624,1.0,25.179356624028344,3.1622776601683795,5.0,7.071067811865476,7.0,9.0,18.027756377319943,13.038404810405298,12.5,11.0,14.0,3.5,5.5,0.5,0.5,1.4142135623730951,2.0,1.5,12.0,8.0,10.198039027185567,{}
376,625,3.0,24.020824298928627,2.23606797749979,4.0,6.082762530298219,7.071067811865476,8.06225774829855,17.11724276862369,13.152946437965904,11.5,12.0,13.0,4.5,4.5,0.5,1.5,1.0,1.4142135623730951,1.5,13.0,9.0,11.04536101718726,{}
377,626,3.0,24.020824298928627,2.23606797749979,4.0,6.082762530298219,7.071067811865476,8.06225774829855,17.11724276862369,13.152946437965904,11.5,12.0,13.0,4.5,4.5,0.5,1.5,1.0,1.4142135623730951,1.5,13.0,9.0,11.04536101718726,{}
378,627,2.0,24.020824298928627,3.1622776601683795,5.0,6.0,7.071067811865476,8.06225774829855,18.110770276274835,13.152946437965904,12.0,12.0,13.0,4.5,5.5,0.5,1.5,1.0,2.0,1.5,13.0,10.0,11.180339887498947,{}
379,628,1.0,24.020824298928627,3.0,6.0,7.0,7.0,7.071067811865476,17.029386365926403,11.04536101718726,10.5,11.0,12.0,4.5,5.5,0.5,1.5,1.0,2.23606797749979,1.5,14.0,9.0,10.198039027185567,{}
380,629,2.0,21.095023109728988,4.0,6.0,7.071067811865476,7.071067811865476,7.071067811865476,19.026297590440446,13.038404810405298,12.0,14.0,12.0,6.0,6.0,0.0,3.0,4.0,3.0,3.0,12.0,11.0,10.04987562112089,{}
381,630,2.23606797749979,21.02379604162864,4.0,6.0,7.071067811865476,8.06225774829855,8.06225774829855,20.09975124224178,14.142135623730953,13.0,14.0,13.0,5.5,6.5,0.5,2.5,3.0,3.1622776601683795,3.0,12.0,10.0,10.04987562112089,{}
382,631,1.0,22.02271554554524,4.0,6.0,7.071067811865476,7.071067811865476,8.06225774829855,19.026297590440446,13.038404810405298,12.5,14.0,13.0,5.5,5.5,0.5,2.5,3.0,2.0,2.5,12.0,10.0,11.04536101718726,{}
383,632,1.0,23.021728866442675,4.0,6.0,7.071067811865476,7.071067811865476,7.071067811865476,18.027756377319943,12.041594578792296,11.5,12.0,13.0,5.5,5.5,1.5,1.5,2.0,2.0,2.5,14.0,9.0,10.198039027185567,{}
384,633,1.0,23.08679276123039,3.0,5.0,6.082762530298219,7.071067811865476,7.280109889280518,16.1245154965971,11.180339887498947,10.5,10.0,12.0,4.0,5.0,1.0,1.0,1.0,1.4142135623730951,1.0,14.0,10.0,10.198039027185567,{}
385,634,1.0,23.08679276123039,3.0,5.0,6.082762530298219,7.071067811865476,7.280109889280518,16.1245154965971,11.180339887498947,10.5,10.0,12.0,4.0,5.0,1.0,1.0,1.0,1.4142135623730951,1.0,14.0,10.0,10.198039027185567,{}
386,635,1.0,24.020824298928627,3.0,5.0,7.0,7.0,8.06225774829855,17.029386365926403,12.041594578792296,11.5,12.0,13.0,4.5,4.5,1.5,1.5,2.23606797749979,1.0,1.5,13.0,9.0,12.16552506059644,{}
387,636,1.0,27.018512172212592,3.0,6.0,7.0,8.06225774829855,7.0,17.0,11.0,10.5,11.0,12.0,4.5,5.5,1.5,1.5,1.0,1.0,1.5,13.0,10.0,12.16552506059644,{}
388,637,2.23606797749979,27.0,3.0,5.0,8.0,7.0,7.071067811865476,17.0,12.0,11.0,12.0,12.0,5.0,5.0,1.0,2.0,1.0,1.0,1.5,13.0,11.0,12.041594578792296,{}
389,638,2.23606797749979,27.0,3.0,5.0,8.0,7.0,7.071067811865476,17.0,12.0,11.0,12.0,12.0,5.0,5.0,1.0,2.0,1.0,1.0,1.5,13.0,11.0,12.041594578792296,{}
390,639,1.0,25.0,3.0,6.082762530298219,6.082762530298219,7.0,9.055385138137416,19.0,13.038404810405298,12.5,13.0,13.0,4.0,6.0,0.0,1.0,1.4142135623730951,1.0,1.5,12.0,11.0,11.04536101718726,{}
391,640,2.23606797749979,25.0,4.0,6.0,8.0,8.0,8.0,20.024984394500787,14.0356688476182,13.0,14.0,14.0,6.0,6.0,0.0,3.0,1.0,1.0,1.0,10.0,11.0,11.0,{}
392,641,3.0,25.019992006393608,4.123105625617661,5.0990195135927845,8.0,9.0,7.0,19.1049731745428,14.0356688476182,12.5,14.0,13.0,6.5,5.5,0.5,2.5,1.4142135623730951,1.0,1.0,11.0,12.0,12.0,{}
393,642,3.0,26.019223662515376,3.1622776601683795,5.0990195135927845,8.0,9.0,8.0,19.1049731745428,14.0356688476182,12.5,15.0,14.0,6.5,4.5,1.5,3.5,1.0,1.0,1.5,11.0,12.0,12.0,{}
394,643,3.1622776601683795,27.073972741361768,4.0,6.0,9.055385138137416,9.055385138137416,7.0,20.024984394500787,14.0356688476182,12.5,15.0,13.0,7.0,6.0,1.0,4.0,1.4142135623730951,2.0,2.0,10.0,13.0,12.0,{}
395,644,3.1622776601683795,29.27456233660889,3.0,5.0990195135927845,8.06225774829855,9.219544457292889,9.0,20.09975124224178,15.033296378372908,13.5,17.0,13.0,6.0,5.0,0.0,4.0,1.4142135623730951,2.0,2.0,9.0,13.0,13.038404810405298,{}
396,645,3.1622776601683795,28.16025568065745,3.0,5.0990195135927845,8.06225774829855,9.219544457292889,9.0,20.09975124224178,15.033296378372908,13.5,15.0,12.0,4.5,6.5,1.5,2.5,1.4142135623730951,1.4142135623730951,1.0,9.0,13.0,13.038404810405298,{}
397,646,3.1622776601683795,27.29468812791236,3.0,5.0990195135927845,8.06225774829855,9.219544457292889,9.0,20.09975124224178,15.033296378372908,13.5,16.0,12.0,5.0,6.0,1.0,3.0,1.4142135623730951,2.0,1.5,8.0,13.0,13.152946437965904,{}
398,647,2.23606797749979,27.29468812791236,4.123105625617661,6.0,7.071067811865476,8.06225774829855,8.0,20.09975124224178,14.142135623730953,13.0,16.0,12.0,6.0,6.0,0.0,3.0,1.4142135623730951,1.0,1.0,8.0,13.0,14.0356688476182,{}
399,648,3.1622776601683795,29.154759474226505,4.0,6.082762530298219,8.06225774829855,9.055385138137416,8.0,21.095023109728988,15.033296378372908,13.5,16.0,13.0,6.5,6.5,0.5,3.5,1.4142135623730951,1.0,1.0,7.0,13.0,14.142135623730953,{}
400,649,2.23606797749979,29.154759474226505,4.0,6.082762530298219,8.06225774829855,9.055385138137416,8.06225774829855,20.223748416156685,14.142135623730953,13.0,15.0,12.0,5.5,6.5,0.5,2.5,1.4142135623730951,1.0,1.5,7.0,14.0,15.132745950421556,{}
401,650,3.1622776601683795,29.27456233660889,3.0,6.082762530298219,8.0,9.055385138137416,8.06225774829855,20.223748416156685,14.142135623730953,12.5,15.0,11.0,5.0,7.0,1.0,2.0,1.4142135623730951,1.0,1.5,7.0,14.0,14.317821063276352,{}
402,651,2.23606797749979,30.26549190084312,3.0,5.0990195135927845,8.06225774829855,8.06225774829855,9.055385138137416,19.235384061671343,14.142135623730953,13.0,15.0,11.0,4.0,6.0,1.0,2.0,2.0,1.0,1.0,7.0,13.0,14.142135623730953,{}
403,652,1.0,30.26549190084312,4.0,6.082762530298219,9.219544457292889,9.055385138137416,8.06225774829855,18.24828759089466,12.16552506059644,12.0,15.0,11.0,5.0,5.0,1.0,2.0,1.4142135623730951,1.0,1.0,7.0,15.0,13.038404810405298,{}
404,653,1.4142135623730951,28.442925306655784,3.0,5.0990195135927845,8.246211251235321,9.219544457292889,9.219544457292889,18.43908891458577,13.341664064126334,12.5,16.0,11.0,4.5,4.5,0.5,2.5,1.4142135623730951,1.0,1.5,6.0,13.0,15.132745950421556,{}
405,654,1.4142135623730951,28.442925306655784,3.0,5.0990195135927845,8.246211251235321,9.219544457292889,9.219544457292889,18.43908891458577,13.341664064126334,12.5,16.0,11.0,4.5,4.5,0.5,2.5,1.4142135623730951,1.0,1.5,6.0,13.0,15.132745950421556,{}
406,655,1.0,28.284271247461906,4.0,5.0,9.055385138137416,8.06225774829855,8.246211251235321,17.26267650163207,12.36931687685298,12.0,15.0,11.0,5.0,4.0,1.0,2.0,1.4142135623730951,1.4142135623730951,1.5,7.0,14.0,14.142135623730953,{}
407,656,1.0,30.4138126514911,3.1622776601683795,5.0990195135927845,8.06225774829855,9.219544457292889,8.06225774829855,17.26267650163207,12.16552506059644,11.5,15.0,10.0,4.5,4.5,0.5,2.5,1.4142135623730951,1.0,1.5,7.0,15.0,14.142135623730953,{}
408,657,2.0,29.27456233660889,3.1622776601683795,6.082762530298219,9.055385138137416,8.06225774829855,7.0,18.110770276274835,12.041594578792296,11.0,15.0,11.0,6.0,5.0,1.0,3.0,1.4142135623730951,1.0,1.0,9.0,17.0,15.132745950421556,{}
409,658,1.0,29.42787793912432,4.123105625617661,6.082762530298219,9.055385138137416,8.246211251235321,6.0,17.11724276862369,11.04536101718726,10.5,14.0,9.0,5.5,5.5,0.5,2.5,1.4142135623730951,1.4142135623730951,1.5,9.0,17.0,15.132745950421556,{}
410,659,2.23606797749979,28.442925306655784,4.0,7.071067811865476,8.246211251235321,9.219544457292889,8.06225774829855,21.213203435596427,14.142135623730953,13.0,17.0,12.0,6.5,6.5,0.5,3.5,1.4142135623730951,1.0,1.0,11.0,18.0,16.278820596099706,{}
411,660,1.0,29.61418578992169,4.0,4.0,8.06225774829855,8.246211251235321,10.0,18.027756377319943,14.0356688476182,14.0,19.0,13.0,6.0,2.0,2.0,3.0,3.0,2.23606797749979,2.0,14.0,17.0,16.278820596099706,{}
412,661,5.0,28.16025568065745,3.1622776601683795,6.082762530298219,8.06225774829855,8.06225774829855,8.0,22.09072203437452,16.0312195418814,13.5,15.0,12.0,5.5,8.5,2.5,2.5,1.4142135623730951,1.4142135623730951,1.5,13.0,20.0,17.26267650163207,{}
413,662,5.0,28.16025568065745,3.1622776601683795,6.082762530298219,8.06225774829855,8.06225774829855,8.0,22.09072203437452,16.0312195418814,13.5,15.0,12.0,5.5,8.5,2.5,2.5,1.4142135623730951,1.4142135623730951,1.5,13.0,20.0,17.26267650163207,{}
414,663,3.1622776601683795,32.984845004941285,5.0990195135927845,7.071067811865476,9.219544457292889,9.219544457292889,6.0,21.213203435596427,14.142135623730953,12.5,19.0,11.0,9.0,6.0,0.0,5.0,3.1622776601683795,3.1622776601683795,2.5,12.0,19.0,17.26267650163207,{}
415,664,6.082762530298219,30.4138126514911,4.0,6.082762530298219,8.246211251235321,10.198039027185567,7.071067811865476,23.194827009486403,17.11724276862369,14.0,17.0,12.0,7.5,8.5,2.5,4.5,2.23606797749979,2.23606797749979,2.0,12.0,20.0,18.43908891458577,{}
416,665,3.1622776601683795,28.635642126552707,4.123105625617661,7.071067811865476,9.055385138137416,9.219544457292889,8.06225774829855,22.36067977499789,15.297058540778355,13.5,17.0,11.0,6.0,8.0,1.0,3.0,2.23606797749979,2.23606797749979,2.0,12.0,19.0,16.1245154965971,{}
417,666,5.0,29.8328677803526,3.1622776601683795,6.082762530298219,9.219544457292889,10.198039027185567,8.06225774829855,22.20360331117452,16.1245154965971,13.5,18.0,11.0,6.5,7.5,1.5,4.5,3.1622776601683795,2.23606797749979,2.0,10.0,16.0,15.132745950421556,{}
418,667,3.1622776601683795,29.61418578992169,4.0,7.071067811865476,8.246211251235321,10.198039027185567,9.055385138137416,23.194827009486403,16.1245154965971,14.5,19.0,13.0,7.0,7.0,1.0,4.0,2.23606797749979,3.1622776601683795,3.0,11.0,19.0,18.110770276274835,{}
419,668,3.1622776601683795,30.59411708155671,3.0,6.082762530298219,8.246211251235321,9.219544457292889,8.06225774829855,20.223748416156685,14.142135623730953,12.5,16.0,10.0,5.0,7.0,2.0,3.0,3.1622776601683795,3.1622776601683795,3.5,11.0,19.0,18.24828759089466,{}
420,669,3.1622776601683795,30.4138126514911,3.0,6.082762530298219,8.06225774829855,9.055385138137416,10.04987562112089,22.20360331117452,16.1245154965971,14.5,17.0,12.0,4.5,7.5,1.5,2.5,3.1622776601683795,3.1622776601683795,3.5,11.0,19.0,17.26267650163207,{}
421,670,3.1622776601683795,30.4138126514911,3.0,6.082762530298219,8.06225774829855,9.055385138137416,10.04987562112089,22.20360331117452,16.1245154965971,14.5,17.0,12.0,4.5,7.5,1.5,2.5,3.1622776601683795,3.1622776601683795,3.5,11.0,19.0,17.26267650163207,{}
422,671,3.1622776601683795,30.59411708155671,3.0,6.082762530298219,8.246211251235321,9.219544457292889,9.055385138137416,21.213203435596427,15.132745950421556,13.5,17.0,11.0,5.0,7.0,2.0,3.0,3.1622776601683795,3.1622776601683795,3.0,11.0,20.0,16.1245154965971,{}
423,672,1.0,30.4138126514911,4.123105625617661,5.0990195135927845,8.06225774829855,9.219544457292889,9.055385138137416,19.235384061671343,14.142135623730953,13.5,16.0,11.0,4.5,5.5,0.5,1.5,3.1622776601683795,3.1622776601683795,3.5,9.0,18.0,17.11724276862369,{}
424,673,1.4142135623730951,29.61418578992169,4.0,5.0990195135927845,8.06225774829855,9.219544457292889,9.055385138137416,19.235384061671343,14.142135623730953,13.5,17.0,11.0,5.0,5.0,0.0,2.0,3.1622776601683795,3.0,3.0,10.0,19.0,16.1245154965971,{}
425,674,1.4142135623730951,29.61418578992169,4.0,5.0990195135927845,8.06225774829855,9.219544457292889,9.055385138137416,19.235384061671343,14.142135623730953,13.5,17.0,11.0,5.0,5.0,0.0,2.0,3.1622776601683795,3.0,3.0,10.0,19.0,16.1245154965971,{}
426,675,14.0,41.30375285612676,4.123105625617661,6.0,10.04987562112089,11.180339887498947,10.04987562112089,34.0,28.0,21.0,20.0,15.0,7.5,16.5,10.5,4.5,2.0,3.1622776601683795,3.0,12.0,21.0,16.278820596099706,{}
427,676,1.0,28.635642126552707,4.0,6.082762530298219,8.246211251235321,9.219544457292889,8.06225774829855,18.24828759089466,12.16552506059644,12.0,16.0,10.0,5.0,5.0,0.0,2.0,1.4142135623730951,1.4142135623730951,1.5,10.0,18.0,16.1245154965971,{}
428,677,1.0,27.459060435491963,4.0,6.082762530298219,8.06225774829855,9.219544457292889,8.06225774829855,18.24828759089466,12.16552506059644,12.0,15.0,10.0,4.5,5.5,0.5,1.5,1.4142135623730951,2.23606797749979,2.0,10.0,17.0,15.132745950421556,{}
429,678,1.0,27.459060435491963,4.0,6.082762530298219,8.06225774829855,9.219544457292889,8.06225774829855,18.24828759089466,12.16552506059644,12.0,15.0,10.0,4.5,5.5,0.5,1.5,1.4142135623730951,2.23606797749979,2.0,10.0,17.0,15.132745950421556,{}
430,679,1.4142135623730951,29.42787793912432,4.0,6.082762530298219,8.06225774829855,9.219544457292889,8.06225774829855,17.26267650163207,11.180339887498947,11.5,15.0,10.0,4.5,4.5,0.5,1.5,1.4142135623730951,1.0,1.0,10.0,17.0,16.1245154965971,{}
431,680,1.4142135623730951,29.27456233660889,4.0,6.0,9.055385138137416,10.198039027185567,8.06225774829855,19.1049731745428,13.152946437965904,12.5,15.0,11.0,5.0,6.0,0.0,2.0,2.0,2.0,2.0,10.0,16.0,15.033296378372908,{}
432,681,3.1622776601683795,29.27456233660889,4.0,6.082762530298219,8.06225774829855,9.055385138137416,7.0,20.09975124224178,14.0356688476182,12.5,16.0,12.0,7.0,6.0,0.0,3.0,3.1622776601683795,2.0,2.0,11.0,16.0,16.0,{}
433,682,3.0,27.16615541441225,4.0,6.082762530298219,8.06225774829855,9.055385138137416,8.06225774829855,21.095023109728988,15.033296378372908,13.5,16.0,13.0,6.5,6.5,0.5,3.5,2.0,2.23606797749979,2.0,11.0,16.0,17.029386365926403,{}
434,683,3.0,26.0768096208106,3.1622776601683795,5.0,7.071067811865476,8.0,9.0,20.024984394500787,15.033296378372908,13.5,15.0,13.0,5.0,6.0,0.0,3.0,3.1622776601683795,3.1622776601683795,3.0,11.0,15.0,16.0,{}
435,684,5.0,36.22154055254967,4.0,7.071067811865476,11.04536101718726,11.04536101718726,11.180339887498947,27.16615541441225,20.09975124224178,17.5,16.0,20.0,7.0,9.0,1.0,3.0,2.23606797749979,3.1622776601683795,3.0,18.0,10.0,16.492422502470642,{}
436,685,6.0,35.22782990761707,4.123105625617661,6.0,10.04987562112089,11.04536101718726,10.04987562112089,26.0768096208106,20.09975124224178,17.0,16.0,20.0,8.0,8.0,1.0,4.0,3.0,3.1622776601683795,3.0,18.0,11.0,15.524174696260024,{}
437,686,4.0,34.36568055487916,4.123105625617661,8.06225774829855,10.04987562112089,11.04536101718726,12.16552506059644,28.284271247461906,20.223748416156685,18.0,16.0,21.0,6.5,9.5,0.5,2.5,3.0,3.0,3.0,19.0,11.0,15.132745950421556,{}
438,687,2.0,35.22782990761707,5.0,8.06225774829855,10.04987562112089,11.04536101718726,11.180339887498947,26.1725046566048,18.110770276274835,17.0,16.0,20.0,7.0,8.0,0.0,2.0,2.0,2.23606797749979,2.0,18.0,11.0,14.317821063276352,{}
439,688,4.0,35.22782990761707,4.0,6.082762530298219,10.0,11.04536101718726,9.219544457292889,23.194827009486403,17.11724276862369,15.0,14.0,18.0,7.0,7.0,0.0,3.0,3.0,2.23606797749979,2.0,19.0,11.0,15.297058540778355,{}
440,689,4.0,35.22782990761707,4.0,6.082762530298219,10.0,11.04536101718726,9.219544457292889,23.194827009486403,17.11724276862369,15.0,14.0,18.0,7.0,7.0,0.0,3.0,3.0,2.23606797749979,2.0,19.0,11.0,15.297058540778355,{}
441,690,0.0,37.33630940518894,6.082762530298219,9.0,11.180339887498947,11.04536101718726,11.180339887498947,26.1725046566048,17.26267650163207,17.0,15.0,20.0,6.5,8.5,1.5,0.5,2.0,2.23606797749979,2.5,18.0,10.0,16.492422502470642,{}
442,691,5.0,35.12833614050059,4.123105625617661,8.06225774829855,10.04987562112089,11.0,11.180339887498947,28.284271247461906,20.223748416156685,17.5,16.0,19.0,6.5,10.5,1.5,2.5,2.0,3.1622776601683795,2.5,18.0,10.0,16.278820596099706,{}
443,692,8.06225774829855,35.22782990761707,3.0,8.06225774829855,9.055385138137416,11.04536101718726,11.180339887498947,30.26549190084312,22.20360331117452,18.0,16.0,20.0,7.0,12.0,3.0,3.0,2.0,3.605551275463989,2.5,18.0,11.0,15.132745950421556,{}
444,693,8.06225774829855,35.22782990761707,3.0,8.06225774829855,9.055385138137416,11.04536101718726,11.180339887498947,30.26549190084312,22.20360331117452,18.0,16.0,20.0,7.0,12.0,3.0,3.0,2.0,3.605551275463989,2.5,18.0,11.0,15.132745950421556,{}
445,694,8.06225774829855,34.23448553724738,4.0,8.0,11.04536101718726,11.04536101718726,11.180339887498947,31.14482300479488,23.194827009486403,19.0,17.0,21.0,8.0,12.0,3.0,3.0,2.0,2.23606797749979,2.0,18.0,11.0,14.317821063276352,{}
446,695,8.06225774829855,34.23448553724738,4.0,7.0,9.055385138137416,11.04536101718726,11.180339887498947,30.14962686336267,23.194827009486403,19.0,17.0,21.0,8.0,11.0,3.0,4.0,2.0,2.23606797749979,2.5,18.0,11.0,15.297058540778355,{}
447,696,8.0,34.23448553724738,3.1622776601683795,7.071067811865476,10.04987562112089,11.04536101718726,11.180339887498947,29.27456233660889,22.20360331117452,18.0,16.0,20.0,7.0,11.0,2.0,4.0,3.0,3.0,3.0,18.0,11.0,16.278820596099706,{}
448,697,8.0,34.23448553724738,3.1622776601683795,7.071067811865476,10.04987562112089,11.04536101718726,11.180339887498947,29.27456233660889,22.20360331117452,18.0,16.0,20.0,7.0,11.0,2.0,4.0,3.0,3.0,3.0,18.0,11.0,16.278820596099706,{}
449,698,8.0,35.12833614050059,4.123105625617661,8.06225774829855,11.04536101718726,12.16552506059644,11.180339887498947,31.25699921617557,23.194827009486403,19.0,17.0,20.0,7.5,12.5,2.5,3.5,3.1622776601683795,3.0,3.0,18.0,11.0,15.132745950421556,{}
450,699,8.0,34.132096331752024,4.123105625617661,7.071067811865476,10.04987562112089,11.04536101718726,11.04536101718726,30.14962686336267,23.08679276123039,19.0,17.0,20.0,7.5,11.5,2.5,3.5,2.0,2.23606797749979,2.5,18.0,11.0,14.142135623730953,{}
451,700,5.0990195135927845,33.24154027718932,4.0,8.06225774829855,10.04987562112089,10.04987562112089,12.16552506059644,29.27456233660889,21.213203435596427,18.5,16.0,20.0,6.0,11.0,2.0,2.0,3.0,3.1622776601683795,3.0,18.0,11.0,18.24828759089466,{}
452,701,5.0990195135927845,33.24154027718932,4.0,8.06225774829855,10.04987562112089,10.04987562112089,12.16552506059644,29.27456233660889,21.213203435596427,18.5,16.0,20.0,6.0,11.0,2.0,2.0,3.0,3.1622776601683795,3.0,18.0,11.0,18.24828759089466,{}
453,702,4.0,36.12478373637688,5.0,7.0,11.04536101718726,12.041594578792296,12.16552506059644,28.0713376952364,21.095023109728988,19.0,17.0,20.0,6.5,9.5,0.5,1.5,3.0,3.1622776601683795,3.0,18.0,11.0,17.26267650163207,{}
454,703,3.0,35.22782990761707,4.123105625617661,7.071067811865476,9.055385138137416,11.04536101718726,12.16552506059644,26.30589287593181,19.235384061671343,17.5,16.0,20.0,6.0,8.0,0.0,2.0,2.0,2.23606797749979,2.5,18.0,11.0,17.26267650163207,{}
455,704,6.0,35.35533905932738,4.0,7.071067811865476,11.04536101718726,11.04536101718726,12.16552506059644,29.154759474226505,22.09072203437452,19.0,16.0,21.0,6.5,10.5,1.5,2.5,3.0,3.1622776601683795,3.0,19.0,11.0,15.297058540778355,{}
456,705,6.0,35.35533905932738,4.0,7.071067811865476,11.04536101718726,11.04536101718726,12.16552506059644,29.154759474226505,22.09072203437452,19.0,16.0,21.0,6.5,10.5,1.5,2.5,3.0,3.1622776601683795,3.0,19.0,11.0,15.297058540778355,{}
457,706,6.0,35.22782990761707,4.123105625617661,8.06225774829855,10.198039027185567,11.04536101718726,11.180339887498947,29.27456233660889,21.213203435596427,18.0,16.0,20.0,7.0,11.0,2.0,2.0,3.1622776601683795,3.0,3.0,18.0,11.0,16.278820596099706,{}
458,707,4.123105625617661,35.22782990761707,4.123105625617661,7.071067811865476,10.198039027185567,11.180339887498947,11.04536101718726,26.30589287593181,19.235384061671343,17.0,15.0,19.0,6.0,9.0,0.0,2.0,2.23606797749979,2.23606797749979,2.0,19.0,11.0,15.297058540778355,{}
459,708,2.0,35.22782990761707,4.123105625617661,7.071067811865476,11.04536101718726,11.04536101718726,12.041594578792296,25.179356624028344,18.110770276274835,17.0,15.0,19.0,5.0,8.0,1.0,1.0,2.23606797749979,3.1622776601683795,2.5,18.0,11.0,17.26267650163207,{}
460,709,3.0,35.12833614050059,4.123105625617661,8.0,11.04536101718726,11.04536101718726,11.04536101718726,26.0768096208106,18.110770276274835,16.5,16.0,19.0,6.5,8.5,1.5,2.5,2.0,2.23606797749979,2.5,18.0,10.0,17.26267650163207,{}
461,710,3.1622776601683795,34.23448553724738,4.0,8.0,10.198039027185567,10.04987562112089,12.16552506059644,27.16615541441225,19.235384061671343,17.5,15.0,19.0,5.0,10.0,0.0,1.0,3.1622776601683795,2.23606797749979,2.5,19.0,11.0,17.46424919657298,{}
462,711,6.082762530298219,35.35533905932738,4.123105625617661,8.06225774829855,11.04536101718726,12.041594578792296,11.04536101718726,29.27456233660889,21.213203435596427,18.0,15.0,20.0,6.5,11.5,2.5,2.5,2.0,2.23606797749979,2.0,19.0,11.0,14.317821063276352,{}
463,712,4.0,37.48332962798263,3.1622776601683795,7.071067811865476,10.198039027185567,11.180339887498947,11.180339887498947,25.317977802344327,18.24828759089466,16.0,14.0,20.0,6.0,8.0,1.0,2.0,2.0,2.23606797749979,2.0,18.0,9.0,16.492422502470642,{}
464,713,4.0,37.48332962798263,3.1622776601683795,7.071067811865476,10.198039027185567,11.180339887498947,11.180339887498947,25.317977802344327,18.24828759089466,16.0,14.0,20.0,6.0,8.0,1.0,2.0,2.0,2.23606797749979,2.0,18.0,9.0,16.492422502470642,{}
465,714,3.1622776601683795,35.22782990761707,4.0,7.071067811865476,10.04987562112089,10.04987562112089,11.180339887498947,25.317977802344327,18.24828759089466,16.5,16.0,20.0,7.0,7.0,1.0,3.0,2.0,2.8284271247461903,2.0,18.0,9.0,15.297058540778355,{}
466,715,3.0,38.47076812334269,4.123105625617661,7.071067811865476,11.180339887498947,12.16552506059644,10.44030650891055,24.515301344262525,17.46424919657298,15.5,13.0,19.0,6.0,8.0,0.0,2.0,1.4142135623730951,2.23606797749979,2.0,19.0,10.0,17.46424919657298,{}
467,716,6.082762530298219,37.8549864614954,3.1622776601683795,7.071067811865476,10.198039027185567,12.36931687685298,12.36931687685298,28.635642126552707,21.587033144922906,18.0,13.0,21.0,5.0,11.0,2.0,1.0,1.4142135623730951,1.4142135623730951,1.0,21.0,10.0,16.492422502470642,{}
468,717,6.082762530298219,37.8549864614954,3.1622776601683795,7.071067811865476,10.198039027185567,12.36931687685298,12.36931687685298,28.635642126552707,21.587033144922906,18.0,13.0,21.0,5.0,11.0,2.0,1.0,1.4142135623730951,1.4142135623730951,1.0,21.0,10.0,16.492422502470642,{}
469,718,6.0,39.81205847478876,4.123105625617661,8.246211251235321,10.198039027185567,12.16552506059644,10.44030650891055,28.635642126552707,20.39607805437113,17.0,12.0,20.0,6.0,12.0,2.0,1.0,1.0,2.8284271247461903,2.0,20.0,9.0,17.46424919657298,{}
470,719,5.0,38.8329756778952,3.1622776601683795,8.246211251235321,11.180339887498947,12.16552506059644,11.40175425099138,27.65863337187866,19.4164878389476,16.5,12.0,20.0,5.0,11.0,1.0,1.0,2.23606797749979,2.23606797749979,2.0,20.0,9.0,16.492422502470642,{}
471,720,2.23606797749979,39.6232255123179,5.0,7.071067811865476,11.180339887498947,12.16552506059644,10.44030650891055,24.515301344262525,17.46424919657298,16.0,12.0,19.0,5.5,8.5,0.5,0.5,2.23606797749979,2.8284271247461903,2.0,20.0,9.0,17.26267650163207,{}
472,721,2.23606797749979,39.6232255123179,5.0,7.071067811865476,11.180339887498947,12.16552506059644,10.44030650891055,24.515301344262525,17.46424919657298,16.0,12.0,19.0,5.5,8.5,0.5,0.5,2.23606797749979,2.8284271247461903,2.0,20.0,9.0,17.26267650163207,{}
473,722,4.123105625617661,39.6232255123179,4.123105625617661,7.071067811865476,11.180339887498947,12.041594578792296,11.180339887498947,26.476404589747453,19.4164878389476,17.0,13.0,20.0,5.5,9.5,0.5,0.5,1.0,2.23606797749979,2.0,19.0,10.0,16.492422502470642,{}
474,723,3.0,39.45883931389772,4.123105625617661,8.06225774829855,11.180339887498947,13.152946437965904,11.180339887498947,26.30589287593181,18.24828759089466,16.5,13.0,19.0,5.0,10.0,0.0,0.0,1.0,1.4142135623730951,1.5,19.0,10.0,17.46424919657298,{}
475,724,5.0,37.33630940518894,4.123105625617661,8.06225774829855,11.04536101718726,12.16552506059644,11.180339887498947,28.284271247461906,20.223748416156685,17.5,14.0,19.0,5.5,11.5,2.5,1.5,2.0,2.23606797749979,2.0,19.0,10.0,17.46424919657298,{}
476,725,4.0,37.33630940518894,5.0990195135927845,8.06225774829855,11.04536101718726,12.041594578792296,10.198039027185567,27.29468812791236,19.235384061671343,17.0,14.0,19.0,6.5,10.5,0.5,1.5,2.23606797749979,2.23606797749979,2.5,19.0,10.0,17.46424919657298,{}
477,726,6.082762530298219,37.48332962798263,4.0,7.071067811865476,10.04987562112089,12.041594578792296,11.180339887498947,28.284271247461906,21.213203435596427,18.0,14.0,20.0,6.0,11.0,3.0,2.0,2.0,2.23606797749979,2.5,19.0,11.0,16.278820596099706,{}
478,727,7.0,35.510561809129406,4.123105625617661,7.071067811865476,10.04987562112089,11.180339887498947,11.180339887498947,29.27456233660889,22.20360331117452,18.5,15.0,21.0,7.0,11.0,2.0,3.0,2.23606797749979,3.1622776601683795,3.0,19.0,11.0,15.297058540778355,{}
479,728,2.0,34.132096331752024,4.0,8.06225774829855,10.04987562112089,11.04536101718726,11.180339887498947,25.179356624028344,17.11724276862369,16.0,15.0,18.0,5.5,8.5,0.5,1.5,2.0,2.23606797749979,2.5,18.0,12.0,17.11724276862369,{}
480,729,2.0,34.132096331752024,4.0,8.06225774829855,10.04987562112089,11.04536101718726,11.180339887498947,25.179356624028344,17.11724276862369,16.0,15.0,18.0,5.5,8.5,0.5,1.5,2.0,2.23606797749979,2.5,18.0,12.0,17.11724276862369,{}
481,730,2.0,32.14031735997639,4.123105625617661,8.0,9.055385138137416,10.0,11.180339887498947,25.179356624028344,17.26267650163207,16.0,15.0,18.0,5.5,8.5,0.5,1.5,2.0,2.0,2.0,19.0,13.0,16.1245154965971,{}
482,731,5.0,32.14031735997639,4.0,8.06225774829855,9.0,11.04536101718726,11.180339887498947,28.16025568065745,20.09975124224178,17.5,16.0,19.0,6.5,10.5,0.5,2.5,2.23606797749979,3.0,3.0,18.0,13.0,16.1245154965971,{}
483,732,4.0,35.0142828000232,4.0,8.06225774829855,10.0,11.0,10.198039027185567,26.1725046566048,18.110770276274835,16.0,16.0,17.0,6.5,9.5,0.5,2.5,1.0,2.0,2.0,17.0,13.0,15.033296378372908,{}
484,733,4.0,35.0142828000232,4.0,8.06225774829855,10.0,11.0,10.198039027185567,26.1725046566048,18.110770276274835,16.0,16.0,17.0,6.5,9.5,0.5,2.5,1.0,2.0,2.0,17.0,13.0,15.033296378372908,{}
485,734,5.0,35.0142828000232,5.0,7.0,10.0,11.0,10.198039027185567,27.073972741361768,20.09975124224178,17.5,17.0,18.0,7.5,9.5,1.5,2.5,2.0,3.1622776601683795,3.0,16.0,14.0,15.132745950421556,{}
486,735,4.0,33.0,3.0,7.0,11.0,11.0,11.04536101718726,25.019992006393608,18.027756377319943,16.0,17.0,17.0,6.0,8.0,0.0,3.0,3.0,2.0,2.0,16.0,13.0,16.1245154965971,{}
487,736,5.0,34.0,4.0,7.0,10.0,11.0,11.180339887498947,27.073972741361768,20.09975124224178,17.5,17.0,17.0,6.0,10.0,2.0,3.0,3.0,3.0,3.0,15.0,15.0,16.0,{}
488,737,6.0,36.013886210738214,4.0,8.0,11.04536101718726,11.0,10.198039027185567,28.0713376952364,20.09975124224178,17.0,17.0,16.0,6.5,11.5,2.5,3.5,3.0,2.0,2.0,15.0,15.0,16.0,{}
489,738,5.0990195135927845,35.0,4.0,8.0,10.0,11.0,11.180339887498947,28.0178514522438,20.024984394500787,17.5,18.0,18.0,7.0,10.0,1.0,3.0,2.0,2.0,2.0,15.0,15.0,16.0,{}
490,739,3.1622776601683795,36.013886210738214,4.0,7.0,11.0,11.0,12.16552506059644,26.019223662515376,19.026297590440446,17.5,17.0,18.0,5.5,8.5,0.5,2.5,2.0,2.0,2.5,14.0,14.0,18.0,{}
491,740,2.23606797749979,39.0,5.0990195135927845,8.0,10.0,12.0,10.0,25.0,17.0,16.0,16.0,16.0,6.0,9.0,1.0,2.0,2.0,2.0,2.0,14.0,14.0,17.0,{}
492,741,3.1622776601683795,38.01315561749642,5.0,7.0,11.0,11.04536101718726,10.0,25.019992006393608,18.027756377319943,16.5,18.0,17.0,7.5,7.5,0.5,2.5,2.0,3.0,2.5,14.0,14.0,17.0,{}
493,742,3.1622776601683795,38.0,4.0,8.0,11.0,11.0,11.04536101718726,26.0,18.0,16.5,17.0,17.0,6.0,9.0,0.0,2.0,2.0,2.23606797749979,2.0,14.0,13.0,17.029386365926403,{}
494,743,2.23606797749979,37.0,4.0,7.0,11.0,11.0,11.0,24.020824298928627,17.029386365926403,16.0,17.0,17.0,6.0,7.0,1.0,2.0,2.0,2.23606797749979,2.5,15.0,13.0,17.0,{}
495,744,3.0,38.05259518088089,4.0,7.0,11.04536101718726,11.0,12.041594578792296,26.019223662515376,19.026297590440446,17.5,17.0,19.0,6.0,8.0,0.0,2.0,3.0,3.0,3.0,15.0,13.0,18.110770276274835,{}
496,745,3.0,38.05259518088089,4.0,7.0,11.04536101718726,11.0,12.041594578792296,26.019223662515376,19.026297590440446,17.5,17.0,19.0,6.0,8.0,0.0,2.0,3.0,3.0,3.0,15.0,13.0,18.110770276274835,{}
497,746,3.1622776601683795,37.05401462729781,4.0,7.0,10.04987562112089,11.04536101718726,12.041594578792296,26.0,19.0,17.5,17.0,19.0,6.0,8.0,0.0,2.0,3.0,3.0,3.0,15.0,12.0,17.029386365926403,{}
498,747,3.0,37.12142238654117,4.0,7.071067811865476,10.0,11.04536101718726,11.04536101718726,25.0,18.027756377319943,16.5,16.0,19.0,6.5,7.5,0.5,2.5,3.0,3.1622776601683795,2.5,16.0,12.0,18.027756377319943,{}
499,748,4.0,36.12478373637688,4.0,6.0,10.04987562112089,11.04536101718726,12.041594578792296,26.019223662515376,20.024984394500787,18.0,18.0,21.0,7.5,6.5,0.5,2.5,3.0,3.1622776601683795,3.5,15.0,12.0,18.027756377319943,{}
500,749,4.0,36.12478373637688,4.0,6.0,10.04987562112089,11.04536101718726,12.041594578792296,26.019223662515376,20.024984394500787,18.0,18.0,21.0,7.5,6.5,0.5,2.5,3.1622776601683795,4.123105625617661,3.5,15.0,12.0,18.027756377319943,{}
501,750,3.0,37.12142238654117,5.0,7.0,11.04536101718726,11.0,10.0,25.0,18.0,16.5,17.0,20.0,8.5,6.5,1.5,3.5,2.0,2.23606797749979,2.0,15.0,11.0,18.027756377319943,{}
502,751,3.0,39.05124837953327,4.0,7.0,11.04536101718726,12.041594578792296,11.0,25.0,18.0,16.5,18.0,20.0,8.0,6.0,2.0,4.0,2.0,3.0,3.0,15.0,11.0,18.027756377319943,{}
503,752,4.0,38.11823710509184,5.0,7.0,10.04987562112089,11.04536101718726,10.04987562112089,26.019223662515376,19.026297590440446,17.0,17.0,20.0,8.5,7.5,0.5,3.5,2.0,3.0,3.0,16.0,11.0,17.029386365926403,{}
504,753,4.0,38.11823710509184,5.0,7.0,10.04987562112089,11.04536101718726,10.04987562112089,26.019223662515376,19.026297590440446,17.0,17.0,20.0,8.5,7.5,0.5,3.5,2.0,3.0,3.0,16.0,11.0,17.029386365926403,{}
505,754,4.0,39.05124837953327,4.0,7.0,10.0,11.04536101718726,11.04536101718726,26.019223662515376,19.026297590440446,17.0,18.0,20.0,8.0,7.0,1.0,4.0,3.0,3.1622776601683795,3.0,15.0,11.0,18.027756377319943,{}
506,755,4.0,38.11823710509184,4.0,7.0,11.04536101718726,11.04536101718726,10.04987562112089,25.019992006393608,18.027756377319943,16.0,17.0,20.0,8.5,6.5,1.5,4.5,2.0,3.0,3.0,16.0,11.0,17.029386365926403,{}
507,756,4.0,36.12478373637688,4.0,6.0,10.04987562112089,11.04536101718726,10.198039027185567,24.08318915758459,18.110770276274835,16.0,16.0,19.0,7.5,6.5,1.5,3.5,2.0,2.0,2.0,16.0,10.0,18.110770276274835,{}
508,757,3.0,37.21558813185679,5.0990195135927845,6.0,10.04987562112089,11.0,10.04987562112089,24.08318915758459,18.110770276274835,16.5,16.0,20.0,8.0,6.0,1.0,3.0,3.0,3.0,3.0,16.0,10.0,18.24828759089466,{}
509,758,1.0,37.21558813185679,5.0,8.06225774829855,10.198039027185567,11.04536101718726,9.219544457292889,23.194827009486403,15.132745950421556,14.5,16.0,20.0,9.0,5.0,4.0,3.0,4.0,4.0,4.0,16.0,10.0,19.1049731745428,{}
510,759,1.0,38.2099463490856,4.0,7.0,10.04987562112089,11.04536101718726,10.198039027185567,22.09072203437452,15.132745950421556,14.5,15.0,19.0,7.0,5.0,3.0,2.0,3.0,3.0,3.0,17.0,9.0,18.24828759089466,{}
511,760,3.0,35.35533905932738,5.0,8.06225774829855,9.219544457292889,10.198039027185567,12.041594578792296,28.0713376952364,20.024984394500787,18.5,18.0,23.0,8.5,7.5,2.5,2.5,2.0,3.0,3.0,18.0,9.0,18.24828759089466,{}
512,761,3.0,35.35533905932738,5.0,8.06225774829855,9.219544457292889,10.198039027185567,12.041594578792296,28.0713376952364,20.024984394500787,18.5,18.0,23.0,8.5,7.5,2.5,2.5,2.0,3.0,3.0,18.0,9.0,18.24828759089466,{}
513,762,6.0,35.35533905932738,4.0,8.06225774829855,10.198039027185567,11.04536101718726,10.04987562112089,28.0713376952364,20.024984394500787,17.0,16.0,21.0,8.5,9.5,0.5,3.5,3.1622776601683795,2.23606797749979,2.5,18.0,11.0,17.26267650163207,{}
514,763,6.0,35.510561809129406,4.123105625617661,7.0,10.04987562112089,11.04536101718726,10.04987562112089,27.073972741361768,20.09975124224178,17.0,16.0,22.0,9.0,8.0,0.0,5.0,2.0,3.1622776601683795,3.0,18.0,10.0,16.278820596099706,{}
515,764,8.06225774829855,38.47076812334269,4.0,7.0,11.04536101718726,11.04536101718726,10.198039027185567,29.154759474226505,22.20360331117452,18.0,16.0,22.0,9.0,10.0,2.0,5.0,2.0,3.1622776601683795,3.0,17.0,10.0,16.1245154965971,{}
516,765,8.06225774829855,38.47076812334269,4.0,7.0,11.04536101718726,11.04536101718726,10.198039027185567,29.154759474226505,22.20360331117452,18.0,16.0,22.0,9.0,10.0,2.0,5.0,2.0,3.1622776601683795,3.0,17.0,10.0,16.1245154965971,{}
517,766,7.0,38.2099463490856,5.0,7.071067811865476,11.04536101718726,12.041594578792296,9.219544457292889,28.16025568065745,21.095023109728988,17.5,16.0,20.0,9.0,10.0,2.0,4.0,2.0,3.1622776601683795,2.5,17.0,10.0,17.11724276862369,{}
518,767,5.0,36.345563690772494,4.0,7.0,11.04536101718726,11.04536101718726,11.180339887498947,27.073972741361768,20.09975124224178,17.5,16.0,21.0,7.5,8.5,0.5,3.5,2.0,3.0,3.0,16.0,9.0,16.1245154965971,{}
519,768,1.0,37.12142238654117,6.0,8.0,10.04987562112089,11.04536101718726,10.04987562112089,25.019992006393608,17.029386365926403,16.5,16.0,19.0,7.5,7.5,1.5,1.5,3.0,2.23606797749979,2.0,17.0,10.0,17.11724276862369,{}
520,769,1.0,37.12142238654117,6.0,8.0,10.04987562112089,11.04536101718726,10.04987562112089,25.019992006393608,17.029386365926403,16.5,16.0,19.0,7.5,7.5,1.5,1.5,3.0,2.23606797749979,2.0,17.0,10.0,17.11724276862369,{}
521,770,7.0,35.05709628591621,4.0,8.0,10.04987562112089,12.0,9.055385138137416,28.0178514522438,20.024984394500787,16.5,19.0,21.0,11.0,8.0,1.0,6.0,3.0,2.0,2.0,16.0,10.0,17.11724276862369,{}
522,771,6.082762530298219,36.05551275463989,4.123105625617661,6.082762530298219,10.04987562112089,11.0,9.0,25.019992006393608,19.0,16.0,17.0,19.0,9.0,7.0,0.0,5.0,3.0,3.0,3.0,16.0,12.0,17.11724276862369,{}
523,772,1.0,37.01351104664349,5.0,8.0,11.0,11.0,10.0,22.0,14.0,14.5,16.0,17.0,6.5,5.5,3.5,1.5,3.0,3.0,3.0,15.0,11.0,18.027756377319943,{}
524,773,1.0,37.01351104664349,5.0,8.0,11.0,11.0,10.0,22.0,14.0,14.5,16.0,17.0,6.5,5.5,3.5,1.5,3.0,3.0,3.0,15.0,11.0,18.027756377319943,{}
525,774,1.4142135623730951,38.0,5.0990195135927845,8.0,11.0,12.0,10.0,24.0,16.0,15.5,18.0,18.0,8.0,6.0,3.0,3.0,3.1622776601683795,3.0,2.5,15.0,12.0,17.029386365926403,{}
526,775,2.0,35.0,4.0,8.0,10.0,11.0,11.04536101718726,25.019992006393608,17.029386365926403,16.0,18.0,18.0,7.0,7.0,1.0,3.0,3.0,3.0,2.5,15.0,12.0,18.027756377319943,{}
527,776,3.0,35.0142828000232,5.0,7.0,10.0,11.0,11.04536101718726,26.019223662515376,19.026297590440446,17.5,19.0,18.0,7.5,7.5,0.5,3.5,1.0,2.0,2.0,15.0,13.0,18.027756377319943,{}
528,777,2.0,37.0,5.0,8.0,10.04987562112089,11.04536101718726,11.0,26.0,18.0,17.0,18.0,18.0,7.0,8.0,0.0,3.0,2.0,2.0,2.0,15.0,13.0,18.027756377319943,{}
529,778,4.0,36.0,4.0,7.071067811865476,10.0,11.04536101718726,8.0,23.021728866442675,16.0,14.0,16.0,16.0,8.0,7.0,1.0,4.0,2.0,2.0,2.0,14.0,12.0,17.029386365926403,{}
530,779,3.1622776601683795,37.01351104664349,3.0,7.0,10.0,11.0,10.0,23.021728866442675,16.0312195418814,14.5,17.0,16.0,6.5,6.5,0.5,3.5,1.4142135623730951,2.0,2.0,14.0,13.0,18.0,{}
531,780,1.0,40.0,4.0,7.0,11.0,11.0,10.0,21.02379604162864,14.0356688476182,14.0,16.0,16.0,6.0,5.0,2.0,2.0,1.0,2.0,1.5,13.0,12.0,18.027756377319943,{}
