,video_id,frame_seq,gap,time_seconds,m1,m3,m4,m5,m6,m7,m8,m9,m10,m11,m12,m13,m14,m15,m16,m17,e1,e2,e3,b1,b2,b3
0,62,249,1,10.38537500000003,1.0,28.160255680657446,4.123105625617661,6.0,8.06225774829855,9.055385138137417,7.0,18.027756377319946,12.041594578792296,11.5,11.0,14.0,5.5,5.5,1.5,1.5,1.0,2.23606797749979,2.0,13.0,7.0,12.165525060596439
1,62,250,0,10.427083333333364,1.0,26.076809620810597,4.123105625617661,5.0,8.06225774829855,9.055385138137417,6.082762530298219,16.1245154965971,11.180339887498949,10.5,11.0,13.0,6.0,4.0,2.0,2.0,2.0,2.23606797749979,2.0,14.0,8.0,11.180339887498949
2,62,251,0,10.468791666666698,1.0,28.160255680657446,4.123105625617661,6.0,8.06225774829855,9.055385138137417,7.0,18.027756377319946,12.041594578792296,11.5,11.0,14.0,5.5,5.5,1.5,1.5,2.0,2.23606797749979,2.0,13.0,7.0,12.36931687685298
3,62,252,0,10.510500000000032,3.0,26.30589287593181,3.1622776601683795,5.0,7.280109889280518,9.055385138137417,8.06225774829855,19.1049731745428,14.142135623730951,12.5,12.0,16.0,6.0,5.0,1.0,2.0,1.0,2.0,1.5,13.0,8.0,11.045361017187261
4,62,253,0,10.552208333333366,3.1622776601683795,27.16615541441225,4.0,6.0,8.06225774829855,8.06225774829855,7.0710678118654755,20.09975124224178,14.142135623730951,12.5,12.0,15.0,6.5,6.5,0.5,2.5,2.0,2.0,2.0,13.0,8.0,12.165525060596439
5,62,254,0,10.5939166666667,2.0,26.076809620810597,4.0,6.082762530298219,8.06225774829855,9.055385138137417,7.0710678118654755,19.1049731745428,13.038404810405298,12.0,12.0,14.0,6.0,6.0,1.0,2.0,2.0,1.4142135623730951,1.5,12.0,8.0,12.165525060596439
6,62,255,0,10.635625000000037,2.0,27.16615541441225,4.0,6.0,8.06225774829855,9.055385138137417,7.0710678118654755,19.026297590440446,13.038404810405298,12.0,12.0,15.0,6.5,5.5,0.5,2.5,1.0,2.0,2.0,13.0,8.0,12.165525060596439
7,62,256,0,10.677333333333369,2.23606797749979,26.30589287593181,3.0,5.0,7.0710678118654755,8.06225774829855,8.0,18.027756377319946,13.038404810405298,12.0,11.0,15.0,5.0,5.0,1.0,2.0,1.0,1.0,1.5,12.0,8.0,13.152946437965905
8,62,257,0,10.719041666666705,2.23606797749979,26.30589287593181,3.0,5.0,7.0710678118654755,8.06225774829855,8.0,18.027756377319946,13.038404810405298,12.0,11.0,15.0,5.0,5.0,1.0,2.0,1.0,1.0,1.5,12.0,8.0,13.152946437965905
9,62,258,0,10.760750000000035,1.0,27.073972741361768,3.0,6.082762530298219,7.0710678118654755,8.06225774829855,8.06225774829855,18.110770276274835,12.041594578792296,11.5,12.0,14.0,5.0,5.0,2.0,2.0,2.0,2.23606797749979,2.0,13.0,8.0,13.152946437965905
10,62,259,0,10.802458333333371,1.4142135623730951,25.179356624028344,3.1622776601683795,6.082762530298219,8.06225774829855,8.06225774829855,8.06225774829855,18.110770276274835,12.041594578792296,11.5,11.0,14.0,4.5,5.5,1.5,1.5,1.0,2.23606797749979,2.0,14.0,9.0,12.165525060596439
11,62,260,0,10.844166666666704,1.0,24.020824298928627,4.0,5.0,7.0,8.0,8.06225774829855,18.027756377319946,13.038404810405298,12.5,13.0,14.0,5.5,4.5,1.5,1.5,2.0,2.23606797749979,2.0,14.0,9.0,10.44030650891055
12,62,261,0,10.88587500000004,2.0,25.079872407968907,3.0,5.0990195135927845,7.0,8.0,8.06225774829855,18.110770276274835,13.038404810405298,12.0,12.0,14.0,5.0,5.0,1.0,2.0,2.0,2.23606797749979,2.0,14.0,9.0,11.180339887498949
13,62,262,0,10.927583333333374,0.0,24.020824298928627,3.0,6.082762530298219,7.0,8.0,8.246211251235321,17.26267650163207,11.180339887498949,11.0,12.0,13.0,4.5,4.5,2.5,1.5,1.0,1.4142135623730951,1.5,13.0,7.0,11.704699910719626
14,62,263,0,10.969291666666708,2.0,23.345235059857504,3.1622776601683795,6.082762530298219,6.324555320336759,8.246211251235321,8.06225774829855,19.235384061671343,13.152946437965905,12.0,11.0,15.0,5.0,6.0,1.0,1.0,1.0,2.0,2.0,15.0,9.0,11.180339887498949
15,62,264,0,11.011000000000042,1.4142135623730951,24.186773244895647,2.0,4.123105625617661,7.280109889280518,7.0710678118654755,7.0710678118654755,14.317821063276353,10.198039027185569,9.5,10.0,13.0,4.5,2.5,2.5,1.5,2.0,2.0,2.0,15.0,9.0,11.40175425099138
16,62,265,0,11.052708333333376,1.4142135623730951,24.186773244895647,2.0,4.123105625617661,7.280109889280518,7.0710678118654755,7.0710678118654755,14.317821063276353,10.198039027185569,9.5,10.0,13.0,4.5,2.5,2.5,1.5,2.0,2.0,2.0,15.0,9.0,11.40175425099138
17,62,266,0,11.09441666666671,0.0,23.345235059857504,3.0,4.123105625617661,6.082762530298219,7.280109889280518,7.0710678118654755,14.142135623730951,10.04987562112089,10.0,10.0,14.0,5.0,2.0,3.0,2.0,2.23606797749979,2.0,2.5,13.0,7.0,10.44030650891055
18,62,267,0,11.136125000000044,1.0,26.1725046566048,3.0,4.123105625617661,8.06225774829855,8.06225774829855,7.0710678118654755,15.132745950421556,11.045361017187261,10.5,11.0,14.0,5.5,2.5,2.5,2.5,2.0,2.0,2.0,14.0,8.0,9.219544457292887
19,62,268,0,11.177833333333378,3.0,23.08679276123039,3.0,3.1622776601683795,7.0710678118654755,8.0,7.0710678118654755,16.1245154965971,13.038404810405298,11.5,11.0,13.0,5.0,4.0,0.0,2.0,2.0,3.0,3.0,14.0,9.0,11.180339887498949
20,62,269,0,11.219541666666712,2.23606797749979,22.20360331117452,2.0,3.0,6.0,7.0710678118654755,7.0710678118654755,14.142135623730951,11.180339887498949,10.0,10.0,13.0,4.5,2.5,0.5,2.5,2.23606797749979,3.1622776601683795,2.5,14.0,8.0,8.246211251235321
21,62,270,0,11.261250000000048,1.4142135623730951,25.079872407968907,3.0,4.0,7.0710678118654755,7.0,9.055385138137417,17.11724276862369,13.152946437965905,12.5,12.0,14.0,4.0,4.0,0.0,1.0,1.0,1.4142135623730951,1.5,13.0,9.0,10.198039027185569
22,62,271,0,11.30295833333338,4.0,25.0,3.0,4.0,7.0,7.0,7.0710678118654755,18.027756377319946,14.035668847618199,12.0,12.0,12.0,5.0,6.0,1.0,2.0,1.4142135623730951,1.0,1.5,14.0,10.0,12.041594578792296
23,62,272,0,11.344666666666717,2.0,24.020824298928627,4.0,5.0,7.0710678118654755,8.0,7.0710678118654755,18.027756377319946,13.038404810405298,12.0,12.0,13.0,5.5,5.5,0.5,1.5,1.0,1.0,1.5,15.0,11.0,12.041594578792296
24,62,273,0,11.386375000000047,2.0,24.020824298928627,4.0,5.0,7.0710678118654755,8.0,7.0710678118654755,18.027756377319946,13.038404810405298,12.0,12.0,13.0,5.5,5.5,0.5,1.5,1.0,1.0,1.5,15.0,11.0,12.041594578792296
25,62,274,0,11.428083333333385,1.0,27.073972741361768,4.0,7.0710678118654755,8.06225774829855,8.06225774829855,7.0710678118654755,19.1049731745428,12.041594578792296,11.5,11.0,13.0,5.0,7.0,0.0,1.0,2.23606797749979,3.0,2.5,16.0,12.0,13.038404810405298
26,62,275,0,11.469791666666715,2.0,25.179356624028344,3.0,6.082762530298219,7.0710678118654755,8.06225774829855,7.0710678118654755,18.110770276274835,12.041594578792296,11.0,10.0,13.0,4.5,6.5,0.5,1.5,3.0,3.1622776601683795,2.5,15.0,11.0,14.035668847618199
27,62,276,0,11.511500000000051,4.0,26.076809620810597,3.0,5.0990195135927845,7.0,8.06225774829855,7.0710678118654755,19.1049731745428,14.035668847618199,12.0,11.0,13.0,5.0,7.0,1.0,2.0,1.0,1.4142135623730951,1.5,15.0,12.0,14.035668847618199
28,62,277,0,11.553208333333384,4.0,26.076809620810597,3.0,5.0990195135927845,7.0,8.06225774829855,7.0710678118654755,19.1049731745428,14.035668847618199,12.0,11.0,13.0,5.0,7.0,1.0,2.0,1.0,1.4142135623730951,1.5,15.0,12.0,14.035668847618199
29,62,278,0,11.59491666666672,3.0,24.08318915758459,3.0,6.082762530298219,7.0710678118654755,8.06225774829855,7.0710678118654755,19.1049731745428,13.038404810405298,11.5,11.0,13.0,5.0,7.0,1.0,2.0,2.23606797749979,1.0,1.0,16.0,12.0,13.038404810405298
30,62,279,0,11.636625000000054,2.0,27.16615541441225,3.1622776601683795,5.0990195135927845,8.06225774829855,8.06225774829855,7.0710678118654755,17.26267650163207,12.165525060596439,11.0,10.0,13.0,4.5,5.5,0.5,1.5,1.0,2.23606797749979,1.5,15.0,11.0,13.152946437965905
31,62,280,0,11.678333333333388,1.0,26.076809620810597,3.0,6.082762530298219,7.0710678118654755,8.06225774829855,6.082762530298219,16.1245154965971,10.04987562112089,9.5,9.0,11.0,4.0,6.0,0.0,1.0,2.0,3.0,2.5,16.0,11.0,13.152946437965905
32,62,281,0,11.720041666666722,1.0,26.076809620810597,3.0,6.082762530298219,7.0710678118654755,8.06225774829855,6.082762530298219,16.1245154965971,10.04987562112089,9.5,9.0,11.0,4.0,6.0,0.0,1.0,2.0,3.0,2.5,16.0,11.0,13.152946437965905
33,62,282,0,11.761750000000056,1.0,28.071337695236398,3.0,5.0,7.0710678118654755,8.06225774829855,7.0710678118654755,16.0312195418814,11.045361017187261,10.5,9.0,11.0,3.0,6.0,0.0,0.0,1.4142135623730951,2.0,2.0,16.0,11.0,13.152946437965905
34,62,283,0,11.80345833333339,4.0,27.073972741361768,3.1622776601683795,5.0990195135927845,8.06225774829855,9.0,7.0710678118654755,19.235384061671343,14.142135623730951,12.0,10.0,12.0,4.0,8.0,2.0,1.0,2.23606797749979,2.23606797749979,2.5,16.0,11.0,14.142135623730951
35,62,284,0,11.845166666666724,4.0,26.076809620810597,3.0,5.0990195135927845,7.0,8.06225774829855,8.246211251235321,20.223748416156685,15.132745950421556,13.0,11.0,13.0,4.0,8.0,3.0,2.0,1.4142135623730951,2.0,2.0,16.0,12.0,13.038404810405298
36,62,285,0,11.886875000000058,4.0,26.076809620810597,3.0,5.0990195135927845,7.0,8.06225774829855,8.246211251235321,20.223748416156685,15.132745950421556,13.0,11.0,13.0,4.0,8.0,3.0,2.0,1.4142135623730951,2.0,2.0,16.0,12.0,13.038404810405298
37,62,286,0,11.928583333333393,5.0,26.076809620810597,3.0,4.123105625617661,7.0,9.0,7.280109889280518,19.235384061671343,15.132745950421556,12.5,11.0,13.0,5.0,7.0,2.0,2.0,2.0,2.0,2.0,15.0,11.0,13.038404810405298
38,62,287,0,11.970291666666729,4.123105625617661,25.079872407968907,3.0,6.082762530298219,8.0,8.06225774829855,7.280109889280518,20.396078054371138,14.317821063276353,12.0,11.0,13.0,5.0,8.0,2.0,2.0,1.0,1.4142135623730951,1.5,15.0,11.0,13.038404810405298
39,62,288,0,12.01200000000006,3.1622776601683795,26.076809620810597,4.0,6.0,8.06225774829855,9.0,7.280109889280518,20.223748416156685,14.317821063276353,12.5,11.0,13.0,5.0,8.0,2.0,1.0,1.0,2.23606797749979,2.0,14.0,10.0,13.038404810405298
40,62,289,0,12.053708333333397,3.1622776601683795,26.076809620810597,4.0,6.0,8.06225774829855,9.0,7.280109889280518,20.223748416156685,14.317821063276353,12.5,11.0,13.0,5.0,8.0,2.0,1.0,1.0,2.23606797749979,2.0,14.0,10.0,13.038404810405298
41,62,290,0,12.095416666666727,5.0990195135927845,26.076809620810597,3.0,5.0,7.0,9.0,8.246211251235321,21.213203435596427,16.278820596099706,13.5,11.0,13.0,4.0,9.0,3.0,1.0,2.23606797749979,2.23606797749979,2.5,14.0,11.0,12.165525060596439
42,62,291,0,12.137125000000063,5.0,26.019223662515376,4.123105625617661,5.0,8.0,8.0,8.06225774829855,22.090722034374522,17.11724276862369,14.5,13.0,14.0,5.5,8.5,2.5,2.5,2.0,2.23606797749979,2.0,14.0,11.0,12.165525060596439
43,62,292,0,12.178833333333396,3.1622776601683795,26.076809620810597,3.0,4.0,7.0710678118654755,7.0,8.246211251235321,18.24828759089466,14.317821063276353,12.5,11.0,13.0,4.0,6.0,1.0,1.0,2.0,2.0,2.5,13.0,11.0,12.041594578792296
44,62,293,0,12.220541666666731,2.23606797749979,26.019223662515376,2.23606797749979,4.0,7.0,7.0,9.055385138137417,17.26267650163207,13.341664064126334,12.0,12.0,13.0,3.5,4.5,0.5,1.5,2.0,2.0,2.5,14.0,12.0,12.041594578792296
45,62,294,0,12.262250000000066,3.1622776601683795,26.076809620810597,3.0,5.0,7.0710678118654755,7.0710678118654755,8.06225774829855,19.1049731745428,14.142135623730951,12.5,11.0,13.0,4.0,7.0,1.0,1.0,2.23606797749979,2.0,2.0,14.0,12.0,13.152946437965905
46,62,295,0,12.3039583333334,2.0,27.018512172212592,3.0,6.082762530298219,8.06225774829855,9.055385138137417,8.246211251235321,19.235384061671343,13.152946437965905,12.0,12.0,13.0,4.5,6.5,0.5,1.5,3.0,2.23606797749979,2.5,14.0,12.0,13.038404810405298
47,62,296,0,12.345666666666734,2.23606797749979,27.0,4.0,6.0,7.0,8.0,8.06225774829855,20.09975124224178,14.142135623730951,13.0,13.0,13.0,5.0,7.0,1.0,2.0,1.0,1.0,1.5,12.0,11.0,13.0
48,62,297,0,12.387375000000068,2.0,26.019223662515376,3.0,5.0990195135927845,7.0710678118654755,8.0,9.055385138137417,19.1049731745428,14.035668847618199,13.0,12.0,13.0,3.5,6.5,1.5,0.5,1.0,2.0,2.0,12.0,11.0,13.038404810405298
49,62,298,0,12.429083333333402,3.0,28.0,3.0,5.0,7.0,9.0,9.055385138137417,20.024984394500787,15.033296378372908,13.5,14.0,14.0,5.0,6.0,1.0,2.0,2.23606797749979,1.4142135623730951,1.5,12.0,11.0,12.041594578792296
50,62,299,0,12.470791666666736,2.0,28.0,2.0,6.0,7.0,8.0,8.06225774829855,18.027756377319946,12.041594578792296,11.0,12.0,12.0,4.0,6.0,0.0,2.0,2.0,2.0,2.5,12.0,11.0,14.0
51,62,300,0,12.51250000000007,2.0,26.019223662515376,4.0,6.0,8.0,8.0,7.0710678118654755,19.026297590440446,13.038404810405298,12.0,13.0,12.0,5.5,6.5,0.5,1.5,2.0,1.0,1.0,13.0,12.0,11.045361017187261
52,62,301,0,12.554208333333404,2.23606797749979,26.019223662515376,4.123105625617661,5.0,8.0,9.0,8.06225774829855,19.026297590440446,14.035668847618199,13.0,14.0,13.0,5.5,5.5,0.5,2.5,2.23606797749979,1.0,1.5,12.0,11.0,13.038404810405298
53,62,302,0,12.59591666666674,1.0,27.0,4.0,6.0,7.0,8.0,7.0,18.0,12.0,11.5,13.0,13.0,6.0,5.0,1.0,2.0,1.0,2.0,1.5,13.0,13.0,15.0
54,62,303,0,12.637625000000073,5.385164807134504,30.0,3.0,7.0,7.0,8.06225774829855,13.152946437965905,28.284271247461902,21.37755832643195,18.5,19.0,19.0,6.0,9.0,3.0,3.0,2.0,2.0,1.5,15.0,15.0,15.0
55,62,304,0,12.679333333333409,2.0,29.017236257093817,3.0,6.082762530298219,8.0,9.055385138137417,8.0,19.026297590440446,13.0,12.0,14.0,13.0,5.5,5.5,0.5,2.5,2.23606797749979,2.0,2.0,12.0,13.0,14.0
56,62,305,0,12.72104166666674,2.23606797749979,30.01666203960727,3.0,6.0,8.0,8.06225774829855,8.06225774829855,19.0,13.0,12.0,14.0,13.0,5.5,5.5,0.5,2.5,2.0,2.0,1.5,12.0,13.0,14.0
57,62,306,0,12.762750000000077,2.0,28.0178514522438,4.0,6.0,9.0,9.055385138137417,7.0,19.0,13.0,12.0,14.0,13.0,6.5,5.5,1.5,2.5,2.23606797749979,2.0,2.0,12.0,13.0,16.0
58,62,307,0,12.80445833333341,4.123105625617661,27.073972741361768,4.0,5.0990195135927845,8.0,9.055385138137417,6.0,19.1049731745428,14.035668847618199,12.0,14.0,12.0,7.0,6.0,0.0,3.0,2.23606797749979,2.0,2.0,11.0,13.0,13.0
59,62,308,0,12.846166666666743,3.0,27.018512172212592,4.0,6.082762530298219,8.0,9.0,7.0,20.024984394500787,14.0,12.5,14.0,13.0,6.5,6.5,0.5,2.5,2.0,2.0,2.0,11.0,14.0,14.035668847618199
60,62,309,0,12.887875000000076,3.0,27.018512172212592,4.0,6.082762530298219,8.0,9.0,7.0,20.024984394500787,14.0,12.5,14.0,13.0,6.5,6.5,0.5,2.5,2.0,2.0,2.0,11.0,14.0,14.035668847618199
61,62,310,0,12.929583333333412,4.0,27.073972741361768,3.0,5.0990195135927845,8.0,9.0,8.06225774829855,20.09975124224178,15.033296378372908,13.0,15.0,13.0,6.0,6.0,0.0,3.0,2.23606797749979,2.0,2.0,11.0,14.0,14.035668847618199
62,62,311,0,12.971291666666746,3.0,28.160255680657446,4.0,6.082762530298219,9.0,9.0,8.0,21.02379604162864,15.0,13.5,17.0,14.0,7.5,5.5,0.5,3.5,2.23606797749979,2.0,2.0,10.0,14.0,15.132745950421556
63,62,312,0,13.01300000000008,1.0,29.068883707497267,4.0,5.0,8.06225774829855,8.0,8.0,17.029386365926403,12.041594578792296,12.0,14.0,12.0,5.0,4.0,1.0,2.0,2.23606797749979,2.23606797749979,2.0,10.0,14.0,14.035668847618199
64,62,313,0,13.054708333333414,1.0,29.068883707497267,4.0,5.0,8.06225774829855,8.0,8.0,17.029386365926403,12.041594578792296,12.0,14.0,12.0,5.0,4.0,1.0,2.0,2.23606797749979,2.23606797749979,2.0,10.0,14.0,14.035668847618199
65,62,314,0,13.096416666666748,1.4142135623730951,29.274562336608895,4.0,5.0990195135927845,8.06225774829855,9.055385138137417,7.0710678118654755,17.26267650163207,12.165525060596439,11.5,15.0,11.0,6.0,4.0,1.0,2.0,2.23606797749979,2.0,2.0,9.0,14.0,14.035668847618199
66,62,315,0,13.138125000000082,1.4142135623730951,29.427877939124322,4.0,5.0990195135927845,8.06225774829855,8.246211251235321,8.0,16.1245154965971,11.045361017187261,11.5,16.0,11.0,5.5,2.5,2.5,2.5,3.1622776601683795,3.1622776601683795,2.5,8.0,13.0,15.033296378372908
67,62,316,0,13.179833333333416,1.4142135623730951,27.294688127912362,4.0,7.0710678118654755,8.06225774829855,9.055385138137417,8.06225774829855,20.223748416156685,13.152946437965905,12.5,16.0,12.0,6.0,6.0,1.0,3.0,3.1622776601683795,2.23606797749979,2.5,8.0,14.0,15.132745950421556
68,62,317,0,13.22154166666675,2.23606797749979,27.294688127912362,4.0,7.0710678118654755,8.246211251235321,9.055385138137417,8.06225774829855,21.213203435596427,14.142135623730951,13.0,17.0,13.0,7.0,6.0,1.0,4.0,3.1622776601683795,2.23606797749979,2.0,7.0,13.0,15.132745950421556
69,62,318,0,13.263250000000085,1.4142135623730951,28.160255680657446,4.0,5.0990195135927845,8.06225774829855,9.0,8.06225774829855,18.24828759089466,13.152946437965905,12.5,16.0,13.0,6.5,3.5,1.5,2.5,3.1622776601683795,3.1622776601683795,2.5,7.0,13.0,15.033296378372908
70,62,319,0,13.30495833333342,1.4142135623730951,28.160255680657446,5.0,6.082762530298219,8.06225774829855,9.055385138137417,7.0710678118654755,19.235384061671343,13.152946437965905,12.5,15.0,12.0,6.5,5.5,0.5,2.5,2.23606797749979,2.23606797749979,2.0,8.0,14.0,16.1245154965971
71,62,320,0,13.346666666666753,4.123105625617661,29.068883707497267,4.0,6.0,8.0,8.06225774829855,7.0,21.02379604162864,15.033296378372908,13.0,15.0,13.0,7.0,7.0,1.0,3.0,3.1622776601683795,3.1622776601683795,2.5,8.0,13.0,15.033296378372908
72,62,321,0,13.388375000000089,4.123105625617661,28.071337695236398,4.0,6.0,8.06225774829855,8.06225774829855,7.0710678118654755,21.095023109728988,15.132745950421556,13.0,16.0,14.0,8.0,6.0,0.0,4.0,2.23606797749979,2.23606797749979,2.0,8.0,13.0,15.033296378372908
73,62,322,0,13.43008333333342,4.123105625617661,29.068883707497267,3.0,6.0,9.055385138137417,9.055385138137417,8.0,21.02379604162864,15.033296378372908,13.0,16.0,14.0,7.0,6.0,0.0,4.0,2.23606797749979,2.0,2.0,8.0,12.0,15.033296378372908
74,62,323,0,13.471791666666755,3.0,28.0,4.0,6.082762530298219,8.0,9.0,7.0710678118654755,20.0,14.035668847618199,12.5,15.0,15.0,8.0,5.0,1.0,4.0,2.23606797749979,2.0,2.0,9.0,12.0,16.0312195418814
75,62,324,0,13.51350000000009,2.0,28.0178514522438,4.123105625617661,5.0,9.055385138137417,9.0,7.0710678118654755,18.0,13.0,12.0,13.0,14.0,6.5,4.5,1.5,2.5,1.0,1.0,1.5,11.0,10.0,13.038404810405298
76,62,325,0,13.555208333333423,2.0,28.0178514522438,4.123105625617661,5.0,9.055385138137417,9.0,7.0710678118654755,18.0,13.0,12.0,13.0,14.0,6.5,4.5,1.5,2.5,1.0,1.0,1.5,11.0,10.0,13.038404810405298
77,62,326,0,13.596916666666758,2.23606797749979,30.01666203960727,3.0,5.0,9.055385138137417,9.0,7.0710678118654755,17.0,12.0,11.0,12.0,13.0,5.5,4.5,0.5,2.5,1.4142135623730951,1.0,1.5,13.0,11.0,14.035668847618199
78,62,327,0,13.638625000000092,3.0,29.068883707497267,3.0,5.0,9.055385138137417,9.055385138137417,7.0710678118654755,18.027756377319946,13.038404810405298,11.5,13.0,15.0,7.0,4.0,2.0,3.0,1.0,1.0,1.5,12.0,9.0,15.132745950421556
79,62,328,0,13.680333333333426,3.0,27.16615541441225,4.0,6.0,8.06225774829855,9.055385138137417,8.06225774829855,21.02379604162864,15.033296378372908,13.5,13.0,16.0,6.5,6.5,0.5,2.5,2.0,2.0,2.5,13.0,9.0,14.142135623730951
80,62,329,0,13.72204166666676,3.0,27.16615541441225,4.0,6.0,8.06225774829855,9.055385138137417,8.06225774829855,21.02379604162864,15.033296378372908,13.5,13.0,16.0,6.5,6.5,0.5,2.5,2.0,2.0,2.5,13.0,9.0,14.142135623730951
81,62,330,0,13.763750000000094,3.0,27.16615541441225,3.1622776601683795,5.0,8.06225774829855,8.06225774829855,8.06225774829855,19.1049731745428,14.142135623730951,12.5,12.0,15.0,5.5,5.5,0.5,2.5,3.0,2.0,2.5,13.0,9.0,13.038404810405298
82,62,331,0,13.805458333333428,4.123105625617661,27.16615541441225,3.1622776601683795,5.0990195135927845,8.06225774829855,8.06225774829855,7.0710678118654755,19.1049731745428,14.035668847618199,12.0,12.0,15.0,6.5,5.5,0.5,2.5,2.0,3.1622776601683795,2.5,14.0,10.0,14.142135623730951
83,62,332,0,13.847166666666762,1.0,27.073972741361768,4.0,6.0,9.0,9.0,6.0,17.0,11.0,10.5,12.0,14.0,7.0,4.0,3.0,3.0,2.23606797749979,3.1622776601683795,2.5,12.0,8.0,15.132745950421556
84,62,333,0,13.888875000000096,1.0,27.073972741361768,4.0,6.0,9.0,9.0,6.0,17.0,11.0,10.5,12.0,14.0,7.0,4.0,3.0,3.0,2.23606797749979,3.1622776601683795,2.5,12.0,8.0,15.132745950421556
85,62,334,0,13.93058333333343,1.0,29.068883707497267,4.0,6.0,9.0,9.055385138137417,6.0,17.0,11.0,10.5,12.0,14.0,7.0,4.0,3.0,3.0,2.0,3.0,2.5,12.0,9.0,15.132745950421556
86,62,335,0,13.972291666666765,1.0,27.073972741361768,3.0,6.0,8.0,9.055385138137417,7.0710678118654755,17.029386365926403,11.045361017187261,10.5,12.0,14.0,6.0,4.0,2.0,3.0,2.0,2.0,2.0,12.0,9.0,13.152946437965905
87,62,336,0,14.0140000000001,3.0,27.073972741361768,4.123105625617661,5.0,8.06225774829855,8.06225774829855,6.0,18.027756377319946,13.038404810405298,11.5,12.0,14.0,7.0,5.0,1.0,3.0,2.0,2.0,2.5,13.0,9.0,13.038404810405298
88,62,337,0,14.055708333333431,3.0,27.073972741361768,4.123105625617661,5.0,8.06225774829855,8.06225774829855,6.0,18.027756377319946,13.038404810405298,11.5,12.0,14.0,7.0,5.0,1.0,3.0,2.0,2.0,2.5,13.0,9.0,13.038404810405298
89,62,338,0,14.097416666666769,4.0,27.073972741361768,3.0,5.0,9.055385138137417,9.0,6.082762530298219,18.027756377319946,13.038404810405298,11.0,12.0,14.0,7.0,5.0,1.0,3.0,2.0,2.0,2.0,13.0,9.0,13.152946437965905
90,62,339,0,14.1391250000001,3.0,27.073972741361768,4.0,6.082762530298219,9.055385138137417,9.055385138137417,6.082762530298219,19.1049731745428,13.038404810405298,11.5,12.0,14.0,7.0,6.0,0.0,3.0,2.0,2.0,2.0,13.0,9.0,14.142135623730951
91,62,340,0,14.180833333333435,1.0,28.284271247461902,4.0,6.0,8.246211251235321,9.055385138137417,6.082762530298219,17.029386365926403,11.045361017187261,10.5,11.0,15.0,7.0,4.0,3.0,2.0,3.0,3.0,3.0,13.0,8.0,14.035668847618199
92,62,341,0,14.22254166666677,1.0,28.284271247461902,4.0,6.0,8.246211251235321,9.055385138137417,6.082762530298219,17.029386365926403,11.045361017187261,10.5,11.0,15.0,7.0,4.0,3.0,2.0,3.0,3.0,3.0,13.0,8.0,14.035668847618199
93,62,342,0,14.264250000000104,1.0,29.274562336608895,3.1622776601683795,6.0,8.246211251235321,9.219544457292887,7.0,17.029386365926403,11.045361017187261,10.5,11.0,15.0,6.0,4.0,3.0,2.0,2.0,2.23606797749979,2.0,13.0,7.0,14.317821063276353
94,62,343,0,14.305958333333438,1.0,29.274562336608895,4.0,6.082762530298219,9.219544457292887,9.055385138137417,6.0,17.029386365926403,11.0,10.5,11.0,15.0,7.0,4.0,3.0,2.0,2.0,2.0,2.0,14.0,8.0,15.132745950421556
95,62,344,0,14.347666666666772,2.0,28.442925306655784,4.0,5.0990195135927845,8.246211251235321,8.246211251235321,6.0,17.029386365926403,12.0,11.0,10.0,15.0,6.5,4.5,2.5,1.5,2.0,2.23606797749979,2.0,13.0,6.0,15.132745950421556
96,62,345,0,14.389375000000106,2.0,28.442925306655784,4.0,5.0990195135927845,8.246211251235321,8.246211251235321,6.0,17.029386365926403,12.0,11.0,10.0,15.0,6.5,4.5,2.5,1.5,2.0,2.23606797749979,2.0,13.0,6.0,15.132745950421556
97,62,346,0,14.43108333333344,4.123105625617661,29.427877939124322,3.0,6.0,9.055385138137417,9.055385138137417,7.0710678118654755,20.09975124224178,14.142135623730951,12.0,11.0,16.0,6.5,6.5,0.5,2.5,2.23606797749979,2.23606797749979,2.0,14.0,7.0,14.317821063276353
98,62,347,0,14.472791666666774,4.0,28.442925306655784,4.123105625617661,6.082762530298219,8.06225774829855,9.055385138137417,6.082762530298219,20.223748416156685,14.142135623730951,12.0,11.0,16.0,7.5,6.5,0.5,3.5,2.0,2.0,2.0,14.0,6.0,14.317821063276353
99,62,348,0,14.514500000000108,2.0,28.442925306655784,3.0,6.082762530298219,8.246211251235321,8.06225774829855,7.0710678118654755,18.110770276274835,12.041594578792296,11.0,10.0,15.0,5.5,5.5,1.5,1.5,2.0,2.0,2.0,14.0,6.0,13.341664064126334
100,62,349,0,14.556208333333442,2.23606797749979,29.427877939124322,4.0,6.0,9.219544457292887,9.219544457292887,6.082762530298219,18.110770276274835,12.165525060596439,11.0,10.0,15.0,6.5,5.5,2.5,1.5,2.0,3.0,2.5,14.0,6.0,13.341664064126334
101,62,350,0,14.597916666666777,2.0,29.427877939124322,3.1622776601683795,5.0990195135927845,8.246211251235321,8.246211251235321,7.0,17.11724276862369,12.041594578792296,11.0,10.0,15.0,5.5,4.5,1.5,1.5,2.0,2.0,2.0,14.0,6.0,13.341664064126334
102,62,351,0,14.63962500000011,1.0,29.427877939124322,4.123105625617661,6.0,8.06225774829855,9.219544457292887,7.0710678118654755,18.110770276274835,12.165525060596439,11.5,11.0,16.0,6.5,4.5,2.5,2.5,2.0,2.23606797749979,2.0,15.0,6.0,15.297058540778355
103,62,352,0,14.681333333333445,6.0,27.459060435491963,4.123105625617661,5.0990195135927845,8.246211251235321,8.06225774829855,7.0710678118654755,22.20360331117452,17.11724276862369,14.0,13.0,18.0,8.5,6.5,0.5,3.5,2.23606797749979,2.0,2.5,14.0,6.0,13.601470508735444
104,62,353,0,14.72304166666678,6.0,27.459060435491963,4.123105625617661,5.0990195135927845,8.246211251235321,8.06225774829855,7.0710678118654755,22.20360331117452,17.11724276862369,14.0,13.0,18.0,8.5,6.5,0.5,3.5,2.23606797749979,2.0,2.5,14.0,6.0,13.601470508735444
105,62,354,0,14.764750000000111,4.0,26.68332812825267,3.1622776601683795,5.0,7.0710678118654755,8.06225774829855,8.06225774829855,20.09975124224178,15.132745950421556,13.0,11.0,17.0,6.0,6.0,0.0,2.0,2.23606797749979,2.23606797749979,2.0,15.0,6.0,13.341664064126334
106,62,355,0,14.806458333333447,1.0,28.284271247461902,5.0,6.0,8.06225774829855,9.055385138137417,7.0710678118654755,17.029386365926403,11.045361017187261,11.5,11.0,15.0,6.0,4.0,3.0,1.0,2.0,3.1622776601683795,3.0,15.0,6.0,13.601470508735444
107,62,356,0,14.84816666666678,2.0,28.442925306655784,3.0,5.0990195135927845,7.280109889280518,8.06225774829855,9.219544457292887,19.235384061671343,14.142135623730951,13.0,11.0,16.0,4.5,5.5,1.5,0.5,2.23606797749979,3.1622776601683795,2.5,15.0,6.0,13.601470508735444
108,62,357,0,14.889875000000115,2.0,28.442925306655784,3.0,5.0990195135927845,7.280109889280518,8.06225774829855,9.219544457292887,19.235384061671343,14.142135623730951,13.0,11.0,16.0,4.5,5.5,1.5,0.5,2.23606797749979,3.1622776601683795,2.5,15.0,6.0,13.601470508735444
109,62,358,0,14.93158333333345,7.0710678118654755,25.495097567963924,3.0,5.0,7.0710678118654755,7.0710678118654755,9.219544457292887,24.186773244895647,19.235384061671343,15.5,13.0,18.0,6.5,8.5,2.5,3.5,2.23606797749979,2.23606797749979,2.0,14.0,6.0,13.601470508735444
110,62,359,0,14.973291666666784,7.0,24.515301344262525,3.1622776601683795,5.0990195135927845,8.06225774829855,8.06225774829855,9.055385138137417,24.186773244895647,19.1049731745428,15.5,14.0,19.0,7.5,7.5,1.5,4.5,2.0,2.0,2.0,14.0,7.0,13.341664064126334
111,62,360,0,15.015000000000118,2.0,27.073972741361768,3.1622776601683795,6.0,8.06225774829855,8.06225774829855,9.055385138137417,20.09975124224178,14.142135623730951,13.0,14.0,16.0,6.0,5.0,2.0,3.0,2.0,2.0,2.0,14.0,7.0,14.317821063276353
112,62,361,0,15.056708333333452,2.0,27.073972741361768,3.1622776601683795,6.0,8.06225774829855,8.06225774829855,9.055385138137417,20.09975124224178,14.142135623730951,13.0,14.0,16.0,6.0,5.0,2.0,3.0,2.0,2.0,2.0,14.0,7.0,14.317821063276353
113,62,362,0,15.098416666666786,1.0,28.160255680657446,3.0,5.0,8.06225774829855,9.055385138137417,9.055385138137417,18.027756377319946,13.038404810405298,12.5,13.0,16.0,5.5,3.5,2.5,2.5,2.23606797749979,2.0,2.0,14.0,7.0,14.317821063276353
114,62,363,0,15.14012500000012,0.0,27.16615541441225,4.123105625617661,5.0,8.06225774829855,8.06225774829855,8.06225774829855,17.11724276862369,12.165525060596439,12.0,13.0,16.0,6.5,2.5,3.5,2.5,2.0,3.1622776601683795,2.5,13.0,6.0,13.152946437965905
115,62,364,0,15.181833333333454,1.0,28.160255680657446,4.123105625617661,6.0,8.06225774829855,9.055385138137417,7.0710678118654755,17.029386365926403,11.045361017187261,11.0,11.0,14.0,5.5,4.5,2.5,1.5,2.0,2.23606797749979,1.5,13.0,7.0,13.152946437965905
116,62,365,0,15.223541666666788,0.0,28.071337695236398,3.0,5.0990195135927845,8.06225774829855,8.06225774829855,8.06225774829855,16.1245154965971,11.045361017187261,11.0,12.0,14.0,5.0,3.0,3.0,2.0,2.0,3.0,3.0,13.0,7.0,13.152946437965905
117,62,366,0,15.265250000000124,0.0,28.071337695236398,4.0,6.082762530298219,9.055385138137417,9.055385138137417,8.06225774829855,18.110770276274835,12.041594578792296,12.0,14.0,16.0,7.0,3.0,4.0,3.0,2.0,2.0,2.0,14.0,8.0,15.297058540778355
118,62,367,0,15.306958333333457,2.0,29.154759474226502,4.0,5.0990195135927845,8.06225774829855,9.0,6.082762530298219,17.11724276862369,12.041594578792296,11.0,11.0,14.0,6.5,4.5,1.5,2.5,2.0,2.23606797749979,2.0,15.0,8.0,13.341664064126334
119,62,368,0,15.34866666666679,4.0,28.284271247461902,4.0,6.082762530298219,9.055385138137417,9.055385138137417,7.280109889280518,21.213203435596427,15.132745950421556,13.0,13.0,17.0,8.0,6.0,1.0,3.0,2.0,2.23606797749979,2.0,14.0,7.0,14.317821063276353
120,62,369,0,15.390375000000123,4.0,28.284271247461902,4.0,6.082762530298219,9.055385138137417,9.055385138137417,7.280109889280518,21.213203435596427,15.132745950421556,13.0,13.0,17.0,8.0,6.0,1.0,3.0,2.0,2.23606797749979,2.0,14.0,7.0,14.317821063276353
121,62,370,0,15.43208333333346,9.0,29.274562336608895,4.123105625617661,6.082762530298219,8.06225774829855,9.055385138137417,7.0710678118654755,26.1725046566048,20.09975124224178,15.5,15.0,19.0,10.0,9.0,2.0,6.0,2.0,2.0,2.0,15.0,8.0,15.132745950421556
122,62,371,0,15.473791666666791,8.06225774829855,28.284271247461902,4.0,6.0,8.06225774829855,9.055385138137417,7.0710678118654755,25.079872407968907,19.1049731745428,15.0,15.0,19.0,10.0,8.0,1.0,6.0,2.23606797749979,3.1622776601683795,3.0,13.0,8.0,14.142135623730951
123,62,372,0,15.515500000000127,5.0,28.071337695236398,4.0,6.082762530298219,9.055385138137417,9.055385138137417,5.0,20.024984394500787,14.0,11.5,13.0,15.0,9.0,6.0,1.0,4.0,2.0,2.0,2.0,12.0,7.0,14.142135623730951
124,62,373,0,15.55720833333346,5.0,28.071337695236398,4.0,6.082762530298219,9.055385138137417,9.055385138137417,5.0,20.024984394500787,14.0,11.5,13.0,15.0,9.0,6.0,1.0,4.0,2.0,2.0,2.0,12.0,7.0,14.142135623730951
125,62,374,0,15.598916666666796,3.0,28.160255680657446,3.0,6.082762530298219,8.06225774829855,9.055385138137417,7.0710678118654755,19.1049731745428,13.038404810405298,11.5,13.0,16.0,7.5,4.5,2.5,4.5,2.0,2.0,2.0,12.0,7.0,13.152946437965905
126,62,375,0,15.64062500000013,1.0,29.154759474226502,4.0,6.0,9.055385138137417,8.06225774829855,7.0,17.029386365926403,11.045361017187261,11.0,12.0,15.0,6.5,3.5,2.5,2.5,2.0,2.23606797749979,2.0,12.0,7.0,13.152946437965905
127,62,376,0,15.682333333333464,1.4142135623730951,28.160255680657446,4.123105625617661,6.082762530298219,8.06225774829855,8.06225774829855,6.0,17.029386365926403,11.0,10.5,12.0,15.0,7.5,3.5,2.5,2.5,2.0,2.0,2.0,12.0,6.0,13.152946437965905
128,62,377,0,15.724041666666798,2.0,30.265491900843113,3.1622776601683795,5.0,8.06225774829855,8.06225774829855,7.0,17.029386365926403,12.041594578792296,11.0,12.0,16.0,7.0,3.0,3.0,3.0,2.0,2.0,2.0,12.0,6.0,14.142135623730951
129,62,378,0,15.765750000000132,1.0,29.274562336608895,4.123105625617661,5.0990195135927845,8.06225774829855,9.219544457292887,7.0,17.11724276862369,12.041594578792296,11.5,12.0,16.0,7.0,3.0,3.0,3.0,2.0,2.23606797749979,2.0,11.0,6.0,14.142135623730951
130,62,379,0,15.807458333333466,5.0,29.274562336608895,3.1622776601683795,6.0,8.246211251235321,9.055385138137417,8.0,22.02271554554524,16.0312195418814,13.5,14.0,18.0,8.0,6.0,1.0,4.0,2.0,2.0,1.5,11.0,5.0,14.142135623730951
131,62,380,0,15.8491666666668,4.0,30.265491900843113,4.0,6.082762530298219,9.055385138137417,10.04987562112089,7.0710678118654755,21.095023109728988,15.033296378372908,13.0,13.0,17.0,8.0,6.0,1.0,4.0,2.0,1.4142135623730951,1.5,12.0,5.0,14.142135623730951
132,62,381,0,15.890875000000134,4.0,30.265491900843113,4.0,6.082762530298219,9.055385138137417,10.04987562112089,7.0710678118654755,21.095023109728988,15.033296378372908,13.0,13.0,17.0,8.0,6.0,1.0,4.0,2.0,1.4142135623730951,1.5,12.0,5.0,14.142135623730951
133,62,382,0,15.932583333333469,2.0,30.265491900843113,4.123105625617661,6.0,8.06225774829855,9.055385138137417,8.0,20.024984394500787,14.035668847618199,13.0,14.0,18.0,8.0,4.0,3.0,4.0,2.0,1.4142135623730951,1.5,12.0,5.0,14.142135623730951
134,62,383,0,15.974291666666804,3.0,30.14962686336267,4.123105625617661,6.0,9.055385138137417,9.055385138137417,7.0,20.024984394500787,14.035668847618199,12.5,14.0,17.0,8.5,4.5,1.5,3.5,2.0,2.0,2.0,12.0,6.0,14.142135623730951
135,62,384,0,16.016000000000137,3.0,29.274562336608895,4.123105625617661,5.0,9.219544457292887,9.219544457292887,7.0,19.026297590440446,14.035668847618199,12.5,13.0,17.0,8.0,4.0,2.0,3.0,2.0,1.0,1.5,12.0,6.0,14.142135623730951
136,62,385,0,16.05770833333347,3.0,29.274562336608895,4.123105625617661,5.0,9.219544457292887,9.219544457292887,7.0,19.026297590440446,14.035668847618199,12.5,13.0,17.0,8.0,4.0,2.0,3.0,2.0,1.0,1.5,12.0,6.0,14.142135623730951
137,62,386,0,16.0994166666668,3.0,30.4138126514911,4.0,5.0,10.198039027185569,9.219544457292887,7.0710678118654755,19.026297590440446,14.035668847618199,12.5,12.0,17.0,7.5,4.5,1.5,2.5,2.23606797749979,2.23606797749979,2.0,13.0,7.0,13.152946437965905
138,62,387,0,16.141125000000134,3.1622776601683795,29.274562336608895,4.0,5.0,9.055385138137417,10.04987562112089,6.082762530298219,18.110770276274835,13.152946437965905,11.5,11.0,15.0,7.0,5.0,2.0,3.0,1.4142135623730951,3.1622776601683795,2.5,13.0,6.0,14.142135623730951
139,62,388,0,16.182833333333466,3.0,29.427877939124322,4.0,5.0990195135927845,9.055385138137417,9.055385138137417,7.0,19.026297590440446,14.0,12.5,11.0,16.0,6.5,5.5,0.5,2.5,2.23606797749979,2.0,2.0,14.0,6.0,14.317821063276353
140,62,389,0,16.2245416666668,3.0,29.427877939124322,4.0,5.0990195135927845,9.055385138137417,9.055385138137417,7.0,19.026297590440446,14.0,12.5,11.0,16.0,6.5,5.5,0.5,2.5,2.23606797749979,2.0,2.0,14.0,6.0,14.317821063276353
141,62,390,0,16.26625000000013,3.0,31.400636936215164,3.0,5.0990195135927845,9.219544457292887,9.219544457292887,7.0710678118654755,18.110770276274835,13.038404810405298,11.5,10.0,15.0,5.5,5.5,0.5,1.5,2.23606797749979,3.1622776601683795,2.5,13.0,5.0,13.341664064126334
142,62,391,0,16.307958333333463,3.0,30.59411708155671,3.1622776601683795,4.0,9.219544457292887,9.219544457292887,8.0,18.027756377319946,14.035668847618199,12.5,11.0,17.0,6.0,4.0,1.0,2.0,2.23606797749979,2.23606797749979,2.0,13.0,5.0,14.317821063276353
143,62,392,0,16.349666666666796,0.0,29.427877939124322,3.1622776601683795,5.0990195135927845,8.246211251235321,9.219544457292887,8.06225774829855,16.278820596099706,11.180339887498949,11.0,10.0,15.0,4.5,3.5,2.5,0.5,2.0,2.23606797749979,2.0,15.0,6.0,12.649110640673518
144,62,393,0,16.391375000000128,0.0,30.4138126514911,3.1622776601683795,5.0,8.06225774829855,9.219544457292887,8.06225774829855,16.1245154965971,11.180339887498949,11.0,10.0,15.0,4.5,3.5,2.5,0.5,2.0,3.1622776601683795,2.5,14.0,5.0,13.341664064126334
145,62,394,0,16.43308333333346,1.0,28.635642126552707,4.123105625617661,6.082762530298219,8.06225774829855,9.219544457292887,7.0710678118654755,16.278820596099706,10.198039027185569,10.5,9.0,15.0,5.0,4.0,3.0,1.0,2.23606797749979,3.1622776601683795,3.0,15.0,5.0,13.601470508735444
146,62,395,0,16.474791666666793,1.0,28.635642126552707,5.0990195135927845,6.082762530298219,8.06225774829855,8.246211251235321,7.0710678118654755,17.26267650163207,11.180339887498949,11.5,10.0,16.0,6.0,4.0,3.0,1.0,2.23606797749979,2.23606797749979,2.0,15.0,5.0,12.649110640673518
147,62,396,0,16.516500000000125,2.23606797749979,29.832867780352597,4.123105625617661,6.082762530298219,9.486832980505138,9.486832980505138,8.06225774829855,20.396078054371138,14.317821063276353,13.0,10.0,17.0,5.5,6.5,0.5,0.5,2.0,2.23606797749979,2.0,16.0,4.0,11.704699910719626
148,62,397,0,16.558208333333457,2.23606797749979,29.832867780352597,4.123105625617661,6.082762530298219,9.486832980505138,9.486832980505138,8.06225774829855,20.396078054371138,14.317821063276353,13.0,10.0,17.0,5.5,6.5,0.5,0.5,2.0,2.23606797749979,2.0,16.0,4.0,11.704699910719626
149,62,398,0,16.59991666666679,2.0,28.160255680657446,4.123105625617661,6.324555320336759,8.246211251235321,9.219544457292887,8.246211251235321,20.615528128088304,14.317821063276353,13.0,10.0,18.0,6.0,6.0,1.0,2.0,2.23606797749979,2.8284271247461903,2.0,16.0,4.0,12.649110640673518
150,62,399,0,16.641625000000122,3.1622776601683795,29.120439557122072,3.1622776601683795,5.0990195135927845,8.246211251235321,9.486832980505138,7.0710678118654755,18.439088914585774,13.341664064126334,11.5,8.0,16.0,5.0,6.0,1.0,1.0,1.4142135623730951,2.8284271247461903,2.0,17.0,5.0,13.0
151,62,400,0,16.683333333333454,2.0,27.892651361962706,4.123105625617661,5.385164807134504,8.246211251235321,8.246211251235321,8.06225774829855,19.4164878389476,14.142135623730951,13.0,10.0,17.0,5.5,5.5,0.5,1.5,2.23606797749979,2.23606797749979,2.0,15.0,4.0,12.649110640673518
152,62,401,0,16.725041666666787,3.0,27.892651361962706,3.1622776601683795,5.385164807134504,8.246211251235321,8.246211251235321,8.06225774829855,19.4164878389476,14.142135623730951,12.5,10.0,17.0,5.5,5.5,0.5,1.5,2.23606797749979,2.23606797749979,2.5,15.0,4.0,11.704699910719626
153,62,402,0,16.76675000000012,2.0,28.861739379323623,4.123105625617661,5.0990195135927845,8.246211251235321,9.219544457292887,8.246211251235321,19.4164878389476,14.317821063276353,13.0,10.0,17.0,5.5,5.5,0.5,1.5,2.0,2.23606797749979,2.0,15.0,5.0,12.649110640673518
154,62,403,0,16.80845833333345,1.0,28.861739379323623,4.123105625617661,5.0990195135927845,8.06225774829855,8.246211251235321,8.06225774829855,18.24828759089466,13.152946437965905,12.5,9.0,16.0,4.5,5.5,0.5,0.5,2.23606797749979,2.23606797749979,2.0,15.0,5.0,12.36931687685298
155,62,404,0,16.850166666666784,2.0,28.635642126552707,4.123105625617661,5.0990195135927845,8.06225774829855,8.06225774829855,8.06225774829855,19.235384061671343,14.142135623730951,13.0,11.0,17.0,6.0,5.0,2.0,2.0,2.23606797749979,3.1622776601683795,2.5,14.0,6.0,12.649110640673518
156,62,405,0,16.891875000000116,0.0,29.614185789921695,4.0,6.082762530298219,9.219544457292887,9.055385138137417,8.246211251235321,18.24828759089466,12.165525060596439,12.0,10.0,16.0,5.0,5.0,2.0,1.0,1.4142135623730951,2.23606797749979,2.0,14.0,5.0,12.36931687685298
157,62,406,0,16.93358333333345,2.0,29.614185789921695,4.123105625617661,5.0990195135927845,8.06225774829855,9.219544457292887,7.0710678118654755,18.24828759089466,13.152946437965905,12.0,10.0,16.0,6.0,5.0,1.0,2.0,2.0,3.1622776601683795,2.5,14.0,6.0,12.36931687685298
158,62,407,0,16.97529166666678,3.0,39.20459156782532,4.123105625617661,7.0,10.04987562112089,11.045361017187261,11.045361017187261,25.079872407968907,18.110770276274835,16.5,15.0,19.0,6.0,8.0,0.0,2.0,3.0,3.1622776601683795,3.0,16.0,10.0,19.1049731745428
159,62,408,0,17.017000000000113,3.0,40.049968789001575,4.0,7.0,12.0,11.0,9.055385138137417,23.021728866442675,16.0312195418814,14.5,15.0,17.0,7.0,7.0,1.0,3.0,3.0,4.0,4.0,16.0,11.0,18.110770276274835
160,62,409,0,17.058708333333445,3.1622776601683795,40.0,4.0,7.0,11.045361017187261,12.0,9.055385138137417,23.08679276123039,16.1245154965971,14.5,16.0,16.0,7.0,7.0,1.0,3.0,3.0,3.1622776601683795,3.5,17.0,12.0,18.110770276274835
161,62,410,0,17.100416666666778,2.0,40.049968789001575,5.0990195135927845,8.0,11.045361017187261,12.0,9.055385138137417,24.08318915758459,16.1245154965971,15.0,16.0,18.0,8.0,7.0,1.0,3.0,3.0,4.123105625617661,4.0,16.0,11.0,18.110770276274835
162,62,411,0,17.14212500000011,2.0,40.01249804748511,5.0,8.0,12.041594578792296,11.0,8.246211251235321,23.08679276123039,15.132745950421556,14.0,16.0,17.0,8.5,6.5,1.5,3.5,3.0,3.0,3.0,17.0,12.0,17.029386365926403
163,62,412,0,17.183833333333443,4.0,38.0,5.0,7.0710678118654755,12.0,12.0,9.055385138137417,25.0,18.027756377319946,16.0,18.0,18.0,9.0,7.0,1.0,4.0,3.0,4.0,4.0,15.0,12.0,19.026297590440446
164,62,413,0,17.225541666666775,2.23606797749979,38.0,5.0,8.0,12.0,12.0,10.04987562112089,25.0,17.0,16.0,18.0,18.0,8.0,7.0,1.0,3.0,3.0,3.0,3.0,15.0,13.0,18.027756377319946
165,62,414,0,17.267250000000107,2.23606797749979,38.0,5.0,8.0,12.0,12.0,10.04987562112089,25.0,17.0,16.0,18.0,18.0,8.0,7.0,1.0,3.0,3.0,3.0,3.0,15.0,13.0,18.027756377319946
166,62,415,0,17.30895833333344,4.0,39.0,5.0,7.0,11.0,12.0,8.0,24.0,17.0,15.0,16.0,16.0,8.0,8.0,0.0,3.0,3.0,3.0,3.0,15.0,13.0,18.027756377319946
167,62,416,0,17.350666666666772,1.0,38.0,5.0,8.06225774829855,12.0,12.0,9.0,23.021728866442675,15.0,14.5,17.0,17.0,8.0,6.0,3.0,3.0,3.0,3.1622776601683795,3.0,14.0,12.0,18.0
168,62,417,0,17.392375000000104,3.1622776601683795,39.0,5.0,7.0,12.0,12.041594578792296,8.0,23.021728866442675,16.0312195418814,14.5,16.0,16.0,8.0,7.0,1.0,4.0,3.1622776601683795,3.0,2.5,13.0,12.0,19.0
169,62,418,0,17.434083333333437,3.1622776601683795,39.0,5.0,7.0,12.0,12.041594578792296,8.0,23.021728866442675,16.0312195418814,14.5,16.0,16.0,8.0,7.0,1.0,4.0,3.1622776601683795,3.0,2.5,13.0,12.0,19.0
170,62,419,0,17.47579166666677,5.0,40.0,3.0,6.0,11.0,12.041594578792296,10.0,24.0,18.0,15.5,16.0,16.0,6.0,8.0,2.0,3.0,2.23606797749979,2.0,2.5,13.0,13.0,19.0
171,62,420,0,17.5175000000001,4.0,41.048751503547585,5.0,8.06225774829855,12.041594578792296,13.038404810405298,10.0,27.018512172212592,19.0,17.0,20.0,18.0,9.0,8.0,0.0,5.0,3.1622776601683795,3.0,3.0,11.0,14.0,19.026297590440446
172,62,421,0,17.559208333333434,3.1622776601683795,40.19950248448356,4.0,8.0,11.0,12.041594578792296,10.0,25.019992006393608,17.029386365926403,15.5,20.0,16.0,8.0,7.0,1.0,4.0,2.23606797749979,2.23606797749979,2.0,10.0,14.0,19.026297590440446
173,62,422,0,17.600916666666766,4.123105625617661,39.20459156782532,5.0,7.0710678118654755,11.045361017187261,12.041594578792296,9.0,25.079872407968907,18.027756377319946,16.0,20.0,16.0,9.0,7.0,0.0,5.0,2.23606797749979,3.1622776601683795,3.0,10.0,14.0,19.0
174,62,423,0,17.6426250000001,3.1622776601683795,39.45883931389772,5.0990195135927845,8.06225774829855,12.165525060596439,12.041594578792296,8.0,24.186773244895647,16.1245154965971,14.5,21.0,15.0,10.0,6.0,2.0,6.0,4.123105625617661,3.0,3.0,11.0,15.0,19.026297590440446
175,62,424,0,17.68433333333343,2.0,37.12142238654117,5.0990195135927845,8.06225774829855,11.0,12.041594578792296,8.0,23.08679276123039,15.033296378372908,14.0,18.0,15.0,8.5,6.5,2.5,3.5,3.1622776601683795,3.1622776601683795,3.5,11.0,16.0,20.024984394500787
176,62,425,0,17.726041666666763,2.0,37.12142238654117,4.123105625617661,7.0710678118654755,11.045361017187261,12.041594578792296,10.04987562112089,23.194827009486403,16.1245154965971,15.0,19.0,16.0,7.5,5.5,2.5,3.5,3.1622776601683795,2.23606797749979,2.0,9.0,15.0,19.026297590440446
177,62,426,0,17.767750000000095,0.0,37.21558813185679,5.0990195135927845,8.06225774829855,11.045361017187261,12.041594578792296,10.04987562112089,23.194827009486403,15.132745950421556,15.0,20.0,16.0,8.0,5.0,3.0,4.0,3.1622776601683795,3.1622776601683795,3.0,9.0,15.0,20.09975124224178
178,62,427,0,17.809458333333428,4.123105625617661,40.311288741492746,3.0,7.0710678118654755,12.041594578792296,12.041594578792296,11.045361017187261,25.179356624028344,18.110770276274835,16.0,20.0,15.0,6.5,7.5,0.5,3.5,2.23606797749979,3.1622776601683795,3.0,10.0,15.0,19.026297590440446
179,62,428,0,17.85116666666676,7.0710678118654755,37.21558813185679,4.0,7.0710678118654755,11.045361017187261,12.041594578792296,11.045361017187261,29.154759474226502,22.090722034374522,18.5,22.0,18.0,9.0,9.0,2.0,6.0,3.1622776601683795,3.1622776601683795,3.5,9.0,16.0,18.027756377319946
180,62,429,0,17.892875000000092,7.0710678118654755,39.20459156782532,4.123105625617661,8.0,11.045361017187261,12.041594578792296,11.0,30.066592756745816,22.090722034374522,18.5,21.0,17.0,8.0,11.0,3.0,5.0,2.23606797749979,2.0,2.0,10.0,17.0,18.110770276274835
181,62,430,0,17.934583333333425,7.0710678118654755,39.20459156782532,4.123105625617661,8.0,11.045361017187261,12.041594578792296,11.0,30.066592756745816,22.090722034374522,18.5,21.0,17.0,8.0,11.0,3.0,5.0,2.23606797749979,2.0,2.0,10.0,17.0,18.110770276274835
182,62,431,0,17.976291666666757,7.0710678118654755,41.30375285612676,4.0,7.0,11.045361017187261,12.041594578792296,10.0,28.0178514522438,21.02379604162864,17.5,21.0,16.0,8.5,9.5,1.5,5.5,3.1622776601683795,3.0,3.0,10.0,18.0,18.110770276274835
183,62,432,0,18.01800000000009,3.1622776601683795,41.30375285612676,5.0,8.06225774829855,12.041594578792296,13.038404810405298,10.0,26.076809620810597,18.027756377319946,16.5,21.0,16.0,8.5,7.5,0.5,4.5,4.47213595499958,4.123105625617661,4.5,11.0,20.0,23.194827009486403
184,62,433,0,18.059708333333425,2.0,40.19950248448356,4.0,8.06225774829855,12.041594578792296,12.041594578792296,10.04987562112089,24.08318915758459,16.0312195418814,15.0,18.0,14.0,6.0,8.0,0.0,3.0,4.123105625617661,4.123105625617661,4.5,15.0,23.0,22.090722034374522
185,62,434,0,18.10141666666676,2.0,40.19950248448356,4.0,8.06225774829855,12.041594578792296,12.041594578792296,10.04987562112089,24.08318915758459,16.0312195418814,15.0,18.0,14.0,6.0,8.0,0.0,3.0,4.123105625617661,4.123105625617661,4.5,15.0,23.0,22.090722034374522
186,62,435,0,18.143125000000087,2.0,41.19465984809196,5.0,8.06225774829855,12.041594578792296,13.038404810405298,9.055385138137417,24.08318915758459,16.0312195418814,15.0,18.0,14.0,7.0,8.0,1.0,3.0,3.1622776601683795,4.123105625617661,4.0,16.0,22.0,23.08679276123039
187,62,436,0,18.18483333333342,6.082762530298219,42.1070065428546,4.123105625617661,8.0,11.045361017187261,12.041594578792296,11.045361017187261,29.017236257093817,21.02379604162864,18.0,19.0,16.0,6.5,11.5,2.5,3.5,4.0,5.0990195135927845,4.5,16.0,23.0,24.08318915758459
188,62,437,0,18.22654166666675,6.082762530298219,41.19465984809196,5.0,8.0,12.041594578792296,13.152946437965905,10.04987562112089,29.0,21.0,18.0,18.0,14.0,6.0,13.0,4.0,2.0,4.0,4.123105625617661,4.5,16.0,23.0,23.194827009486403
189,62,438,0,18.268250000000084,6.082762530298219,41.19465984809196,5.0,8.0,12.041594578792296,13.152946437965905,10.04987562112089,29.0,21.0,18.0,18.0,14.0,6.0,13.0,4.0,2.0,4.0,4.123105625617661,4.5,16.0,23.0,23.194827009486403
190,62,439,0,18.309958333333416,10.04987562112089,41.19465984809196,3.0,7.0710678118654755,12.041594578792296,12.041594578792296,10.0,30.066592756745816,23.021728866442675,18.0,20.0,16.0,8.0,12.0,5.0,5.0,4.123105625617661,4.123105625617661,4.0,15.0,22.0,24.08318915758459
191,62,440,0,18.35166666666675,9.0,41.10960958218893,4.123105625617661,7.0710678118654755,12.041594578792296,13.038404810405298,10.04987562112089,30.01666203960727,23.0,18.5,20.0,17.0,8.5,11.5,4.5,5.5,3.1622776601683795,4.123105625617661,4.0,13.0,20.0,23.08679276123039
192,62,441,0,18.39337500000008,9.055385138137417,42.1070065428546,4.0,8.0,12.0,13.152946437965905,10.0,31.016124838541646,23.021728866442675,18.5,20.0,17.0,8.5,12.5,3.5,4.5,4.123105625617661,3.1622776601683795,3.5,13.0,19.0,22.02271554554524
193,62,442,0,18.435083333333413,9.055385138137417,42.1070065428546,4.0,8.0,12.0,13.152946437965905,10.0,31.016124838541646,23.021728866442675,18.5,20.0,17.0,8.5,12.5,3.5,4.5,4.123105625617661,3.1622776601683795,3.5,13.0,19.0,22.02271554554524
194,62,443,0,18.476791666666745,8.06225774829855,41.10960958218893,4.0,8.0,12.0,13.038404810405298,10.0,30.01666203960727,22.02271554554524,18.0,20.0,17.0,8.5,11.5,3.5,4.5,4.0,4.123105625617661,4.5,12.0,17.0,21.095023109728988
195,62,444,0,18.51850000000008,5.0,41.19465984809196,3.0,7.0710678118654755,11.0,13.038404810405298,10.04987562112089,25.079872407968907,18.027756377319946,15.5,19.0,15.0,7.0,8.0,1.0,4.0,3.1622776601683795,4.123105625617661,4.0,12.0,16.0,20.024984394500787
196,62,445,0,18.56020833333341,5.0990195135927845,40.11234224026316,4.0,7.0,12.041594578792296,12.041594578792296,9.0,25.019992006393608,18.027756377319946,15.5,19.0,16.0,8.5,7.5,0.5,5.5,3.1622776601683795,4.0,4.0,12.0,16.0,19.026297590440446
197,62,446,0,18.601916666666742,5.0990195135927845,40.11234224026316,4.0,7.0,12.041594578792296,12.041594578792296,9.0,25.019992006393608,18.027756377319946,15.5,19.0,16.0,8.5,7.5,0.5,5.5,3.1622776601683795,4.0,4.0,12.0,16.0,19.026297590440446
198,62,447,0,18.643625000000075,5.0,42.1070065428546,4.123105625617661,7.0710678118654755,12.0,12.041594578792296,9.0,25.079872407968907,18.027756377319946,15.5,18.0,15.0,7.5,8.5,1.5,3.5,4.123105625617661,3.0,3.5,12.0,16.0,20.024984394500787
199,62,448,0,18.685333333333407,6.082762530298219,42.04759208325728,4.0,7.0,11.0,13.038404810405298,9.0,26.019223662515376,19.026297590440446,16.0,18.0,16.0,8.0,9.0,2.0,4.0,3.1622776601683795,2.0,2.5,12.0,15.0,19.026297590440446
200,62,449,0,18.72704166666674,7.0,42.0,4.0,7.0710678118654755,11.0,13.038404810405298,9.0,27.018512172212592,20.0,16.5,17.0,17.0,8.0,10.0,3.0,4.0,3.1622776601683795,3.0,3.0,14.0,15.0,19.0
201,62,450,0,18.76875000000007,7.0,42.0,4.0,7.0710678118654755,11.0,13.038404810405298,9.0,27.018512172212592,20.0,16.5,17.0,17.0,8.0,10.0,3.0,4.0,3.1622776601683795,3.0,3.0,14.0,15.0,19.0
202,62,451,0,18.810458333333404,9.0,40.01249804748511,4.0,7.0710678118654755,13.0,13.038404810405298,9.0,29.017236257093817,22.0,17.5,19.0,18.0,9.5,10.5,2.5,5.5,3.0,3.1622776601683795,3.0,14.0,14.0,18.0
203,62,452,0,18.852166666666736,5.0990195135927845,40.049968789001575,4.0,7.0,12.041594578792296,12.0,9.0,25.019992006393608,18.027756377319946,15.5,16.0,18.0,8.0,8.0,1.0,4.0,3.0,3.1622776601683795,3.0,16.0,12.0,19.1049731745428
204,62,453,0,18.89387500000007,7.0,40.19950248448356,4.123105625617661,8.0,12.165525060596439,13.038404810405298,9.0,28.0178514522438,20.024984394500787,16.5,15.0,19.0,8.0,11.0,2.0,3.0,3.1622776601683795,3.1622776601683795,2.5,17.0,12.0,20.09975124224178
205,62,454,0,18.9355833333334,7.0,40.19950248448356,4.123105625617661,7.0,12.041594578792296,13.038404810405298,8.0,26.019223662515376,19.026297590440446,15.5,14.0,18.0,8.0,10.0,1.0,4.0,2.0,2.0,2.0,17.0,12.0,19.1049731745428
206,62,455,0,18.977291666666734,7.0710678118654755,40.44749683231337,4.0,8.0,11.045361017187261,13.038404810405298,9.219544457292887,28.160255680657446,20.223748416156685,16.5,15.0,21.0,9.0,10.0,1.0,5.0,2.0,3.1622776601683795,3.0,18.0,11.0,18.24828759089466
207,62,456,0,19.019000000000062,13.0,38.3275357934736,4.123105625617661,8.06225774829855,12.041594578792296,13.038404810405298,9.486832980505138,34.36568055487916,26.30589287593181,19.5,18.0,23.0,11.5,13.5,3.5,7.5,3.1622776601683795,2.0,2.0,19.0,12.0,17.26267650163207
208,62,457,0,19.0607083333334,15.033296378372908,37.21558813185679,4.123105625617661,9.055385138137417,11.180339887498949,13.038404810405298,8.54400374531753,36.49657518178932,27.459060435491963,19.5,18.0,22.0,12.0,16.0,6.0,7.0,2.0,3.0,3.0,19.0,12.0,19.235384061671343
209,62,458,0,19.10241666666673,16.0312195418814,37.33630940518894,4.123105625617661,8.06225774829855,11.180339887498949,11.045361017187261,7.615773105863909,35.510561809129406,27.459060435491963,19.0,16.0,21.0,11.5,16.5,6.5,6.5,3.0,3.0,3.0,20.0,12.0,18.24828759089466
210,62,459,0,19.144125000000063,13.038404810405298,39.45883931389772,4.123105625617661,8.246211251235321,11.180339887498949,12.041594578792296,8.54400374531753,33.734255586866,25.495097567963924,18.5,15.0,21.0,10.0,15.0,5.0,5.0,3.0,3.0,3.0,19.0,11.0,18.24828759089466
211,62,460,0,19.185833333333395,6.082762530298219,38.47076812334269,4.123105625617661,6.082762530298219,11.045361017187261,12.165525060596439,9.055385138137417,25.317977802344327,19.235384061671343,16.0,13.0,19.0,7.0,9.0,1.0,3.0,2.0,3.1622776601683795,3.0,18.0,10.0,18.24828759089466
212,62,461,0,19.227541666666728,4.123105625617661,41.593268686170845,4.0,8.0,11.180339887498949,12.041594578792296,9.219544457292887,25.179356624028344,17.26267650163207,15.0,12.0,19.0,6.5,9.5,0.5,1.5,2.0,3.0,3.0,19.0,10.0,19.235384061671343
213,62,462,0,19.26925000000006,4.0,40.44749683231337,4.123105625617661,7.0710678118654755,12.165525060596439,13.152946437965905,9.055385138137417,24.186773244895647,17.11724276862369,15.0,13.0,19.0,7.0,8.0,1.0,2.0,3.0,3.0,3.0,19.0,10.0,18.24828759089466
214,62,463,0,19.310958333333392,1.0,41.43669871020132,5.0990195135927845,8.06225774829855,12.041594578792296,13.152946437965905,9.055385138137417,23.194827009486403,15.132745950421556,14.5,12.0,18.0,6.0,8.0,2.0,1.0,3.0,3.1622776601683795,3.5,19.0,10.0,18.439088914585774
215,62,464,0,19.352666666666725,2.0,40.607881008493905,4.123105625617661,8.06225774829855,11.180339887498949,12.165525060596439,10.198039027185569,24.331050121192877,16.278820596099706,15.0,12.0,19.0,5.5,8.5,0.5,0.5,3.0,4.0,4.0,19.0,10.0,17.46424919657298
216,62,465,0,19.394375000000057,4.0,39.81205847478876,4.123105625617661,7.0710678118654755,12.165525060596439,11.180339887498949,10.198039027185569,25.317977802344327,18.24828759089466,16.0,12.0,20.0,6.0,9.0,0.0,2.0,3.0,3.1622776601683795,3.0,20.0,10.0,18.439088914585774
217,62,466,0,19.43608333333339,5.0,41.773197148410844,4.123105625617661,6.082762530298219,11.40175425099138,12.165525060596439,10.198039027185569,25.317977802344327,19.235384061671343,16.5,12.0,20.0,6.0,9.0,1.0,1.0,3.1622776601683795,4.123105625617661,3.5,20.0,10.0,20.396078054371138
218,62,467,0,19.47779166666672,6.082762530298219,38.63935817272331,4.0,7.0710678118654755,11.180339887498949,12.165525060596439,9.486832980505138,26.476404589747453,19.4164878389476,16.0,13.0,20.0,7.5,9.5,1.5,3.5,3.0,3.1622776601683795,3.5,21.0,10.0,19.235384061671343
219,62,468,0,19.51950000000005,3.0,39.6232255123179,4.123105625617661,6.082762530298219,10.198039027185569,11.180339887498949,10.198039027185569,23.345235059857504,17.26267650163207,15.5,13.0,20.0,6.5,6.5,1.5,2.5,4.0,3.1622776601683795,3.5,20.0,9.0,18.681541692269406
220,62,469,0,19.561208333333383,1.4142135623730951,39.81205847478876,4.0,7.0710678118654755,11.40175425099138,12.165525060596439,10.198039027185569,22.360679774997898,15.297058540778355,14.5,12.0,20.0,6.0,6.0,3.0,1.0,4.123105625617661,4.123105625617661,4.0,20.0,9.0,18.439088914585774
221,62,470,0,19.60291666666672,1.4142135623730951,39.81205847478876,4.0,7.0710678118654755,11.40175425099138,12.165525060596439,10.198039027185569,22.360679774997898,15.297058540778355,14.5,12.0,20.0,6.0,6.0,3.0,1.0,4.123105625617661,4.123105625617661,4.0,20.0,9.0,18.439088914585774
222,62,471,0,19.64462500000005,2.0,39.81205847478876,4.123105625617661,7.0710678118654755,11.180339887498949,11.40175425099138,9.219544457292887,22.360679774997898,15.297058540778355,14.0,12.0,20.0,7.0,6.0,3.0,2.0,3.0,4.123105625617661,3.5,21.0,9.0,18.973665961010276
223,62,472,0,19.686333333333383,1.0,38.8329756778952,4.0,7.0710678118654755,11.180339887498949,11.180339887498949,9.219544457292887,21.213203435596427,14.142135623730951,13.5,11.0,19.0,6.0,6.0,3.0,1.0,3.1622776601683795,3.1622776601683795,3.5,20.0,8.0,19.6468827043885
224,62,473,0,19.72804166666672,1.4142135623730951,38.8329756778952,4.0,7.0710678118654755,10.44030650891055,10.198039027185569,10.198039027185569,22.360679774997898,15.297058540778355,14.5,12.0,20.0,6.0,6.0,2.0,1.0,4.123105625617661,4.123105625617661,3.5,21.0,9.0,18.681541692269406
225,62,474,0,19.769750000000048,1.0,39.81205847478876,4.0,7.280109889280518,11.180339887498949,11.40175425099138,10.198039027185569,22.360679774997898,15.132745950421556,14.5,12.0,20.0,6.0,6.0,2.0,1.0,3.1622776601683795,4.123105625617661,3.5,21.0,9.0,17.72004514666935
226,62,475,0,19.81145833333338,6.082762530298219,37.8549864614954,4.0,8.06225774829855,11.180339887498949,11.180339887498949,11.40175425099138,29.427877939124322,21.37755832643195,18.0,14.0,22.0,7.0,11.0,1.0,2.0,3.1622776601683795,4.123105625617661,4.0,21.0,10.0,17.72004514666935
227,62,476,0,19.85316666666672,8.0,34.20526275297414,4.123105625617661,7.280109889280518,10.198039027185569,12.165525060596439,10.44030650891055,29.614185789921695,22.360679774997898,18.0,14.0,23.0,8.5,10.5,1.5,4.5,3.0,3.1622776601683795,3.0,20.0,10.0,17.46424919657298
228,62,477,0,19.894875000000045,5.0,36.6742416417845,3.1622776601683795,7.0710678118654755,10.198039027185569,11.180339887498949,11.40175425099138,26.476404589747453,19.4164878389476,16.5,14.0,21.0,6.5,8.5,0.5,2.5,3.1622776601683795,4.123105625617661,3.5,21.0,10.0,17.46424919657298
229,62,478,0,19.936583333333378,5.0,36.6742416417845,3.1622776601683795,7.0710678118654755,10.198039027185569,11.180339887498949,11.40175425099138,26.476404589747453,19.4164878389476,16.5,14.0,21.0,6.5,8.5,0.5,2.5,3.1622776601683795,4.123105625617661,3.5,21.0,10.0,17.46424919657298
230,62,479,0,19.97829166666671,2.0,38.47076812334269,4.123105625617661,7.0710678118654755,11.180339887498949,11.180339887498949,10.04987562112089,23.194827009486403,16.1245154965971,15.0,13.0,19.0,6.0,7.0,1.0,1.0,3.0,4.123105625617661,3.5,20.0,10.0,17.46424919657298
231,62,480,0,20.02000000000004,1.0,40.607881008493905,5.0990195135927845,8.06225774829855,12.041594578792296,12.165525060596439,9.219544457292887,23.345235059857504,15.297058540778355,14.5,12.0,19.0,6.5,7.5,1.5,1.5,4.123105625617661,3.1622776601683795,3.5,20.0,9.0,17.46424919657298
232,62,481,0,20.06170833333337,2.0,40.44749683231337,5.0990195135927845,7.280109889280518,11.180339887498949,12.165525060596439,8.246211251235321,22.561028345356956,15.297058540778355,14.0,12.0,18.0,7.0,7.0,2.0,1.0,4.123105625617661,4.123105625617661,4.0,19.0,9.0,17.46424919657298
233,62,482,0,20.103416666666707,2.0,39.45883931389772,5.0990195135927845,7.0710678118654755,11.180339887498949,12.041594578792296,9.219544457292887,23.345235059857504,16.278820596099706,15.0,13.0,19.0,7.0,7.0,1.0,2.0,3.1622776601683795,3.1622776601683795,3.5,19.0,9.0,16.492422502470642
234,62,483,0,20.14512500000004,4.123105625617661,40.44749683231337,4.0,7.0710678118654755,11.045361017187261,12.041594578792296,10.198039027185569,25.317977802344327,18.24828759089466,16.0,13.0,19.0,6.0,9.0,0.0,2.0,3.1622776601683795,4.123105625617661,3.5,20.0,10.0,17.46424919657298
235,62,484,0,20.18683333333337,5.0,37.48332962798263,3.1622776601683795,8.246211251235321,11.180339887498949,12.041594578792296,11.045361017187261,27.294688127912362,19.1049731745428,16.5,13.0,19.0,5.0,11.0,1.0,1.0,4.123105625617661,4.123105625617661,4.0,19.0,10.0,18.24828759089466
236,62,485,0,20.228541666666704,2.0,40.44749683231337,4.123105625617661,7.0710678118654755,11.045361017187261,11.180339887498949,12.165525060596439,25.317977802344327,18.24828759089466,17.0,13.0,19.0,4.0,9.0,1.0,0.0,3.0,4.123105625617661,4.0,18.0,9.0,17.72004514666935
237,62,486,0,20.27025000000004,2.0,40.44749683231337,4.123105625617661,7.0710678118654755,11.045361017187261,11.180339887498949,12.165525060596439,25.317977802344327,18.24828759089466,17.0,13.0,19.0,4.0,9.0,1.0,0.0,3.0,4.123105625617661,4.0,18.0,9.0,17.72004514666935
238,62,487,0,20.31195833333337,0.0,39.45883931389772,5.0990195135927845,7.0710678118654755,10.04987562112089,11.180339887498949,11.045361017187261,23.194827009486403,16.1245154965971,16.0,13.0,19.0,5.0,7.0,2.0,0.0,4.123105625617661,4.0,4.0,19.0,10.0,17.46424919657298
239,62,488,0,20.3536666666667,5.0990195135927845,39.45883931389772,4.123105625617661,7.0710678118654755,11.045361017187261,12.165525060596439,12.165525060596439,28.442925306655784,21.37755832643195,18.5,13.0,19.0,4.0,12.0,3.0,0.0,4.123105625617661,3.0,3.0,19.0,10.0,17.26267650163207
240,62,489,0,20.39537500000004,6.082762530298219,39.45883931389772,3.1622776601683795,7.0710678118654755,11.045361017187261,11.045361017187261,12.165525060596439,28.442925306655784,21.37755832643195,18.0,13.0,19.0,4.0,12.0,3.0,1.0,3.1622776601683795,4.0,4.0,19.0,10.0,17.26267650163207
241,62,490,0,20.43708333333337,6.082762530298219,39.45883931389772,3.1622776601683795,7.0710678118654755,11.045361017187261,11.045361017187261,12.165525060596439,28.442925306655784,21.37755832643195,18.0,13.0,19.0,4.0,12.0,3.0,1.0,3.1622776601683795,4.0,4.0,19.0,10.0,17.26267650163207
242,62,491,0,20.47879166666669,5.0990195135927845,39.45883931389772,4.123105625617661,8.06225774829855,11.045361017187261,12.041594578792296,11.180339887498949,28.442925306655784,20.396078054371138,17.5,13.0,19.0,5.0,12.0,3.0,1.0,3.1622776601683795,4.0,4.0,19.0,11.0,17.26267650163207
243,62,492,0,20.52050000000003,7.0710678118654755,39.45883931389772,4.0,7.0710678118654755,11.045361017187261,11.180339887498949,11.40175425099138,29.427877939124322,22.360679774997898,18.5,13.0,19.0,5.0,13.0,4.0,1.0,4.123105625617661,4.0,4.0,19.0,11.0,18.439088914585774
244,62,493,0,20.562208333333363,4.123105625617661,37.48332962798263,4.123105625617661,8.06225774829855,11.045361017187261,11.180339887498949,12.165525060596439,28.442925306655784,20.396078054371138,18.0,13.0,19.0,4.0,12.0,3.0,0.0,3.0,3.1622776601683795,3.0,19.0,11.0,17.26267650163207
245,62,494,0,20.60391666666669,4.123105625617661,37.48332962798263,4.123105625617661,8.06225774829855,11.045361017187261,11.180339887498949,12.165525060596439,28.442925306655784,20.396078054371138,18.0,13.0,19.0,4.0,12.0,3.0,0.0,3.0,3.1622776601683795,3.0,19.0,11.0,17.26267650163207
246,62,495,0,20.645625000000027,6.082762530298219,38.3275357934736,3.1622776601683795,7.0710678118654755,10.198039027185569,11.045361017187261,11.180339887498949,27.459060435491963,20.396078054371138,17.0,13.0,18.0,4.5,11.5,2.5,0.5,3.0,3.1622776601683795,3.5,19.0,11.0,18.439088914585774
247,62,496,0,20.68733333333336,5.0,38.3275357934736,3.1622776601683795,7.0710678118654755,11.045361017187261,12.041594578792296,11.180339887498949,26.30589287593181,19.235384061671343,16.5,13.0,18.0,4.5,10.5,1.5,1.5,3.1622776601683795,3.1622776601683795,3.0,19.0,10.0,17.46424919657298
248,62,497,0,20.72904166666669,4.0,39.45883931389772,4.123105625617661,8.06225774829855,11.045361017187261,11.045361017187261,10.198039027185569,26.30589287593181,18.24828759089466,16.0,13.0,19.0,6.0,10.0,1.0,2.0,3.1622776601683795,4.123105625617661,4.0,18.0,10.0,18.24828759089466
249,62,498,0,20.770750000000024,4.0,39.45883931389772,4.123105625617661,8.06225774829855,11.045361017187261,11.045361017187261,10.198039027185569,26.30589287593181,18.24828759089466,16.0,13.0,19.0,6.0,10.0,1.0,2.0,3.1622776601683795,4.123105625617661,4.0,18.0,10.0,18.24828759089466
250,62,499,0,20.81245833333336,4.0,38.3275357934736,4.0,7.0710678118654755,11.045361017187261,11.045361017187261,11.180339887498949,26.1725046566048,19.1049731745428,17.0,13.0,18.0,4.5,10.5,1.5,0.5,3.1622776601683795,3.1622776601683795,3.0,19.0,11.0,17.46424919657298
251,62,500,0,20.85416666666669,3.0,38.2099463490856,4.123105625617661,8.06225774829855,11.045361017187261,12.041594578792296,10.198039027185569,25.317977802344327,17.26267650163207,15.5,13.0,17.0,5.0,10.0,1.0,1.0,3.1622776601683795,4.123105625617661,4.0,19.0,11.0,17.26267650163207
252,62,501,0,20.89587500000002,5.0,37.21558813185679,4.0,8.06225774829855,11.045361017187261,11.045361017187261,10.198039027185569,27.16615541441225,19.1049731745428,16.5,15.0,19.0,7.0,10.0,1.0,3.0,4.123105625617661,4.0,3.5,18.0,11.0,18.24828759089466
253,62,502,0,20.93758333333336,5.0990195135927845,38.2099463490856,4.0,8.0,11.045361017187261,12.041594578792296,10.198039027185569,27.16615541441225,19.235384061671343,16.5,15.0,19.0,7.0,10.0,1.0,2.0,3.0,3.1622776601683795,3.0,18.0,11.0,18.110770276274835
254,62,503,0,20.97929166666669,5.0,39.20459156782532,4.123105625617661,8.0,12.165525060596439,12.041594578792296,10.198039027185569,27.16615541441225,19.235384061671343,16.5,16.0,20.0,8.0,9.0,0.0,3.0,3.0,3.0,3.0,17.0,10.0,18.110770276274835
255,62,504,0,21.02100000000002,8.0,38.118237105091836,4.0,7.0710678118654755,11.045361017187261,12.041594578792296,10.198039027185569,29.154759474226502,22.090722034374522,18.0,16.0,19.0,7.5,11.5,3.5,3.5,2.0,3.0,3.0,18.0,12.0,18.110770276274835
256,62,505,0,21.06270833333335,8.0,38.2099463490856,4.123105625617661,7.0,12.041594578792296,13.038404810405298,10.04987562112089,29.068883707497267,22.090722034374522,18.0,16.0,20.0,8.0,11.0,3.0,3.0,2.0,3.1622776601683795,2.5,17.0,12.0,17.11724276862369
257,62,506,0,21.104416666666683,8.0,38.2099463490856,4.123105625617661,7.0,12.041594578792296,13.038404810405298,10.04987562112089,29.068883707497267,22.090722034374522,18.0,16.0,20.0,8.0,11.0,3.0,3.0,2.0,3.1622776601683795,2.5,17.0,12.0,17.11724276862369
258,62,507,0,21.146125000000016,7.0,38.118237105091836,4.123105625617661,7.0,12.0,13.038404810405298,10.04987562112089,28.071337695236398,21.095023109728988,17.5,17.0,20.0,8.5,9.5,1.5,4.5,1.4142135623730951,1.4142135623730951,1.0,17.0,12.0,17.11724276862369
259,62,508,0,21.187833333333348,9.0,38.01315561749642,3.0,6.0,11.045361017187261,11.045361017187261,11.045361017187261,29.017236257093817,23.021728866442675,18.5,19.0,20.0,8.5,9.5,2.5,5.5,2.0,2.0,2.0,15.0,13.0,18.110770276274835
260,62,509,0,21.22954166666668,9.055385138137417,38.05259518088089,3.0,6.0,11.045361017187261,11.0,10.04987562112089,28.0,22.0,17.5,18.0,20.0,9.0,9.0,2.0,5.0,2.0,3.0,2.5,16.0,14.0,17.11724276862369
261,62,510,0,21.271250000000013,8.0,38.01315561749642,3.0,6.0,11.0,12.0,9.055385138137417,26.019223662515376,20.024984394500787,16.0,17.0,18.0,8.5,8.5,1.5,5.5,2.0,3.1622776601683795,2.5,15.0,13.0,17.029386365926403
262,62,511,0,21.312958333333345,5.0,40.01249804748511,3.1622776601683795,7.0,10.0,11.045361017187261,10.04987562112089,25.0,18.0,15.5,17.0,18.0,7.5,7.5,0.5,4.5,2.23606797749979,2.0,2.5,14.0,13.0,18.027756377319946
263,62,512,0,21.35466666666668,1.0,38.118237105091836,5.0,7.0,11.0,11.0,10.0,22.02271554554524,15.033296378372908,15.0,16.0,19.0,7.5,4.5,3.5,2.5,2.0,2.23606797749979,2.0,15.0,11.0,17.029386365926403
264,62,513,0,21.39637500000001,1.4142135623730951,38.118237105091836,4.0,8.0,11.045361017187261,11.045361017187261,10.04987562112089,23.0,15.0,14.5,16.0,19.0,7.5,5.5,3.5,3.5,2.23606797749979,2.0,2.0,16.0,10.0,18.110770276274835
265,62,514,0,21.438083333333346,1.4142135623730951,38.118237105091836,4.0,8.0,11.045361017187261,11.045361017187261,10.04987562112089,23.0,15.0,14.5,16.0,19.0,7.5,5.5,3.5,3.5,2.23606797749979,2.0,2.0,16.0,10.0,18.110770276274835
266,62,515,0,21.479791666666674,6.082762530298219,34.36568055487916,4.123105625617661,7.0710678118654755,10.04987562112089,10.04987562112089,9.219544457292887,26.1725046566048,19.1049731745428,16.0,16.0,21.0,9.5,7.5,0.5,5.5,2.23606797749979,2.23606797749979,2.0,17.0,11.0,17.11724276862369
267,62,516,0,21.521500000000007,10.0,37.48332962798263,3.0,6.082762530298219,10.198039027185569,11.045361017187261,10.198039027185569,29.154759474226502,23.08679276123039,18.0,16.0,22.0,9.0,10.0,2.0,5.0,2.0,2.0,2.0,18.0,9.0,16.278820596099706
268,62,517,0,21.56320833333334,8.0,37.107950630558946,4.123105625617661,7.0710678118654755,10.198039027185569,11.180339887498949,9.055385138137417,28.160255680657446,21.095023109728988,17.0,15.0,24.0,10.5,8.5,0.5,5.5,3.1622776601683795,3.605551275463989,3.0,21.0,9.0,17.46424919657298
269,62,518,0,21.60491666666667,8.0,36.87817782917155,5.0990195135927845,6.082762530298219,10.198039027185569,11.180339887498949,9.055385138137417,28.160255680657446,22.090722034374522,18.0,16.0,24.0,11.0,8.0,0.0,5.0,3.0,3.605551275463989,3.0,19.0,8.0,17.72004514666935
270,62,519,0,21.646625000000004,6.082762530298219,37.8549864614954,5.0990195135927845,7.0710678118654755,11.40175425099138,12.36931687685298,9.055385138137417,27.294688127912362,20.223748416156685,17.0,15.0,23.0,10.0,8.0,0.0,4.0,2.0,2.23606797749979,2.5,19.0,7.0,17.46424919657298
271,62,520,0,21.688333333333336,6.0,40.024992192379,5.0,7.280109889280518,11.180339887498949,12.36931687685298,9.219544457292887,27.294688127912362,20.09975124224178,17.0,15.0,24.0,10.5,7.5,1.5,4.5,2.0,3.605551275463989,2.5,21.0,7.0,15.524174696260024
272,62,521,0,21.73004166666667,5.0990195135927845,38.3275357934736,4.0,8.06225774829855,9.486832980505138,10.44030650891055,9.486832980505138,26.476404589747453,18.439088914585774,15.5,14.0,24.0,10.0,7.0,3.0,4.0,2.23606797749979,2.8284271247461903,2.0,21.0,7.0,18.681541692269406
273,62,522,0,21.77175,5.0,38.3275357934736,5.0990195135927845,8.246211251235321,10.198039027185569,11.40175425099138,8.246211251235321,26.476404589747453,18.24828759089466,15.5,13.0,23.0,10.0,8.0,2.0,4.0,3.0,2.23606797749979,2.0,20.0,6.0,17.72004514666935
274,62,523,0,21.813458333333333,7.0,39.05124837953327,4.123105625617661,7.280109889280518,10.198039027185569,11.40175425099138,9.219544457292887,27.459060435491963,20.223748416156685,16.5,14.0,23.0,9.5,8.5,0.5,4.5,2.23606797749979,2.23606797749979,2.0,21.0,7.0,16.76305461424021
275,62,524,0,21.855166666666666,5.0990195135927845,39.81205847478876,4.0,7.0710678118654755,11.40175425099138,12.36931687685298,9.486832980505138,25.495097567963924,18.439088914585774,15.5,13.0,21.0,8.0,8.0,0.0,2.0,2.23606797749979,3.605551275463989,3.0,22.0,7.0,17.72004514666935
276,62,525,0,21.896875,5.0990195135927845,37.107950630558946,5.0,7.0710678118654755,10.198039027185569,11.180339887498949,8.54400374531753,25.495097567963924,18.439088914585774,15.5,13.0,22.0,9.5,7.5,1.5,3.5,3.1622776601683795,3.1622776601683795,3.0,21.0,6.0,16.76305461424021
277,62,526,0,21.93858333333333,5.0990195135927845,37.107950630558946,5.0,7.0710678118654755,10.198039027185569,11.180339887498949,8.54400374531753,25.495097567963924,18.439088914585774,15.5,13.0,22.0,9.5,7.5,1.5,3.5,3.1622776601683795,3.1622776601683795,3.0,21.0,6.0,16.76305461424021
278,62,527,0,21.980291666666663,5.0990195135927845,39.05124837953327,4.123105625617661,7.0710678118654755,10.44030650891055,10.44030650891055,9.219544457292887,25.495097567963924,18.439088914585774,15.5,12.0,21.0,7.5,8.5,0.5,2.5,3.1622776601683795,3.605551275463989,3.0,22.0,7.0,16.76305461424021
279,62,528,0,22.021999999999995,5.0,38.3275357934736,4.123105625617661,7.280109889280518,10.44030650891055,11.40175425099138,9.486832980505138,25.709920264364882,18.439088914585774,15.5,12.0,22.0,8.0,8.0,1.0,3.0,2.23606797749979,2.23606797749979,2.0,21.0,6.0,18.027756377319946
280,62,529,0,22.063708333333327,6.0,37.107950630558946,4.123105625617661,7.280109889280518,10.44030650891055,11.40175425099138,9.486832980505138,26.68332812825267,19.4164878389476,16.0,13.0,22.0,8.5,8.5,0.5,3.5,3.1622776601683795,4.123105625617661,4.0,22.0,7.0,17.08800749063506
281,62,530,0,22.10541666666666,6.0,37.107950630558946,4.123105625617661,7.280109889280518,10.44030650891055,11.40175425099138,9.486832980505138,26.68332812825267,19.4164878389476,16.0,13.0,22.0,8.5,8.5,0.5,3.5,3.1622776601683795,4.123105625617661,4.0,22.0,7.0,17.08800749063506
282,62,531,0,22.147124999999992,10.04987562112089,36.138621999185304,5.0990195135927845,8.246211251235321,11.180339887498949,11.180339887498949,9.486832980505138,32.7566787083184,24.515301344262525,19.0,15.0,24.0,10.5,12.5,2.5,4.5,3.1622776601683795,3.1622776601683795,3.5,22.0,8.0,16.76305461424021
283,62,532,0,22.188833333333324,10.04987562112089,36.87817782917155,6.324555320336759,7.0710678118654755,10.198039027185569,11.180339887498949,10.44030650891055,33.734255586866,26.68332812825267,21.0,16.0,24.0,10.0,13.0,4.0,4.0,4.123105625617661,3.1622776601683795,3.5,21.0,8.0,16.76305461424021
284,62,533,0,22.230541666666657,5.0990195135927845,38.07886552931954,5.0990195135927845,8.06225774829855,11.180339887498949,12.36931687685298,10.770329614269007,28.861739379323623,20.8806130178211,17.5,13.0,22.0,7.5,10.5,0.5,1.5,3.1622776601683795,3.1622776601683795,3.0,21.0,7.0,16.76305461424021
285,62,534,0,22.27224999999999,7.0710678118654755,38.07886552931954,4.123105625617661,8.06225774829855,10.198039027185569,12.36931687685298,10.770329614269007,29.832867780352597,21.840329667841555,17.5,13.0,22.0,7.5,11.5,1.5,2.5,3.1622776601683795,3.1622776601683795,3.0,21.0,8.0,17.08800749063506
286,62,535,0,22.31395833333332,4.123105625617661,38.07886552931954,4.123105625617661,7.0710678118654755,11.40175425099138,11.180339887498949,10.44030650891055,25.709920264364882,18.681541692269406,16.0,12.0,21.0,6.5,8.5,0.5,1.5,3.1622776601683795,3.605551275463989,3.5,21.0,7.0,18.027756377319946
287,62,536,0,22.355666666666654,2.23606797749979,38.8329756778952,5.0990195135927845,7.0710678118654755,11.40175425099138,11.180339887498949,10.44030650891055,24.73863375370596,17.72004514666935,16.0,13.0,21.0,7.0,7.0,2.0,1.0,3.1622776601683795,4.123105625617661,3.5,21.0,8.0,16.76305461424021
288,62,537,0,22.397374999999982,2.0,39.81205847478876,4.123105625617661,7.280109889280518,11.40175425099138,12.36931687685298,11.180339887498949,24.515301344262525,17.26267650163207,16.0,12.0,20.0,5.0,8.0,0.0,0.0,3.1622776601683795,3.1622776601683795,3.5,21.0,9.0,17.72004514666935
289,62,538,0,22.43908333333332,2.0,39.81205847478876,4.123105625617661,7.280109889280518,11.40175425099138,12.36931687685298,11.180339887498949,24.515301344262525,17.26267650163207,16.0,12.0,20.0,5.0,8.0,0.0,0.0,3.1622776601683795,3.1622776601683795,3.5,21.0,9.0,17.72004514666935
290,62,539,0,22.48079166666665,3.0,39.81205847478876,3.1622776601683795,6.324555320336759,11.180339887498949,12.165525060596439,11.40175425099138,23.769728648009426,17.46424919657298,15.5,12.0,20.0,5.0,7.0,1.0,1.0,3.1622776601683795,4.123105625617661,3.5,21.0,9.0,16.76305461424021
291,62,540,0,22.522499999999983,2.23606797749979,39.81205847478876,4.123105625617661,7.0710678118654755,12.36931687685298,12.165525060596439,11.180339887498949,24.515301344262525,17.46424919657298,16.0,13.0,21.0,6.0,7.0,1.0,1.0,3.1622776601683795,4.123105625617661,4.0,20.0,8.0,17.46424919657298
292,62,541,0,22.564208333333315,2.23606797749979,40.792156108742276,4.123105625617661,7.0710678118654755,11.180339887498949,11.180339887498949,11.180339887498949,24.515301344262525,17.46424919657298,16.0,12.0,20.0,5.0,8.0,0.0,0.0,3.1622776601683795,4.0,3.5,20.0,8.0,18.027756377319946
293,62,542,0,22.605916666666648,2.23606797749979,40.024992192379,4.123105625617661,7.0710678118654755,11.180339887498949,12.165525060596439,11.180339887498949,24.515301344262525,17.46424919657298,16.0,12.0,21.0,5.5,7.5,0.5,0.5,3.1622776601683795,4.123105625617661,3.5,21.0,9.0,16.76305461424021
294,62,543,0,22.64762499999998,2.0,40.792156108742276,4.123105625617661,6.082762530298219,11.180339887498949,12.165525060596439,10.44030650891055,22.561028345356956,16.492422502470642,15.0,11.0,19.0,5.0,7.0,1.0,0.0,3.1622776601683795,4.123105625617661,4.0,20.0,9.0,16.76305461424021
295,62,544,0,22.689333333333312,4.123105625617661,41.0,4.123105625617661,8.06225774829855,11.180339887498949,11.180339887498949,10.44030650891055,26.68332812825267,18.681541692269406,16.0,11.0,20.0,5.5,10.5,0.5,0.5,3.1622776601683795,3.0,3.5,20.0,9.0,16.76305461424021
296,62,545,0,22.731041666666645,7.0,37.656340767525464,4.123105625617661,7.0710678118654755,11.180339887498949,12.165525060596439,10.44030650891055,28.442925306655784,21.37755832643195,17.5,14.0,21.0,7.5,10.5,1.5,2.5,4.123105625617661,4.123105625617661,4.0,21.0,10.0,17.72004514666935
297,62,546,0,22.772749999999977,5.0,38.63935817272331,5.0990195135927845,8.246211251235321,11.180339887498949,12.165525060596439,10.44030650891055,28.635642126552707,20.396078054371138,17.5,14.0,21.0,7.5,10.5,0.5,2.5,3.1622776601683795,4.123105625617661,4.0,21.0,11.0,17.72004514666935
298,62,547,0,22.81445833333331,5.0,37.656340767525464,5.0990195135927845,8.06225774829855,12.165525060596439,12.165525060596439,8.246211251235321,26.30589287593181,18.24828759089466,15.5,13.0,20.0,8.5,9.5,0.5,2.5,3.1622776601683795,4.123105625617661,4.0,21.0,12.0,18.439088914585774
299,62,548,0,22.85616666666664,2.0,37.21558813185679,6.082762530298219,9.055385138137417,10.04987562112089,11.045361017187261,7.280109889280518,24.331050121192877,15.297058540778355,14.0,14.0,18.0,9.0,8.0,2.0,3.0,5.0990195135927845,4.0,4.0,24.0,13.0,22.360679774997898
300,62,549,0,22.89787499999997,3.0,40.311288741492746,6.082762530298219,8.06225774829855,11.045361017187261,11.045361017187261,7.0710678118654755,24.186773244895647,16.1245154965971,14.5,14.0,19.0,9.5,7.5,2.5,3.5,4.123105625617661,4.123105625617661,4.0,24.0,14.0,22.561028345356956
301,62,550,0,22.939583333333307,3.0,41.19465984809196,5.0990195135927845,9.055385138137417,12.165525060596439,12.041594578792296,8.06225774829855,25.179356624028344,16.1245154965971,14.5,16.0,20.0,10.0,7.0,3.0,4.0,4.0,4.123105625617661,4.5,25.0,14.0,22.561028345356956
302,62,551,0,22.98129166666664,4.123105625617661,40.311288741492746,5.0,8.0,9.055385138137417,10.04987562112089,9.219544457292887,26.1725046566048,18.24828759089466,16.0,17.0,22.0,10.5,6.5,2.5,4.5,4.123105625617661,5.0,5.0,24.0,13.0,24.515301344262525
303,62,552,0,23.02299999999997,1.4142135623730951,40.44749683231337,5.0990195135927845,9.055385138137417,12.165525060596439,12.165525060596439,9.219544457292887,24.515301344262525,15.524174696260024,14.5,15.0,21.0,9.0,6.0,4.0,3.0,3.1622776601683795,3.1622776601683795,3.5,23.0,12.0,23.345235059857504
304,62,553,0,23.064708333333304,1.4142135623730951,38.07886552931954,7.0710678118654755,10.04987562112089,12.36931687685298,12.165525060596439,10.04987562112089,28.284271247461902,18.24828759089466,17.5,16.0,25.0,10.5,7.5,4.5,2.5,2.23606797749979,3.605551275463989,3.0,23.0,13.0,24.331050121192877
305,62,554,0,23.10641666666664,1.4142135623730951,38.07886552931954,7.0710678118654755,10.04987562112089,12.36931687685298,12.165525060596439,10.04987562112089,28.284271247461902,18.24828759089466,17.5,16.0,25.0,10.5,7.5,4.5,2.5,2.23606797749979,3.605551275463989,3.0,23.0,13.0,24.331050121192877
306,62,555,0,23.14812499999997,2.23606797749979,37.8549864614954,5.0990195135927845,9.055385138137417,12.36931687685298,12.36931687685298,11.045361017187261,27.294688127912362,18.24828759089466,17.0,16.0,24.0,9.0,7.0,4.0,3.0,3.1622776601683795,3.605551275463989,3.5,22.0,11.0,22.561028345356956
307,62,556,0,23.1898333333333,2.23606797749979,40.024992192379,5.0990195135927845,7.280109889280518,12.165525060596439,13.341664064126334,11.045361017187261,25.495097567963924,18.24828759089466,17.0,13.0,22.0,6.5,7.5,1.5,0.5,3.0,4.123105625617661,4.0,22.0,13.0,23.194827009486403
308,62,557,0,23.23154166666664,2.0,40.607881008493905,5.0990195135927845,7.280109889280518,12.36931687685298,13.152946437965905,11.045361017187261,25.317977802344327,18.110770276274835,17.0,14.0,21.0,6.5,7.5,1.5,0.5,4.123105625617661,3.1622776601683795,3.5,22.0,13.0,22.20360331117452
309,62,558,0,23.273249999999965,2.23606797749979,41.773197148410844,5.0990195135927845,7.0710678118654755,13.341664064126334,13.152946437965905,12.041594578792296,26.30589287593181,19.235384061671343,18.0,15.0,23.0,7.0,7.0,2.0,1.0,3.1622776601683795,4.123105625617661,4.0,21.0,12.0,24.186773244895647
310,62,559,0,23.314958333333298,1.4142135623730951,40.792156108742276,5.0990195135927845,8.06225774829855,13.341664064126334,13.152946437965905,11.045361017187261,25.317977802344327,17.26267650163207,16.5,13.0,21.0,6.0,8.0,2.0,0.0,3.1622776601683795,3.0,3.5,22.0,13.0,22.20360331117452
311,62,560,0,23.35666666666663,1.4142135623730951,42.7551166528639,4.0,7.0710678118654755,13.341664064126334,13.152946437965905,12.165525060596439,24.331050121192877,17.26267650163207,16.5,12.0,20.0,4.0,8.0,0.0,1.0,3.0,4.123105625617661,4.0,20.0,11.0,22.360679774997898
312,62,561,0,23.39837499999996,1.4142135623730951,39.45883931389772,5.0,7.0710678118654755,11.180339887498949,12.041594578792296,11.045361017187261,24.186773244895647,17.11724276862369,16.5,14.0,20.0,6.0,7.0,2.0,0.0,3.1622776601683795,4.123105625617661,4.0,20.0,12.0,20.396078054371138
313,62,562,0,23.44008333333329,1.4142135623730951,39.45883931389772,5.0,7.0710678118654755,11.180339887498949,12.041594578792296,11.045361017187261,24.186773244895647,17.11724276862369,16.5,14.0,20.0,6.0,7.0,2.0,0.0,3.1622776601683795,4.123105625617661,4.0,20.0,12.0,20.396078054371138
314,62,563,0,23.481791666666627,1.0,39.6232255123179,5.0990195135927845,7.0710678118654755,11.180339887498949,12.165525060596439,11.045361017187261,23.345235059857504,16.278820596099706,16.0,14.0,21.0,6.5,5.5,2.5,0.5,3.0,4.123105625617661,4.0,20.0,12.0,21.37755832643195
315,62,564,0,23.52349999999996,1.4142135623730951,39.6232255123179,5.0,6.082762530298219,11.180339887498949,12.041594578792296,10.04987562112089,22.20360331117452,16.1245154965971,15.5,13.0,20.0,6.5,5.5,2.5,0.5,3.1622776601683795,3.1622776601683795,3.5,20.0,11.0,21.37755832643195
316,62,565,0,23.56520833333329,1.0,40.607881008493905,5.0,7.0710678118654755,12.165525060596439,12.165525060596439,11.180339887498949,23.345235059857504,16.278820596099706,16.0,13.0,20.0,5.5,6.5,2.5,0.5,3.1622776601683795,4.123105625617661,4.0,18.0,10.0,20.223748416156685
317,62,566,0,23.606916666666624,1.0,41.773197148410844,5.0,7.0710678118654755,12.36931687685298,13.152946437965905,11.180339887498949,23.345235059857504,16.278820596099706,16.0,13.0,21.0,6.0,6.0,3.0,0.0,3.1622776601683795,4.123105625617661,4.0,18.0,10.0,20.223748416156685
318,62,567,0,23.64862499999996,0.0,41.593268686170845,5.0990195135927845,7.0710678118654755,12.165525060596439,13.152946437965905,11.045361017187261,23.194827009486403,16.1245154965971,16.0,13.0,20.0,5.5,6.5,2.5,0.5,3.1622776601683795,4.123105625617661,4.0,19.0,10.0,19.4164878389476
319,62,568,0,23.69033333333329,3.1622776601683795,30.265491900843113,4.0,7.0710678118654755,8.06225774829855,9.055385138137417,7.0,21.095023109728988,14.035668847618199,12.5,17.0,13.0,8.0,6.0,1.0,4.0,1.4142135623730951,2.23606797749979,1.5,8.0,12.0,15.033296378372908
320,62,569,0,23.73204166666662,3.1622776601683795,27.16615541441225,3.0,5.0,8.06225774829855,8.06225774829855,8.0,19.026297590440446,14.035668847618199,12.5,16.0,13.0,6.5,4.5,1.5,4.5,1.0,2.0,1.5,9.0,13.0,14.142135623730951
321,62,570,0,23.77374999999996,3.1622776601683795,28.160255680657446,3.0,6.082762530298219,8.0,9.055385138137417,8.0,20.09975124224178,14.035668847618199,12.5,16.0,13.0,6.5,5.5,0.5,3.5,1.4142135623730951,2.23606797749979,2.0,9.0,13.0,14.035668847618199
322,62,571,0,23.81545833333329,3.1622776601683795,28.071337695236398,3.0,4.0,8.06225774829855,8.06225774829855,8.0,18.027756377319946,14.035668847618199,12.5,15.0,13.0,6.0,4.0,0.0,4.0,2.23606797749979,2.0,2.0,9.0,13.0,14.142135623730951
323,62,572,0,23.85716666666662,3.1622776601683795,28.071337695236398,4.0,5.0990195135927845,8.06225774829855,9.055385138137417,8.0,20.09975124224178,15.033296378372908,13.5,15.0,13.0,6.0,6.0,0.0,3.0,2.23606797749979,2.0,2.0,10.0,12.0,13.038404810405298
324,62,573,0,23.89887499999995,1.4142135623730951,27.073972741361768,4.0,6.0,8.06225774829855,9.0,7.0710678118654755,18.110770276274835,12.165525060596439,11.5,15.0,13.0,7.0,4.0,2.0,3.0,1.4142135623730951,1.0,1.0,10.0,12.0,14.035668847618199
325,62,574,0,23.940583333333283,1.4142135623730951,27.073972741361768,4.0,6.0,8.06225774829855,9.0,7.0710678118654755,18.110770276274835,12.165525060596439,11.5,15.0,13.0,7.0,4.0,2.0,3.0,1.4142135623730951,1.0,1.0,10.0,12.0,14.035668847618199
326,62,575,0,23.98229166666661,2.23606797749979,27.018512172212592,4.0,6.082762530298219,8.0,9.055385138137417,7.0,19.1049731745428,13.038404810405298,12.0,14.0,13.0,6.5,5.5,0.5,2.5,1.4142135623730951,1.0,1.5,10.0,12.0,13.0
327,62,576,0,24.023999999999948,2.0,26.076809620810597,3.0,5.0990195135927845,8.0,8.06225774829855,8.06225774829855,18.110770276274835,13.038404810405298,12.0,14.0,12.0,5.0,5.0,1.0,2.0,1.0,1.0,1.0,9.0,11.0,14.0
328,62,577,0,24.06570833333328,1.0,26.076809620810597,3.0,6.082762530298219,8.0,9.055385138137417,8.06225774829855,18.110770276274835,12.041594578792296,11.5,15.0,13.0,6.0,4.0,2.0,3.0,2.23606797749979,1.0,1.5,10.0,11.0,14.0
329,62,578,0,24.10741666666661,1.0,26.076809620810597,3.0,6.082762530298219,8.0,9.055385138137417,8.06225774829855,18.110770276274835,12.041594578792296,11.5,15.0,13.0,6.0,4.0,2.0,3.0,2.23606797749979,1.0,1.5,10.0,11.0,14.0
330,62,579,0,24.149124999999945,2.0,28.071337695236398,3.0,6.082762530298219,9.055385138137417,9.055385138137417,7.0710678118654755,18.110770276274835,12.041594578792296,11.0,14.0,12.0,6.0,5.0,1.0,3.0,1.4142135623730951,1.0,1.5,10.0,11.0,14.0
331,62,580,0,24.19083333333328,1.0,28.0178514522438,4.0,6.0,8.0,9.055385138137417,7.0,17.029386365926403,11.045361017187261,11.0,13.0,12.0,5.5,4.5,1.5,2.5,1.4142135623730951,2.0,1.5,10.0,10.0,13.0
332,62,581,0,24.23254166666661,1.0,28.0178514522438,4.0,7.0,9.0,10.04987562112089,7.0710678118654755,18.0,11.0,11.0,14.0,13.0,6.5,4.5,2.5,3.5,2.23606797749979,2.0,2.0,11.0,11.0,14.035668847618199
333,62,582,0,24.27424999999994,1.0,28.0178514522438,3.0,6.082762530298219,9.0,9.055385138137417,8.0,18.027756377319946,12.0,11.5,14.0,13.0,5.5,4.5,1.5,2.5,2.0,2.0,2.0,11.0,11.0,13.038404810405298
334,62,583,0,24.31595833333328,1.4142135623730951,28.0,4.0,5.0,8.0,9.0,8.0,18.027756377319946,13.038404810405298,12.5,12.0,12.0,4.0,6.0,0.0,1.0,1.4142135623730951,2.23606797749979,1.5,11.0,11.0,14.0
335,62,584,0,24.357666666666606,1.0,27.018512172212592,3.0,6.082762530298219,8.0,8.0,8.0,18.027756377319946,12.0,11.5,12.0,13.0,4.5,5.5,1.5,1.5,1.4142135623730951,2.23606797749979,1.5,12.0,11.0,13.038404810405298
336,62,585,0,24.39937499999994,2.0,27.0,3.0,5.0,7.0710678118654755,8.06225774829855,8.0,18.0,13.0,12.0,12.0,12.0,4.0,6.0,0.0,1.0,1.0,2.0,1.5,12.0,11.0,11.180339887498949
337,62,586,0,24.44108333333327,2.0,27.0,3.0,5.0,7.0710678118654755,8.06225774829855,8.0,18.0,13.0,12.0,12.0,12.0,4.0,6.0,0.0,1.0,1.0,2.0,1.5,12.0,11.0,11.180339887498949
338,62,587,0,24.482791666666603,2.0,28.0178514522438,4.0,6.0,7.0710678118654755,9.0,7.0710678118654755,19.026297590440446,13.038404810405298,12.0,11.0,12.0,4.5,7.5,1.5,0.5,1.0,2.23606797749979,2.0,14.0,11.0,11.045361017187261
339,62,588,0,24.524499999999936,3.1622776601683795,25.079872407968907,3.1622776601683795,6.082762530298219,7.0,8.0,7.0710678118654755,19.1049731745428,13.038404810405298,11.5,11.0,13.0,5.0,7.0,1.0,2.0,2.0,2.0,2.5,13.0,10.0,11.045361017187261
340,62,589,0,24.566208333333268,3.0,26.019223662515376,3.0,6.0,8.0,9.055385138137417,8.06225774829855,20.024984394500787,14.035668847618199,12.5,13.0,14.0,5.5,6.5,0.5,2.5,2.0,2.0,2.0,14.0,11.0,13.038404810405298
341,62,590,0,24.6079166666666,3.0,26.019223662515376,3.0,6.0,8.0,9.055385138137417,8.06225774829855,20.024984394500787,14.035668847618199,12.5,13.0,14.0,5.5,6.5,0.5,2.5,2.0,2.0,2.0,14.0,11.0,13.038404810405298
342,62,591,0,24.649624999999933,2.0,26.076809620810597,3.1622776601683795,6.0,8.0,8.0,9.0,20.024984394500787,14.035668847618199,13.0,12.0,14.0,4.0,7.0,0.0,1.0,1.0,1.4142135623730951,1.5,13.0,11.0,13.038404810405298
343,62,592,0,24.691333333333265,3.0,26.019223662515376,3.0,5.0,7.0,8.0,8.0,19.0,14.0,12.5,12.0,13.0,4.5,6.5,1.5,1.5,1.4142135623730951,1.0,1.5,12.0,10.0,12.041594578792296
344,62,593,0,24.7330416666666,2.0,26.019223662515376,3.0,5.0,7.0,8.0,9.055385138137417,19.026297590440446,14.035668847618199,13.0,12.0,13.0,3.5,6.5,1.5,1.5,2.0,2.0,2.0,13.0,10.0,12.165525060596439
345,62,594,0,24.77474999999993,3.0,25.019992006393608,2.0,5.0,7.0,7.0,9.055385138137417,19.026297590440446,14.035668847618199,12.5,12.0,13.0,3.5,6.5,0.5,1.5,2.0,1.0,1.0,12.0,10.0,12.165525060596439
346,62,595,0,24.816458333333262,1.4142135623730951,26.0,3.0,4.123105625617661,7.0710678118654755,8.0,9.055385138137417,17.029386365926403,13.0,12.5,13.0,13.0,4.0,4.0,0.0,2.0,1.0,2.0,1.5,12.0,10.0,10.04987562112089
347,62,596,0,24.858166666666595,2.0,27.0,3.0,5.0,7.0,7.0,8.06225774829855,18.027756377319946,13.038404810405298,12.0,12.0,12.0,4.0,6.0,1.0,2.0,2.0,1.0,1.5,13.0,10.0,12.041594578792296
348,62,597,0,24.899874999999927,1.0,27.018512172212592,3.0,5.0,7.0,8.0,9.055385138137417,18.027756377319946,13.038404810405298,12.5,13.0,14.0,4.5,4.5,0.5,1.5,1.0,2.23606797749979,2.0,12.0,10.0,11.045361017187261
349,62,598,0,24.94158333333326,1.0,27.018512172212592,3.0,5.0,7.0,8.0,9.055385138137417,18.027756377319946,13.038404810405298,12.5,13.0,14.0,4.5,4.5,0.5,1.5,1.0,2.23606797749979,2.0,12.0,10.0,11.045361017187261
350,62,599,0,24.98329166666659,2.0,26.076809620810597,3.0,5.0,7.0,8.0,8.06225774829855,18.027756377319946,13.038404810405298,12.0,11.0,13.0,4.0,6.0,1.0,1.0,1.0,1.4142135623730951,1.5,12.0,10.0,12.165525060596439
351,62,600,0,25.024999999999924,1.0,26.019223662515376,4.0,5.0,7.0,7.0,8.06225774829855,18.027756377319946,13.038404810405298,12.5,12.0,13.0,4.5,5.5,0.5,1.5,2.0,1.0,1.5,13.0,10.0,12.165525060596439
352,62,601,0,25.066708333333256,2.0,26.0,2.0,4.0,7.0,8.0,9.055385138137417,17.029386365926403,13.038404810405298,12.0,12.0,12.0,3.0,5.0,0.0,1.0,1.0,1.0,1.5,13.0,10.0,12.165525060596439
353,62,602,0,25.10841666666659,2.0,26.0,2.0,4.0,7.0,8.0,9.055385138137417,17.029386365926403,13.038404810405298,12.0,12.0,12.0,3.0,5.0,0.0,1.0,1.0,1.0,1.5,13.0,10.0,12.165525060596439
354,62,603,0,25.15012499999992,1.0,27.018512172212592,3.0,5.0,7.0,8.0,8.06225774829855,17.029386365926403,12.041594578792296,11.5,12.0,13.0,4.5,4.5,0.5,1.5,1.0,1.0,1.5,13.0,10.0,11.180339887498949
355,62,604,0,25.191833333333253,2.23606797749979,26.019223662515376,3.0,4.123105625617661,6.0,7.0,9.055385138137417,18.027756377319946,14.0,13.0,12.0,13.0,3.5,5.5,0.5,1.5,2.0,1.0,1.5,13.0,10.0,11.180339887498949
356,62,605,0,25.233541666666586,1.0,27.018512172212592,3.0,4.123105625617661,7.0,8.0,9.055385138137417,17.11724276862369,13.038404810405298,12.5,12.0,13.0,3.5,4.5,0.5,1.5,1.0,1.0,1.5,12.0,9.0,12.041594578792296
357,62,606,0,25.27524999999992,3.0,27.0,2.0,5.0990195135927845,7.0,8.06225774829855,9.055385138137417,19.1049731745428,14.035668847618199,12.5,12.0,12.0,3.0,7.0,1.0,1.0,2.0,1.4142135623730951,1.5,13.0,10.0,12.041594578792296
358,62,607,0,25.31695833333325,5.0,27.073972741361768,2.0,4.0,7.0,8.06225774829855,9.219544457292887,20.09975124224178,16.1245154965971,13.5,12.0,14.0,4.0,7.0,2.0,2.0,2.0,1.4142135623730951,1.5,12.0,10.0,12.041594578792296
359,62,608,0,25.358666666666583,3.0,27.018512172212592,3.0,6.0,8.0,8.0,9.219544457292887,21.095023109728988,15.132745950421556,13.5,12.0,13.0,3.5,8.5,2.5,0.5,2.0,2.23606797749979,2.0,12.0,10.0,12.041594578792296
360,62,609,0,25.400374999999915,4.0,27.018512172212592,3.1622776601683795,5.0,8.0,9.0,7.280109889280518,19.235384061671343,14.317821063276353,12.0,11.0,12.0,4.5,7.5,1.5,1.5,2.0,2.0,2.0,13.0,11.0,13.038404810405298
361,62,610,0,25.442083333333247,4.0,27.018512172212592,3.1622776601683795,5.0,8.0,9.0,7.280109889280518,19.235384061671343,14.317821063276353,12.0,11.0,12.0,4.5,7.5,1.5,1.5,2.0,2.0,2.0,13.0,11.0,13.038404810405298
362,62,611,0,25.48379166666658,3.0,28.0178514522438,3.0,5.0,8.0,9.0,8.246211251235321,19.1049731745428,14.142135623730951,12.5,11.0,12.0,3.5,7.5,1.5,0.5,2.0,2.0,2.0,13.0,11.0,13.038404810405298
363,62,612,0,25.525499999999912,3.0,27.073972741361768,3.1622776601683795,6.082762530298219,7.0710678118654755,8.06225774829855,9.055385138137417,21.213203435596427,15.132745950421556,13.5,11.0,13.0,3.0,9.0,2.0,0.0,1.0,2.23606797749979,2.0,12.0,10.0,13.038404810405298
364,62,613,0,25.567208333333244,7.0,27.073972741361768,2.23606797749979,6.082762530298219,7.0,8.06225774829855,8.54400374531753,23.53720459187964,17.46424919657298,13.5,10.0,12.0,3.0,12.0,5.0,1.0,2.23606797749979,2.23606797749979,2.0,12.0,11.0,12.041594578792296
365,62,614,0,25.608916666666577,7.0,27.073972741361768,2.23606797749979,6.082762530298219,7.0,8.06225774829855,8.54400374531753,23.53720459187964,17.46424919657298,13.5,10.0,12.0,3.0,12.0,5.0,1.0,2.23606797749979,2.23606797749979,2.0,12.0,11.0,12.041594578792296
366,62,615,0,25.65062499999991,9.055385138137417,27.018512172212592,3.0,6.0,7.0,8.0,7.615773105863909,25.317977802344327,19.4164878389476,14.5,12.0,13.0,5.5,12.5,5.5,2.5,1.0,2.23606797749979,1.5,12.0,11.0,12.041594578792296
367,62,616,0,25.69233333333324,6.082762530298219,28.0178514522438,2.0,5.0,7.0,8.06225774829855,9.486832980505138,22.360679774997898,17.46424919657298,14.0,11.0,12.0,2.5,10.5,4.5,0.5,2.0,2.0,2.0,13.0,11.0,12.041594578792296
368,62,617,0,25.73404166666657,5.0,27.018512172212592,3.1622776601683795,5.0990195135927845,8.06225774829855,8.0,9.219544457292887,22.360679774997898,17.26267650163207,14.5,12.0,13.0,3.5,9.5,3.5,0.5,2.0,2.0,2.0,13.0,11.0,12.041594578792296
369,62,618,0,25.775749999999903,5.0,27.018512172212592,3.1622776601683795,5.0990195135927845,8.06225774829855,8.0,9.219544457292887,22.360679774997898,17.26267650163207,14.5,12.0,13.0,3.5,9.5,3.5,0.5,2.0,2.0,2.0,13.0,11.0,12.041594578792296
370,62,619,0,25.81745833333324,4.0,27.018512172212592,3.1622776601683795,5.0990195135927845,8.0,9.0,9.055385138137417,21.213203435596427,16.1245154965971,14.0,12.0,13.0,3.5,8.5,2.5,0.5,2.0,2.0,2.0,13.0,11.0,13.038404810405298
371,62,620,0,25.85916666666657,2.0,27.018512172212592,3.0,6.082762530298219,8.06225774829855,8.0,9.219544457292887,20.223748416156685,14.142135623730951,13.0,12.0,13.0,3.5,7.5,1.5,0.5,1.0,2.0,2.0,13.0,11.0,12.041594578792296
372,62,621,0,25.900874999999903,2.0,26.076809620810597,4.0,6.082762530298219,8.06225774829855,8.0,8.06225774829855,20.09975124224178,14.035668847618199,13.0,12.0,14.0,5.0,7.0,1.0,1.0,1.0,2.0,2.0,13.0,11.0,12.165525060596439
373,62,622,0,25.94258333333324,4.0,25.079872407968907,3.0,5.0990195135927845,7.0,8.0,8.06225774829855,20.09975124224178,15.033296378372908,13.0,12.0,14.0,5.0,7.0,1.0,2.0,1.0,2.0,2.0,12.0,10.0,12.165525060596439
374,62,623,0,25.984291666666568,2.0,26.019223662515376,3.0,6.0,8.0,9.0,8.06225774829855,19.026297590440446,13.038404810405298,12.0,12.0,13.0,4.5,6.5,0.5,1.5,1.0,1.4142135623730951,1.5,13.0,10.0,12.165525060596439
375,62,624,0,26.0259999999999,1.0,25.179356624028344,3.1622776601683795,5.0,7.0710678118654755,7.0,9.0,18.027756377319946,13.038404810405298,12.5,11.0,14.0,3.5,5.5,0.5,0.5,1.4142135623730951,2.0,1.5,12.0,8.0,10.198039027185569
376,62,625,0,26.06770833333324,3.0,24.020824298928627,2.23606797749979,4.0,6.082762530298219,7.0710678118654755,8.06225774829855,17.11724276862369,13.152946437965905,11.5,12.0,13.0,4.5,4.5,0.5,1.5,1.0,1.4142135623730951,1.5,13.0,9.0,11.045361017187261
377,62,626,0,26.109416666666565,3.0,24.020824298928627,2.23606797749979,4.0,6.082762530298219,7.0710678118654755,8.06225774829855,17.11724276862369,13.152946437965905,11.5,12.0,13.0,4.5,4.5,0.5,1.5,1.0,1.4142135623730951,1.5,13.0,9.0,11.045361017187261
378,62,627,0,26.151124999999897,2.0,24.020824298928627,3.1622776601683795,5.0,6.0,7.0710678118654755,8.06225774829855,18.110770276274835,13.152946437965905,12.0,12.0,13.0,4.5,5.5,0.5,1.5,1.0,2.0,1.5,13.0,10.0,11.180339887498949
379,62,628,0,26.19283333333323,1.0,24.020824298928627,3.0,6.0,7.0,7.0,7.0710678118654755,17.029386365926403,11.045361017187261,10.5,11.0,12.0,4.5,5.5,0.5,1.5,1.0,2.23606797749979,1.5,14.0,9.0,10.198039027185569
380,62,629,0,26.23454166666656,2.0,21.095023109728988,4.0,6.0,7.0710678118654755,7.0710678118654755,7.0710678118654755,19.026297590440446,13.038404810405298,12.0,14.0,12.0,6.0,6.0,0.0,3.0,4.0,3.0,3.0,12.0,11.0,10.04987562112089
381,62,630,0,26.27624999999989,2.23606797749979,21.02379604162864,4.0,6.0,7.0710678118654755,8.06225774829855,8.06225774829855,20.09975124224178,14.142135623730951,13.0,14.0,13.0,5.5,6.5,0.5,2.5,3.0,3.1622776601683795,3.0,12.0,10.0,10.04987562112089
382,62,631,0,26.317958333333227,1.0,22.02271554554524,4.0,6.0,7.0710678118654755,7.0710678118654755,8.06225774829855,19.026297590440446,13.038404810405298,12.5,14.0,13.0,5.5,5.5,0.5,2.5,3.0,2.0,2.5,12.0,10.0,11.045361017187261
383,62,632,0,26.35966666666656,1.0,23.021728866442675,4.0,6.0,7.0710678118654755,7.0710678118654755,7.0710678118654755,18.027756377319946,12.041594578792296,11.5,12.0,13.0,5.5,5.5,1.5,1.5,2.0,2.0,2.5,14.0,9.0,10.198039027185569
384,62,633,0,26.40137499999989,1.0,23.08679276123039,3.0,5.0,6.082762530298219,7.0710678118654755,7.280109889280518,16.1245154965971,11.180339887498949,10.5,10.0,12.0,4.0,5.0,1.0,1.0,1.0,1.4142135623730951,1.0,14.0,10.0,10.198039027185569
385,62,634,0,26.443083333333224,1.0,23.08679276123039,3.0,5.0,6.082762530298219,7.0710678118654755,7.280109889280518,16.1245154965971,11.180339887498949,10.5,10.0,12.0,4.0,5.0,1.0,1.0,1.0,1.4142135623730951,1.0,14.0,10.0,10.198039027185569
386,62,635,0,26.48479166666656,1.0,24.020824298928627,3.0,5.0,7.0,7.0,8.06225774829855,17.029386365926403,12.041594578792296,11.5,12.0,13.0,4.5,4.5,1.5,1.5,2.23606797749979,1.0,1.5,13.0,9.0,12.165525060596439
387,62,636,0,26.52649999999989,1.0,27.018512172212592,3.0,6.0,7.0,8.06225774829855,7.0,17.0,11.0,10.5,11.0,12.0,4.5,5.5,1.5,1.5,1.0,1.0,1.5,13.0,10.0,12.165525060596439
388,62,637,0,26.56820833333322,2.23606797749979,27.0,3.0,5.0,8.0,7.0,7.0710678118654755,17.0,12.0,11.0,12.0,12.0,5.0,5.0,1.0,2.0,1.0,1.0,1.5,13.0,11.0,12.041594578792296
389,62,638,0,26.60991666666656,2.23606797749979,27.0,3.0,5.0,8.0,7.0,7.0710678118654755,17.0,12.0,11.0,12.0,12.0,5.0,5.0,1.0,2.0,1.0,1.0,1.5,13.0,11.0,12.041594578792296
390,62,639,0,26.65162499999989,1.0,25.0,3.0,6.082762530298219,6.082762530298219,7.0,9.055385138137417,19.0,13.038404810405298,12.5,13.0,13.0,4.0,6.0,0.0,1.0,1.4142135623730951,1.0,1.5,12.0,11.0,11.045361017187261
391,62,640,0,26.69333333333321,2.23606797749979,25.0,4.0,6.0,8.0,8.0,8.0,20.024984394500787,14.035668847618199,13.0,14.0,14.0,6.0,6.0,0.0,3.0,1.0,1.0,1.0,10.0,11.0,11.0
392,62,641,0,26.73504166666655,3.0,25.019992006393608,4.123105625617661,5.0990195135927845,8.0,9.0,7.0,19.1049731745428,14.035668847618199,12.5,14.0,13.0,6.5,5.5,0.5,2.5,1.4142135623730951,1.0,1.0,11.0,12.0,12.0
393,62,642,0,26.776749999999883,3.0,26.019223662515376,3.1622776601683795,5.0990195135927845,8.0,9.0,8.0,19.1049731745428,14.035668847618199,12.5,15.0,14.0,6.5,4.5,1.5,3.5,1.0,1.0,1.5,11.0,12.0,12.0
394,62,643,0,26.81845833333321,3.1622776601683795,27.073972741361768,4.0,6.0,9.055385138137417,9.055385138137417,7.0,20.024984394500787,14.035668847618199,12.5,15.0,13.0,7.0,6.0,1.0,4.0,1.4142135623730951,2.0,2.0,10.0,13.0,12.0
395,62,644,0,26.860166666666547,3.1622776601683795,29.274562336608895,3.0,5.0990195135927845,8.06225774829855,9.219544457292887,9.0,20.09975124224178,15.033296378372908,13.5,17.0,13.0,6.0,5.0,0.0,4.0,1.4142135623730951,2.0,2.0,9.0,13.0,13.038404810405298
396,62,645,0,26.90187499999988,3.1622776601683795,28.160255680657446,3.0,5.0990195135927845,8.06225774829855,9.219544457292887,9.0,20.09975124224178,15.033296378372908,13.5,15.0,12.0,4.5,6.5,1.5,2.5,1.4142135623730951,1.4142135623730951,1.0,9.0,13.0,13.038404810405298
397,62,646,0,26.94358333333321,3.1622776601683795,27.294688127912362,3.0,5.0990195135927845,8.06225774829855,9.219544457292887,9.0,20.09975124224178,15.033296378372908,13.5,16.0,12.0,5.0,6.0,1.0,3.0,1.4142135623730951,2.0,1.5,8.0,13.0,13.152946437965905
398,62,647,0,26.985291666666544,2.23606797749979,27.294688127912362,4.123105625617661,6.0,7.0710678118654755,8.06225774829855,8.0,20.09975124224178,14.142135623730951,13.0,16.0,12.0,6.0,6.0,0.0,3.0,1.4142135623730951,1.0,1.0,8.0,13.0,14.035668847618199
399,62,648,0,27.02699999999988,3.1622776601683795,29.154759474226502,4.0,6.082762530298219,8.06225774829855,9.055385138137417,8.0,21.095023109728988,15.033296378372908,13.5,16.0,13.0,6.5,6.5,0.5,3.5,1.4142135623730951,1.0,1.0,7.0,13.0,14.142135623730951
400,62,649,0,27.06870833333321,2.23606797749979,29.154759474226502,4.0,6.082762530298219,8.06225774829855,9.055385138137417,8.06225774829855,20.223748416156685,14.142135623730951,13.0,15.0,12.0,5.5,6.5,0.5,2.5,1.4142135623730951,1.0,1.5,7.0,14.0,15.132745950421556
401,62,650,0,27.11041666666654,3.1622776601683795,29.274562336608895,3.0,6.082762530298219,8.0,9.055385138137417,8.06225774829855,20.223748416156685,14.142135623730951,12.5,15.0,11.0,5.0,7.0,1.0,2.0,1.4142135623730951,1.0,1.5,7.0,14.0,14.317821063276353
402,62,651,0,27.15212499999988,2.23606797749979,30.265491900843113,3.0,5.0990195135927845,8.06225774829855,8.06225774829855,9.055385138137417,19.235384061671343,14.142135623730951,13.0,15.0,11.0,4.0,6.0,1.0,2.0,2.0,1.0,1.0,7.0,13.0,14.142135623730951
403,62,652,0,27.19383333333321,1.0,30.265491900843113,4.0,6.082762530298219,9.219544457292887,9.055385138137417,8.06225774829855,18.24828759089466,12.165525060596439,12.0,15.0,11.0,5.0,5.0,1.0,2.0,1.4142135623730951,1.0,1.0,7.0,15.0,13.038404810405298
404,62,653,0,27.23554166666654,1.4142135623730951,28.442925306655784,3.0,5.0990195135927845,8.246211251235321,9.219544457292887,9.219544457292887,18.439088914585774,13.341664064126334,12.5,16.0,11.0,4.5,4.5,0.5,2.5,1.4142135623730951,1.0,1.5,6.0,13.0,15.132745950421556
405,62,654,0,27.27724999999987,1.4142135623730951,28.442925306655784,3.0,5.0990195135927845,8.246211251235321,9.219544457292887,9.219544457292887,18.439088914585774,13.341664064126334,12.5,16.0,11.0,4.5,4.5,0.5,2.5,1.4142135623730951,1.0,1.5,6.0,13.0,15.132745950421556
406,62,655,0,27.318958333333203,1.0,28.284271247461902,4.0,5.0,9.055385138137417,8.06225774829855,8.246211251235321,17.26267650163207,12.36931687685298,12.0,15.0,11.0,5.0,4.0,1.0,2.0,1.4142135623730951,1.4142135623730951,1.5,7.0,14.0,14.142135623730951
407,62,656,0,27.36066666666653,1.0,30.4138126514911,3.1622776601683795,5.0990195135927845,8.06225774829855,9.219544457292887,8.06225774829855,17.26267650163207,12.165525060596439,11.5,15.0,10.0,4.5,4.5,0.5,2.5,1.4142135623730951,1.0,1.5,7.0,15.0,14.142135623730951
408,62,657,0,27.402374999999868,2.0,29.274562336608895,3.1622776601683795,6.082762530298219,9.055385138137417,8.06225774829855,7.0,18.110770276274835,12.041594578792296,11.0,15.0,11.0,6.0,5.0,1.0,3.0,1.4142135623730951,1.0,1.0,9.0,17.0,15.132745950421556
409,62,658,0,27.4440833333332,1.0,29.427877939124322,4.123105625617661,6.082762530298219,9.055385138137417,8.246211251235321,6.0,17.11724276862369,11.045361017187261,10.5,14.0,9.0,5.5,5.5,0.5,2.5,1.4142135623730951,1.4142135623730951,1.5,9.0,17.0,15.132745950421556
410,62,659,0,27.485791666666533,2.23606797749979,28.442925306655784,4.0,7.0710678118654755,8.246211251235321,9.219544457292887,8.06225774829855,21.213203435596427,14.142135623730951,13.0,17.0,12.0,6.5,6.5,0.5,3.5,1.4142135623730951,1.0,1.0,11.0,18.0,16.278820596099706
411,62,660,0,27.527499999999865,1.0,29.614185789921695,4.0,4.0,8.06225774829855,8.246211251235321,10.0,18.027756377319946,14.035668847618199,14.0,19.0,13.0,6.0,2.0,2.0,3.0,3.0,2.23606797749979,2.0,14.0,17.0,16.278820596099706
412,62,661,0,27.5692083333332,5.0,28.160255680657446,3.1622776601683795,6.082762530298219,8.06225774829855,8.06225774829855,8.0,22.090722034374522,16.0312195418814,13.5,15.0,12.0,5.5,8.5,2.5,2.5,1.4142135623730951,1.4142135623730951,1.5,13.0,20.0,17.26267650163207
413,62,662,0,27.61091666666653,5.0,28.160255680657446,3.1622776601683795,6.082762530298219,8.06225774829855,8.06225774829855,8.0,22.090722034374522,16.0312195418814,13.5,15.0,12.0,5.5,8.5,2.5,2.5,1.4142135623730951,1.4142135623730951,1.5,13.0,20.0,17.26267650163207
414,62,663,0,27.652624999999865,3.1622776601683795,32.984845004941285,5.0990195135927845,7.0710678118654755,9.219544457292887,9.219544457292887,6.0,21.213203435596427,14.142135623730951,12.5,19.0,11.0,9.0,6.0,0.0,5.0,3.1622776601683795,3.1622776601683795,2.5,12.0,19.0,17.26267650163207
415,62,664,0,27.694333333333194,6.082762530298219,30.4138126514911,4.0,6.082762530298219,8.246211251235321,10.198039027185569,7.0710678118654755,23.194827009486403,17.11724276862369,14.0,17.0,12.0,7.5,8.5,2.5,4.5,2.23606797749979,2.23606797749979,2.0,12.0,20.0,18.439088914585774
416,62,665,0,27.736041666666527,3.1622776601683795,28.635642126552707,4.123105625617661,7.0710678118654755,9.055385138137417,9.219544457292887,8.06225774829855,22.360679774997898,15.297058540778355,13.5,17.0,11.0,6.0,8.0,1.0,3.0,2.23606797749979,2.23606797749979,2.0,12.0,19.0,16.1245154965971
417,62,666,0,27.77774999999986,5.0,29.832867780352597,3.1622776601683795,6.082762530298219,9.219544457292887,10.198039027185569,8.06225774829855,22.20360331117452,16.1245154965971,13.5,18.0,11.0,6.5,7.5,1.5,4.5,3.1622776601683795,2.23606797749979,2.0,10.0,16.0,15.132745950421556
418,62,667,0,27.81945833333319,3.1622776601683795,29.614185789921695,4.0,7.0710678118654755,8.246211251235321,10.198039027185569,9.055385138137417,23.194827009486403,16.1245154965971,14.5,19.0,13.0,7.0,7.0,1.0,4.0,2.23606797749979,3.1622776601683795,3.0,11.0,19.0,18.110770276274835
419,62,668,0,27.861166666666524,3.1622776601683795,30.59411708155671,3.0,6.082762530298219,8.246211251235321,9.219544457292887,8.06225774829855,20.223748416156685,14.142135623730951,12.5,16.0,10.0,5.0,7.0,2.0,3.0,3.1622776601683795,3.1622776601683795,3.5,11.0,19.0,18.24828759089466
420,62,669,0,27.902874999999856,3.1622776601683795,30.4138126514911,3.0,6.082762530298219,8.06225774829855,9.055385138137417,10.04987562112089,22.20360331117452,16.1245154965971,14.5,17.0,12.0,4.5,7.5,1.5,2.5,3.1622776601683795,3.1622776601683795,3.5,11.0,19.0,17.26267650163207
421,62,670,0,27.94458333333319,3.1622776601683795,30.4138126514911,3.0,6.082762530298219,8.06225774829855,9.055385138137417,10.04987562112089,22.20360331117452,16.1245154965971,14.5,17.0,12.0,4.5,7.5,1.5,2.5,3.1622776601683795,3.1622776601683795,3.5,11.0,19.0,17.26267650163207
422,62,671,0,27.98629166666652,3.1622776601683795,30.59411708155671,3.0,6.082762530298219,8.246211251235321,9.219544457292887,9.055385138137417,21.213203435596427,15.132745950421556,13.5,17.0,11.0,5.0,7.0,2.0,3.0,3.1622776601683795,3.1622776601683795,3.0,11.0,20.0,16.1245154965971
423,62,672,0,28.027999999999853,1.0,30.4138126514911,4.123105625617661,5.0990195135927845,8.06225774829855,9.219544457292887,9.055385138137417,19.235384061671343,14.142135623730951,13.5,16.0,11.0,4.5,5.5,0.5,1.5,3.1622776601683795,3.1622776601683795,3.5,9.0,18.0,17.11724276862369
424,62,673,0,28.069708333333185,1.4142135623730951,29.614185789921695,4.0,5.0990195135927845,8.06225774829855,9.219544457292887,9.055385138137417,19.235384061671343,14.142135623730951,13.5,17.0,11.0,5.0,5.0,0.0,2.0,3.1622776601683795,3.0,3.0,10.0,19.0,16.1245154965971
425,62,674,0,28.11141666666652,1.4142135623730951,29.614185789921695,4.0,5.0990195135927845,8.06225774829855,9.219544457292887,9.055385138137417,19.235384061671343,14.142135623730951,13.5,17.0,11.0,5.0,5.0,0.0,2.0,3.1622776601683795,3.0,3.0,10.0,19.0,16.1245154965971
426,62,675,0,28.15312499999985,14.0,41.30375285612676,4.123105625617661,6.0,10.04987562112089,11.180339887498949,10.04987562112089,34.0,28.0,21.0,20.0,15.0,7.5,16.5,10.5,4.5,2.0,3.1622776601683795,3.0,12.0,21.0,16.278820596099706
427,62,676,0,28.194833333333182,1.0,28.635642126552707,4.0,6.082762530298219,8.246211251235321,9.219544457292887,8.06225774829855,18.24828759089466,12.165525060596439,12.0,16.0,10.0,5.0,5.0,0.0,2.0,1.4142135623730951,1.4142135623730951,1.5,10.0,18.0,16.1245154965971
428,62,677,0,28.236541666666515,1.0,27.459060435491963,4.0,6.082762530298219,8.06225774829855,9.219544457292887,8.06225774829855,18.24828759089466,12.165525060596439,12.0,15.0,10.0,4.5,5.5,0.5,1.5,1.4142135623730951,2.23606797749979,2.0,10.0,17.0,15.132745950421556
429,62,678,0,28.278249999999847,1.0,27.459060435491963,4.0,6.082762530298219,8.06225774829855,9.219544457292887,8.06225774829855,18.24828759089466,12.165525060596439,12.0,15.0,10.0,4.5,5.5,0.5,1.5,1.4142135623730951,2.23606797749979,2.0,10.0,17.0,15.132745950421556
430,62,679,0,28.31995833333318,1.4142135623730951,29.427877939124322,4.0,6.082762530298219,8.06225774829855,9.219544457292887,8.06225774829855,17.26267650163207,11.180339887498949,11.5,15.0,10.0,4.5,4.5,0.5,1.5,1.4142135623730951,1.0,1.0,10.0,17.0,16.1245154965971
431,62,680,0,28.361666666666512,1.4142135623730951,29.274562336608895,4.0,6.0,9.055385138137417,10.198039027185569,8.06225774829855,19.1049731745428,13.152946437965905,12.5,15.0,11.0,5.0,6.0,0.0,2.0,2.0,2.0,2.0,10.0,16.0,15.033296378372908
432,62,681,0,28.403374999999844,3.1622776601683795,29.274562336608895,4.0,6.082762530298219,8.06225774829855,9.055385138137417,7.0,20.09975124224178,14.035668847618199,12.5,16.0,12.0,7.0,6.0,0.0,3.0,3.1622776601683795,2.0,2.0,11.0,16.0,16.0
433,62,682,0,28.445083333333177,3.0,27.16615541441225,4.0,6.082762530298219,8.06225774829855,9.055385138137417,8.06225774829855,21.095023109728988,15.033296378372908,13.5,16.0,13.0,6.5,6.5,0.5,3.5,2.0,2.23606797749979,2.0,11.0,16.0,17.029386365926403
434,62,683,0,28.48679166666651,3.0,26.076809620810597,3.1622776601683795,5.0,7.0710678118654755,8.0,9.0,20.024984394500787,15.033296378372908,13.5,15.0,13.0,5.0,6.0,0.0,3.0,3.1622776601683795,3.1622776601683795,3.0,11.0,15.0,16.0
435,62,684,0,28.52849999999984,5.0,36.22154055254967,4.0,7.0710678118654755,11.045361017187261,11.045361017187261,11.180339887498949,27.16615541441225,20.09975124224178,17.5,16.0,20.0,7.0,9.0,1.0,3.0,2.23606797749979,3.1622776601683795,3.0,18.0,10.0,16.492422502470642
436,62,685,0,28.570208333333174,6.0,35.22782990761707,4.123105625617661,6.0,10.04987562112089,11.045361017187261,10.04987562112089,26.076809620810597,20.09975124224178,17.0,16.0,20.0,8.0,8.0,1.0,4.0,3.0,3.1622776601683795,3.0,18.0,11.0,15.524174696260024
437,62,686,0,28.611916666666502,4.0,34.36568055487916,4.123105625617661,8.06225774829855,10.04987562112089,11.045361017187261,12.165525060596439,28.284271247461902,20.223748416156685,18.0,16.0,21.0,6.5,9.5,0.5,2.5,3.0,3.0,3.0,19.0,11.0,15.132745950421556
438,62,687,0,28.65362499999984,2.0,35.22782990761707,5.0,8.06225774829855,10.04987562112089,11.045361017187261,11.180339887498949,26.1725046566048,18.110770276274835,17.0,16.0,20.0,7.0,8.0,0.0,2.0,2.0,2.23606797749979,2.0,18.0,11.0,14.317821063276353
439,62,688,0,28.69533333333317,4.0,35.22782990761707,4.0,6.082762530298219,10.0,11.045361017187261,9.219544457292887,23.194827009486403,17.11724276862369,15.0,14.0,18.0,7.0,7.0,0.0,3.0,3.0,2.23606797749979,2.0,19.0,11.0,15.297058540778355
440,62,689,0,28.737041666666503,4.0,35.22782990761707,4.0,6.082762530298219,10.0,11.045361017187261,9.219544457292887,23.194827009486403,17.11724276862369,15.0,14.0,18.0,7.0,7.0,0.0,3.0,3.0,2.23606797749979,2.0,19.0,11.0,15.297058540778355
441,62,690,0,28.778749999999835,0.0,37.33630940518894,6.082762530298219,9.0,11.180339887498949,11.045361017187261,11.180339887498949,26.1725046566048,17.26267650163207,17.0,15.0,20.0,6.5,8.5,1.5,0.5,2.0,2.23606797749979,2.5,18.0,10.0,16.492422502470642
442,62,691,0,28.820458333333168,5.0,35.12833614050059,4.123105625617661,8.06225774829855,10.04987562112089,11.0,11.180339887498949,28.284271247461902,20.223748416156685,17.5,16.0,19.0,6.5,10.5,1.5,2.5,2.0,3.1622776601683795,2.5,18.0,10.0,16.278820596099706
443,62,692,0,28.8621666666665,8.06225774829855,35.22782990761707,3.0,8.06225774829855,9.055385138137417,11.045361017187261,11.180339887498949,30.265491900843113,22.20360331117452,18.0,16.0,20.0,7.0,12.0,3.0,3.0,2.0,3.605551275463989,2.5,18.0,11.0,15.132745950421556
444,62,693,0,28.903874999999832,8.06225774829855,35.22782990761707,3.0,8.06225774829855,9.055385138137417,11.045361017187261,11.180339887498949,30.265491900843113,22.20360331117452,18.0,16.0,20.0,7.0,12.0,3.0,3.0,2.0,3.605551275463989,2.5,18.0,11.0,15.132745950421556
445,62,694,0,28.945583333333165,8.06225774829855,34.23448553724738,4.0,8.0,11.045361017187261,11.045361017187261,11.180339887498949,31.144823004794873,23.194827009486403,19.0,17.0,21.0,8.0,12.0,3.0,3.0,2.0,2.23606797749979,2.0,18.0,11.0,14.317821063276353
446,62,695,0,28.987291666666497,8.06225774829855,34.23448553724738,4.0,7.0,9.055385138137417,11.045361017187261,11.180339887498949,30.14962686336267,23.194827009486403,19.0,17.0,21.0,8.0,11.0,3.0,4.0,2.0,2.23606797749979,2.5,18.0,11.0,15.297058540778355
447,62,696,0,29.02899999999983,8.0,34.23448553724738,3.1622776601683795,7.0710678118654755,10.04987562112089,11.045361017187261,11.180339887498949,29.274562336608895,22.20360331117452,18.0,16.0,20.0,7.0,11.0,2.0,4.0,3.0,3.0,3.0,18.0,11.0,16.278820596099706
448,62,697,0,29.07070833333316,8.0,34.23448553724738,3.1622776601683795,7.0710678118654755,10.04987562112089,11.045361017187261,11.180339887498949,29.274562336608895,22.20360331117452,18.0,16.0,20.0,7.0,11.0,2.0,4.0,3.0,3.0,3.0,18.0,11.0,16.278820596099706
449,62,698,0,29.11241666666649,8.0,35.12833614050059,4.123105625617661,8.06225774829855,11.045361017187261,12.165525060596439,11.180339887498949,31.25699921617557,23.194827009486403,19.0,17.0,20.0,7.5,12.5,2.5,3.5,3.1622776601683795,3.0,3.0,18.0,11.0,15.132745950421556
450,62,699,0,29.154124999999823,8.0,34.132096331752024,4.123105625617661,7.0710678118654755,10.04987562112089,11.045361017187261,11.045361017187261,30.14962686336267,23.08679276123039,19.0,17.0,20.0,7.5,11.5,2.5,3.5,2.0,2.23606797749979,2.5,18.0,11.0,14.142135623730951
451,62,700,0,29.19583333333316,5.0990195135927845,33.24154027718932,4.0,8.06225774829855,10.04987562112089,10.04987562112089,12.165525060596439,29.274562336608895,21.213203435596427,18.5,16.0,20.0,6.0,11.0,2.0,2.0,3.0,3.1622776601683795,3.0,18.0,11.0,18.24828759089466
452,62,701,0,29.23754166666649,5.0990195135927845,33.24154027718932,4.0,8.06225774829855,10.04987562112089,10.04987562112089,12.165525060596439,29.274562336608895,21.213203435596427,18.5,16.0,20.0,6.0,11.0,2.0,2.0,3.0,3.1622776601683795,3.0,18.0,11.0,18.24828759089466
453,62,702,0,29.279249999999823,4.0,36.124783736376884,5.0,7.0,11.045361017187261,12.041594578792296,12.165525060596439,28.071337695236398,21.095023109728988,19.0,17.0,20.0,6.5,9.5,0.5,1.5,3.0,3.1622776601683795,3.0,18.0,11.0,17.26267650163207
454,62,703,0,29.32095833333316,3.0,35.22782990761707,4.123105625617661,7.0710678118654755,9.055385138137417,11.045361017187261,12.165525060596439,26.30589287593181,19.235384061671343,17.5,16.0,20.0,6.0,8.0,0.0,2.0,2.0,2.23606797749979,2.5,18.0,11.0,17.26267650163207
455,62,704,0,29.362666666666488,6.0,35.35533905932738,4.0,7.0710678118654755,11.045361017187261,11.045361017187261,12.165525060596439,29.154759474226502,22.090722034374522,19.0,16.0,21.0,6.5,10.5,1.5,2.5,3.0,3.1622776601683795,3.0,19.0,11.0,15.297058540778355
456,62,705,0,29.40437499999982,6.0,35.35533905932738,4.0,7.0710678118654755,11.045361017187261,11.045361017187261,12.165525060596439,29.154759474226502,22.090722034374522,19.0,16.0,21.0,6.5,10.5,1.5,2.5,3.0,3.1622776601683795,3.0,19.0,11.0,15.297058540778355
457,62,706,0,29.44608333333316,6.0,35.22782990761707,4.123105625617661,8.06225774829855,10.198039027185569,11.045361017187261,11.180339887498949,29.274562336608895,21.213203435596427,18.0,16.0,20.0,7.0,11.0,2.0,2.0,3.1622776601683795,3.0,3.0,18.0,11.0,16.278820596099706
458,62,707,0,29.487791666666485,4.123105625617661,35.22782990761707,4.123105625617661,7.0710678118654755,10.198039027185569,11.180339887498949,11.045361017187261,26.30589287593181,19.235384061671343,17.0,15.0,19.0,6.0,9.0,0.0,2.0,2.23606797749979,2.23606797749979,2.0,19.0,11.0,15.297058540778355
459,62,708,0,29.529499999999818,2.0,35.22782990761707,4.123105625617661,7.0710678118654755,11.045361017187261,11.045361017187261,12.041594578792296,25.179356624028344,18.110770276274835,17.0,15.0,19.0,5.0,8.0,1.0,1.0,2.23606797749979,3.1622776601683795,2.5,18.0,11.0,17.26267650163207
460,62,709,0,29.57120833333315,3.0,35.12833614050059,4.123105625617661,8.0,11.045361017187261,11.045361017187261,11.045361017187261,26.076809620810597,18.110770276274835,16.5,16.0,19.0,6.5,8.5,1.5,2.5,2.0,2.23606797749979,2.5,18.0,10.0,17.26267650163207
461,62,710,0,29.61291666666648,3.1622776601683795,34.23448553724738,4.0,8.0,10.198039027185569,10.04987562112089,12.165525060596439,27.16615541441225,19.235384061671343,17.5,15.0,19.0,5.0,10.0,0.0,1.0,3.1622776601683795,2.23606797749979,2.5,19.0,11.0,17.46424919657298
462,62,711,0,29.65462499999981,6.082762530298219,35.35533905932738,4.123105625617661,8.06225774829855,11.045361017187261,12.041594578792296,11.045361017187261,29.274562336608895,21.213203435596427,18.0,15.0,20.0,6.5,11.5,2.5,2.5,2.0,2.23606797749979,2.0,19.0,11.0,14.317821063276353
463,62,712,0,29.696333333333147,4.0,37.48332962798263,3.1622776601683795,7.0710678118654755,10.198039027185569,11.180339887498949,11.180339887498949,25.317977802344327,18.24828759089466,16.0,14.0,20.0,6.0,8.0,1.0,2.0,2.0,2.23606797749979,2.0,18.0,9.0,16.492422502470642
464,62,713,0,29.73804166666648,4.0,37.48332962798263,3.1622776601683795,7.0710678118654755,10.198039027185569,11.180339887498949,11.180339887498949,25.317977802344327,18.24828759089466,16.0,14.0,20.0,6.0,8.0,1.0,2.0,2.0,2.23606797749979,2.0,18.0,9.0,16.492422502470642
465,62,714,0,29.77974999999981,3.1622776601683795,35.22782990761707,4.0,7.0710678118654755,10.04987562112089,10.04987562112089,11.180339887498949,25.317977802344327,18.24828759089466,16.5,16.0,20.0,7.0,7.0,1.0,3.0,2.0,2.8284271247461903,2.0,18.0,9.0,15.297058540778355
466,62,715,0,29.821458333333144,3.0,38.47076812334269,4.123105625617661,7.0710678118654755,11.180339887498949,12.165525060596439,10.44030650891055,24.515301344262525,17.46424919657298,15.5,13.0,19.0,6.0,8.0,0.0,2.0,1.4142135623730951,2.23606797749979,2.0,19.0,10.0,17.46424919657298
467,62,716,0,29.86316666666648,6.082762530298219,37.8549864614954,3.1622776601683795,7.0710678118654755,10.198039027185569,12.36931687685298,12.36931687685298,28.635642126552707,21.587033144922902,18.0,13.0,21.0,5.0,11.0,2.0,1.0,1.4142135623730951,1.4142135623730951,1.0,21.0,10.0,16.492422502470642
468,62,717,0,29.90487499999981,6.082762530298219,37.8549864614954,3.1622776601683795,7.0710678118654755,10.198039027185569,12.36931687685298,12.36931687685298,28.635642126552707,21.587033144922902,18.0,13.0,21.0,5.0,11.0,2.0,1.0,1.4142135623730951,1.4142135623730951,1.0,21.0,10.0,16.492422502470642
469,62,718,0,29.94658333333314,6.0,39.81205847478876,4.123105625617661,8.246211251235321,10.198039027185569,12.165525060596439,10.44030650891055,28.635642126552707,20.396078054371138,17.0,12.0,20.0,6.0,12.0,2.0,1.0,1.0,2.8284271247461903,2.0,20.0,9.0,17.46424919657298
470,62,719,0,29.98829166666648,5.0,38.8329756778952,3.1622776601683795,8.246211251235321,11.180339887498949,12.165525060596439,11.40175425099138,27.65863337187866,19.4164878389476,16.5,12.0,20.0,5.0,11.0,1.0,1.0,2.23606797749979,2.23606797749979,2.0,20.0,9.0,16.492422502470642
471,62,720,0,30.02999999999981,2.23606797749979,39.6232255123179,5.0,7.0710678118654755,11.180339887498949,12.165525060596439,10.44030650891055,24.515301344262525,17.46424919657298,16.0,12.0,19.0,5.5,8.5,0.5,0.5,2.23606797749979,2.8284271247461903,2.0,20.0,9.0,17.26267650163207
472,62,721,0,30.07170833333313,2.23606797749979,39.6232255123179,5.0,7.0710678118654755,11.180339887498949,12.165525060596439,10.44030650891055,24.515301344262525,17.46424919657298,16.0,12.0,19.0,5.5,8.5,0.5,0.5,2.23606797749979,2.8284271247461903,2.0,20.0,9.0,17.26267650163207
473,62,722,0,30.11341666666647,4.123105625617661,39.6232255123179,4.123105625617661,7.0710678118654755,11.180339887498949,12.041594578792296,11.180339887498949,26.476404589747453,19.4164878389476,17.0,13.0,20.0,5.5,9.5,0.5,0.5,1.0,2.23606797749979,2.0,19.0,10.0,16.492422502470642
474,62,723,0,30.155124999999803,3.0,39.45883931389772,4.123105625617661,8.06225774829855,11.180339887498949,13.152946437965905,11.180339887498949,26.30589287593181,18.24828759089466,16.5,13.0,19.0,5.0,10.0,0.0,0.0,1.0,1.4142135623730951,1.5,19.0,10.0,17.46424919657298
475,62,724,0,30.19683333333313,5.0,37.33630940518894,4.123105625617661,8.06225774829855,11.045361017187261,12.165525060596439,11.180339887498949,28.284271247461902,20.223748416156685,17.5,14.0,19.0,5.5,11.5,2.5,1.5,2.0,2.23606797749979,2.0,19.0,10.0,17.46424919657298
476,62,725,0,30.238541666666467,4.0,37.33630940518894,5.0990195135927845,8.06225774829855,11.045361017187261,12.041594578792296,10.198039027185569,27.294688127912362,19.235384061671343,17.0,14.0,19.0,6.5,10.5,0.5,1.5,2.23606797749979,2.23606797749979,2.5,19.0,10.0,17.46424919657298
477,62,726,0,30.2802499999998,6.082762530298219,37.48332962798263,4.0,7.0710678118654755,10.04987562112089,12.041594578792296,11.180339887498949,28.284271247461902,21.213203435596427,18.0,14.0,20.0,6.0,11.0,3.0,2.0,2.0,2.23606797749979,2.5,19.0,11.0,16.278820596099706
478,62,727,0,30.32195833333313,7.0,35.510561809129406,4.123105625617661,7.0710678118654755,10.04987562112089,11.180339887498949,11.180339887498949,29.274562336608895,22.20360331117452,18.5,15.0,21.0,7.0,11.0,2.0,3.0,2.23606797749979,3.1622776601683795,3.0,19.0,11.0,15.297058540778355
479,62,728,0,30.363666666666465,2.0,34.132096331752024,4.0,8.06225774829855,10.04987562112089,11.045361017187261,11.180339887498949,25.179356624028344,17.11724276862369,16.0,15.0,18.0,5.5,8.5,0.5,1.5,2.0,2.23606797749979,2.5,18.0,12.0,17.11724276862369
480,62,729,0,30.4053749999998,2.0,34.132096331752024,4.0,8.06225774829855,10.04987562112089,11.045361017187261,11.180339887498949,25.179356624028344,17.11724276862369,16.0,15.0,18.0,5.5,8.5,0.5,1.5,2.0,2.23606797749979,2.5,18.0,12.0,17.11724276862369
481,62,730,0,30.44708333333313,2.0,32.14031735997639,4.123105625617661,8.0,9.055385138137417,10.0,11.180339887498949,25.179356624028344,17.26267650163207,16.0,15.0,18.0,5.5,8.5,0.5,1.5,2.0,2.0,2.0,19.0,13.0,16.1245154965971
482,62,731,0,30.48879166666646,5.0,32.14031735997639,4.0,8.06225774829855,9.0,11.045361017187261,11.180339887498949,28.160255680657446,20.09975124224178,17.5,16.0,19.0,6.5,10.5,0.5,2.5,2.23606797749979,3.0,3.0,18.0,13.0,16.1245154965971
483,62,732,0,30.5304999999998,4.0,35.014282800023196,4.0,8.06225774829855,10.0,11.0,10.198039027185569,26.1725046566048,18.110770276274835,16.0,16.0,17.0,6.5,9.5,0.5,2.5,1.0,2.0,2.0,17.0,13.0,15.033296378372908
484,62,733,0,30.572208333333126,4.0,35.014282800023196,4.0,8.06225774829855,10.0,11.0,10.198039027185569,26.1725046566048,18.110770276274835,16.0,16.0,17.0,6.5,9.5,0.5,2.5,1.0,2.0,2.0,17.0,13.0,15.033296378372908
