,frame_seq,m1,m3,m4,m5,m6,m7,m8,m9,m10,m11,m12,m13,m14,m15,m16,m17,e1,e2,e3,b1,b2,b3,label_measures
0,0,5.0990195135927845,103.9471019317037,12.0,18.027756377319943,25.317977802344327,27.459060435491963,40.01249804748511,65.00769185258002,47.0,49.5,62.0,48.0,15.0,10.0,7.0,6.0,22.0,21.095023109728988,21.5,66.0,65.0,51.0881590977792,{}
1,1,14.0,87.0,7.071067811865476,17.029386365926403,21.02379604162864,22.02271554554524,27.018512172212592,65.06919393998976,48.04164859785725,41.0,42.0,42.0,15.0,23.0,5.0,8.0,16.1245154965971,16.0,16.5,37.0,35.0,33.015148038438355,{}
2,2,12.0,86.00581375697809,8.06225774829855,15.033296378372908,20.024984394500787,22.0,26.019223662515376,61.07372593840988,46.04345773288535,40.0,42.0,41.0,15.5,19.5,3.5,8.5,16.0312195418814,16.0,16.5,38.0,36.0,37.05401462729781,{}
3,3,2.23606797749979,88.0,11.0,17.0,21.0,22.02271554554524,28.0713376952364,58.077534382926416,41.10960958218893,40.0,41.0,41.0,13.0,17.0,1.0,3.0,15.033296378372908,15.0,15.5,38.0,36.0,36.013886210738214,{}
4,4,1.0,87.0,10.0,16.0312195418814,21.02379604162864,23.0,28.0713376952364,55.08175741568164,39.05124837953327,38.5,40.0,40.0,12.0,15.0,2.0,3.0,16.0312195418814,15.0,16.0,38.0,38.0,34.058772731852805,{}
5,5,1.0,88.0,10.0,17.0,21.0,24.0,28.16025568065745,56.08029957123981,39.11521443121589,38.5,40.0,40.0,12.0,16.0,2.0,3.0,15.033296378372908,15.0,15.5,37.0,37.0,32.01562118716424,{}
6,6,7.071067811865476,86.0,8.0,16.0,21.095023109728988,23.0,27.073972741361768,58.077534382926416,42.1070065428546,38.5,40.0,40.0,13.0,18.0,1.0,5.0,16.0312195418814,15.0,15.5,38.0,37.0,33.06055050963308,{}
7,7,13.038404810405298,87.02298546935747,8.0,17.029386365926403,21.095023109728988,23.021728866442675,25.179356624028344,63.198101237299845,46.17358552246078,39.5,38.0,40.0,14.0,24.0,6.0,6.0,15.132745950421556,15.033296378372908,15.5,38.0,36.0,34.058772731852805,{}
8,8,15.033296378372908,89.02246907382428,7.0,18.027756377319943,20.09975124224178,22.02271554554524,25.079872407968907,65.12296062065974,47.09564735726647,39.5,37.0,39.0,13.0,27.0,8.0,6.0,15.132745950421556,16.0,16.0,39.0,36.0,33.06055050963308,{}
9,9,19.026297590440446,90.08884503644168,8.0,18.027756377319943,20.09975124224178,23.021728866442675,25.079872407968907,70.11419257183242,52.08646657242167,42.5,37.0,41.0,14.0,31.0,12.0,5.0,16.0312195418814,15.0,15.5,39.0,35.0,35.12833614050059,{}
10,10,22.02271554554524,89.20201791439474,8.06225774829855,18.027756377319943,21.095023109728988,23.08679276123039,24.186773244895647,72.24956747275377,54.230987451824994,43.0,36.0,42.0,15.0,33.0,13.0,6.0,15.132745950421556,15.0,15.0,39.0,34.0,32.14031735997639,{}
11,11,22.09072203437452,86.14522621712709,8.0,18.027756377319943,21.095023109728988,24.020824298928627,26.30589287593181,74.33034373659252,56.32051136131489,45.0,38.0,43.0,14.5,33.5,13.5,6.5,15.132745950421556,15.0,15.5,37.0,31.0,33.13608305156178,{}
12,12,21.02379604162864,86.14522621712709,8.06225774829855,17.11724276862369,20.09975124224178,23.021728866442675,26.30589287593181,72.44308110509934,55.326304774492215,44.5,38.0,43.0,14.5,31.5,12.5,6.5,16.1245154965971,15.0,15.0,38.0,32.0,34.23448553724738,{}
13,13,17.11724276862369,86.20904824900923,8.0,18.110770276274835,20.09975124224178,23.021728866442675,27.459060435491963,70.57619995437555,52.46903848937962,43.5,38.0,44.0,14.0,29.0,9.0,6.0,15.132745950421556,15.033296378372908,15.0,37.0,30.0,31.14482300479488,{}
14,14,18.027756377319943,86.20904824900923,8.06225774829855,18.110770276274835,21.213203435596427,23.08679276123039,27.459060435491963,71.56814934033156,53.46026561849464,44.0,38.0,44.0,14.0,30.0,10.0,5.0,15.297058540778355,15.033296378372908,15.5,40.0,32.0,35.12833614050059,{}
15,15,19.026297590440446,85.28774824088158,9.055385138137416,19.1049731745428,20.09975124224178,22.02271554554524,27.29468812791236,74.43117626371358,55.326304774492215,45.5,39.0,46.0,15.5,31.5,10.5,6.5,15.132745950421556,15.033296378372908,15.5,41.0,33.0,34.23448553724738,{}
16,16,21.02379604162864,83.2946576918352,10.04987562112089,19.1049731745428,19.1049731745428,22.02271554554524,26.30589287593181,76.4198926981712,57.3149195236284,46.5,39.0,46.0,16.5,33.5,12.5,6.5,16.1245154965971,16.0312195418814,15.5,41.0,32.0,34.23448553724738,{}
17,17,25.079872407968907,80.50465825031493,9.055385138137416,20.09975124224178,20.223748416156685,22.09072203437452,27.459060435491963,81.61494961096282,61.5223536610881,48.5,41.0,50.0,18.5,35.5,13.5,8.5,15.132745950421556,15.033296378372908,15.5,41.0,33.0,36.22154055254967,"{'neutral': (['m1', 'm3', 'm12', 'e1', 'e2'], None, 22)}"
18,18,30.066592756745816,81.49846624323675,9.055385138137416,19.1049731745428,20.223748416156685,22.09072203437452,27.459060435491963,85.58621384311844,66.48308055437865,51.0,42.0,51.0,19.5,38.5,17.5,9.5,16.1245154965971,15.033296378372908,15.5,44.0,35.0,37.21558813185679,"{'neutral': (['m1', 'm3', 'm12', 'e1', 'e2'], None, 22)}"
19,19,29.068883707497267,84.38009243891595,9.055385138137416,19.1049731745428,20.09975124224178,24.08318915758459,26.30589287593181,83.48652585896721,64.38167441127949,49.5,41.0,49.0,19.0,38.0,16.0,9.0,16.1245154965971,15.0,15.5,42.0,34.0,36.22154055254967,"{'neutral': (['m1', 'm3', 'm12', 'e1', 'e2'], None, 22)}"
20,20,24.08318915758459,85.21150157109074,9.055385138137416,18.110770276274835,20.223748416156685,23.08679276123039,27.29468812791236,78.5175139698144,60.40695324215582,48.0,41.0,47.0,17.0,34.0,14.0,7.0,16.1245154965971,16.0,16.0,43.0,35.0,36.12478373637688,"{'neutral': (['m1', 'm3', 'm12', 'e1', 'e2'], None, 22)}"
21,21,18.027756377319943,90.08884503644168,9.055385138137416,19.1049731745428,21.095023109728988,24.020824298928627,27.29468812791236,73.43704787094863,54.3323108288245,45.0,41.0,45.0,16.0,30.0,10.0,7.0,16.278820596099706,16.0,16.0,42.0,34.0,36.12478373637688,"{'neutral': (['m1', 'm3', 'm12', 'e1', 'e2'], None, 22)}"
22,22,13.152946437965904,89.20201791439474,10.04987562112089,19.026297590440446,20.223748416156685,22.02271554554524,26.1725046566048,68.3593446428504,49.36598018878993,42.5,38.0,44.0,15.0,27.0,7.0,4.0,16.1245154965971,16.0,16.0,41.0,34.0,33.24154027718932,"{'neutral': (['m1', 'm3', 'm12', 'e1', 'e2'], None, 22)}"
23,23,14.0356688476182,90.13878188659972,10.04987562112089,18.110770276274835,20.09975124224178,22.09072203437452,26.30589287593181,68.46897107449476,50.35871324805669,43.0,38.0,43.0,14.5,27.5,7.5,4.5,16.278820596099706,16.0,16.0,40.0,33.0,32.14031735997639,"{'neutral': (['m1', 'm3', 'm12', 'e1', 'e2'], None, 22)}"
24,24,15.033296378372908,88.14193099768123,10.04987562112089,19.1049731745428,20.09975124224178,23.021728866442675,27.16615541441225,71.34423592694787,52.23983154643591,44.5,40.0,45.0,15.5,28.5,7.5,5.5,16.1245154965971,16.0,16.0,39.0,34.0,32.14031735997639,"{'neutral': (['m1', 'm3', 'm12', 'e1', 'e2'], None, 22)}"
25,25,16.1245154965971,86.09297300012354,9.055385138137416,19.026297590440446,20.09975124224178,22.02271554554524,27.16615541441225,71.34423592694787,52.3450093132096,44.0,41.0,45.0,16.0,28.0,7.0,6.0,16.1245154965971,16.0312195418814,16.5,40.0,34.0,33.13608305156178,"{'neutral': (['m1', 'm3', 'm12', 'e1', 'e2'], None, 22)}"
26,26,13.038404810405298,86.14522621712709,10.04987562112089,20.024984394500787,19.1049731745428,22.02271554554524,26.30589287593181,69.35416353759881,49.36598018878993,42.5,39.0,44.0,15.5,27.5,6.5,4.5,16.1245154965971,16.0312195418814,16.5,41.0,34.0,33.06055050963308,"{'neutral': (['m1', 'm3', 'm12', 'e1', 'e2'], None, 22)}"
27,27,15.132745950421556,83.15046602394962,10.04987562112089,19.026297590440446,19.1049731745428,21.02379604162864,27.29468812791236,71.449282711585,52.46903848937962,44.5,41.0,46.0,16.5,27.5,6.5,5.5,16.1245154965971,16.0,16.5,38.0,32.0,32.0624390837628,"{'neutral': (['m1', 'm3', 'm12', 'e1', 'e2'], None, 22)}"
28,28,16.0312195418814,80.15609770940699,11.04536101718726,19.1049731745428,18.110770276274835,21.02379604162864,27.459060435491963,73.55270219373317,54.45181356024793,46.0,42.0,47.0,17.5,28.5,7.5,6.5,17.11724276862369,16.0,16.5,42.0,35.0,37.12142238654117,"{'neutral': (['m1', 'm3', 'm12', 'e1', 'e2'], None, 22)}"
29,29,19.1049731745428,78.23042886243178,11.04536101718726,19.026297590440446,18.110770276274835,21.095023109728988,27.29468812791236,76.4198926981712,57.42821606144492,47.5,44.0,50.0,20.0,29.0,8.0,9.0,16.1245154965971,17.0,17.0,42.0,35.0,37.05401462729781,"{'neutral': (['m1', 'm3', 'm12', 'e1', 'e2'], None, 22)}"
30,30,12.0,76.23647421018367,12.041594578792296,21.095023109728988,18.110770276274835,21.02379604162864,28.442925306655784,73.43704787094863,52.3450093132096,46.0,43.0,49.0,18.0,27.0,4.0,6.0,16.1245154965971,15.0,15.5,45.0,36.0,37.12142238654117,"{'neutral': (['m1', 'm3', 'm12', 'e1', 'e2'], None, 22)}"
31,31,7.071067811865476,77.23341245859851,12.041594578792296,20.09975124224178,18.110770276274835,21.02379604162864,29.42787793912432,68.59300255857006,48.507731342539614,44.5,43.0,49.0,17.0,22.0,0.0,5.0,17.11724276862369,16.0312195418814,16.0,46.0,36.0,38.2099463490856,"{'neutral': (['m1', 'm3', 'm12', 'e1', 'e2'], None, 22)}"
32,32,6.082762530298219,80.22468448052632,11.04536101718726,19.026297590440446,18.110770276274835,21.095023109728988,29.27456233660889,65.37583651472461,46.389654018972806,43.0,41.0,47.0,15.0,21.0,1.0,4.0,16.278820596099706,15.0,15.5,47.0,36.0,36.22154055254967,"{'neutral': (['m1', 'm3', 'm12', 'e1', 'e2'], None, 22)}"
33,33,11.04536101718726,83.21658488546619,12.041594578792296,20.09975124224178,20.09975124224178,23.08679276123039,29.27456233660889,72.44308110509934,52.3450093132096,46.5,42.0,48.0,16.0,27.0,5.0,4.0,16.1245154965971,15.033296378372908,15.5,47.0,36.0,40.311288741492746,"{'neutral': (['m1', 'm3', 'm12', 'e1', 'e2'], None, 22)}"
34,34,17.029386365926403,83.21658488546619,12.041594578792296,20.09975124224178,20.09975124224178,24.020824298928627,28.284271247461906,77.41446893184762,57.3149195236284,48.5,43.0,49.0,18.0,31.0,9.0,6.0,16.1245154965971,16.0312195418814,16.0,46.0,35.0,39.319206502675,"{'neutral': (['m1', 'm3', 'm12', 'e1', 'e2'], None, 22)}"
35,35,11.180339887498947,86.20904824900923,11.04536101718726,20.024984394500787,21.095023109728988,24.020824298928627,29.27456233660889,71.449282711585,51.47815070493501,45.5,41.0,47.0,15.0,27.0,6.0,4.0,15.132745950421556,16.0,16.0,44.0,34.0,36.22154055254967,"{'neutral': (['m1', 'm3', 'm12', 'e1', 'e2'], None, 22)}"
36,36,7.071067811865476,87.09190547921202,11.04536101718726,19.1049731745428,22.02271554554524,23.0,30.26549190084312,67.47592163134935,48.373546489791295,44.5,42.0,46.0,14.0,23.0,3.0,3.0,16.1245154965971,15.0,15.5,46.0,35.0,40.19950248448356,"{'neutral': (['m1', 'm3', 'm12', 'e1', 'e2'], None, 22)}"
37,37,8.06225774829855,86.09297300012354,11.04536101718726,19.1049731745428,21.02379604162864,23.021728866442675,31.14482300479488,69.35416353759881,50.24937810560445,46.0,43.0,47.0,14.0,24.0,3.0,4.0,16.1245154965971,15.033296378372908,15.5,47.0,35.0,39.319206502675,"{'neutral': (['m1', 'm3', 'm12', 'e1', 'e2'], None, 22)}"
38,38,10.04987562112089,86.09297300012354,12.041594578792296,21.095023109728988,21.095023109728988,23.021728866442675,30.14962686336267,73.33484846919642,52.23983154643591,47.0,43.0,47.0,15.0,28.0,5.0,3.0,17.26267650163207,15.033296378372908,15.5,44.0,36.0,37.21558813185679,"{'neutral': (['m1', 'm3', 'm12', 'e1', 'e2'], None, 22)}"
39,39,13.038404810405298,88.09086218218096,11.04536101718726,20.024984394500787,22.02271554554524,24.020824298928627,29.154759474226505,73.24616030891995,53.23532661682466,46.5,42.0,46.0,15.0,29.0,8.0,5.0,16.1245154965971,16.0312195418814,16.0,46.0,36.0,37.33630940518894,"{'neutral': (['m1', 'm3', 'm12', 'e1', 'e2'], None, 22)}"
40,40,13.038404810405298,88.14193099768123,11.04536101718726,21.095023109728988,21.02379604162864,24.020824298928627,28.16025568065745,73.33484846919642,52.23983154643591,45.5,42.0,47.0,16.5,28.5,6.5,5.5,16.278820596099706,15.033296378372908,15.5,48.0,38.0,40.19950248448356,"{'neutral': (['m1', 'm3', 'm12', 'e1', 'e2'], None, 22)}"
41,41,12.041594578792296,88.09086218218096,11.04536101718726,21.02379604162864,21.02379604162864,23.021728866442675,28.284271247461906,72.3394774656273,51.35172830587107,45.0,42.0,46.0,16.0,28.0,6.0,5.0,16.278820596099706,16.0,16.5,45.0,35.0,35.22782990761707,"{'neutral': (['m1', 'm3', 'm12', 'e1', 'e2'], None, 22)}"
42,42,13.038404810405298,88.09086218218096,11.04536101718726,20.024984394500787,21.02379604162864,24.0,28.16025568065745,72.24956747275377,52.23983154643591,45.5,42.0,46.0,16.0,28.0,7.0,5.0,15.132745950421556,15.033296378372908,15.5,44.0,35.0,36.22154055254967,"{'neutral': (['m1', 'm3', 'm12', 'e1', 'e2'], None, 22)}"
43,43,13.038404810405298,87.09190547921202,11.0,20.09975124224178,21.095023109728988,24.020824298928627,27.29468812791236,71.34423592694787,51.24451190127583,44.5,42.0,46.0,17.0,27.0,6.0,6.0,16.278820596099706,15.033296378372908,15.5,46.0,36.0,36.22154055254967,"{'neutral': (['m1', 'm3', 'm12', 'e1', 'e2'], None, 22)}"
44,44,15.033296378372908,85.14693182963201,11.04536101718726,19.026297590440446,20.09975124224178,23.021728866442675,27.29468812791236,72.3394774656273,53.33854141237835,45.5,42.0,47.0,17.5,27.5,6.5,6.5,16.1245154965971,15.033296378372908,15.0,46.0,36.0,37.21558813185679,"{'neutral': (['m1', 'm3', 'm12', 'e1', 'e2'], None, 22)}"
45,45,17.029386365926403,85.09406559801923,11.04536101718726,20.09975124224178,20.09975124224178,22.02271554554524,25.317977802344327,73.43704787094863,53.33854141237835,44.5,41.0,45.0,18.0,30.0,9.0,7.0,11.40175425099138,11.04536101718726,11.0,44.0,34.0,36.22154055254967,"{'neutral': (['m1', 'm3', 'm12', 'e1', 'e2'], None, 22)}"
46,46,18.027756377319943,83.15046602394962,10.04987562112089,19.026297590440446,20.024984394500787,23.021728866442675,25.317977802344327,72.3394774656273,53.33854141237835,44.0,41.0,46.0,18.5,28.5,8.5,8.5,8.246211251235321,8.246211251235321,8.0,41.0,33.0,31.14482300479488,"{'neutral': (['m1', 'm3', 'm12', 'e1', 'e2'], None, 22)}"
47,47,15.0,80.09993757800315,12.041594578792296,20.09975124224178,19.026297590440446,22.02271554554524,25.317977802344327,72.3394774656273,52.23983154643591,44.5,42.0,46.0,19.0,28.0,6.0,7.0,8.246211251235321,9.055385138137416,8.5,41.0,34.0,30.14962686336267,{}
48,48,8.0,81.02468759581859,12.041594578792296,19.1049731745428,19.0,21.0,27.16615541441225,66.27216610312357,47.16990566028302,43.0,41.0,43.0,15.0,24.0,4.0,4.0,11.180339887498947,11.0,11.0,41.0,33.0,30.066592756745816,{}
49,49,8.06225774829855,80.02499609497022,10.04987562112089,18.027756377319943,19.026297590440446,21.0,31.14482300479488,67.26812023536856,49.25444142409901,45.0,42.0,44.0,12.0,24.0,4.0,3.0,13.152946437965904,13.0,13.5,43.0,35.0,36.22154055254967,{}
50,50,16.0312195418814,83.09632964216891,9.0,19.026297590440446,20.0,22.02271554554524,30.26549190084312,74.24284477308234,55.22680508593631,47.0,41.0,45.0,13.0,31.0,11.0,5.0,14.0356688476182,14.0,14.5,42.0,36.0,35.12833614050059,{}
51,51,23.0,89.02246907382428,9.055385138137416,18.027756377319943,23.021728866442675,25.0,28.16025568065745,78.16009211867653,60.13318551349163,48.5,41.0,43.0,14.0,36.0,16.0,6.0,14.0356688476182,14.0,14.5,41.0,36.0,36.12478373637688,{}
52,52,29.0,92.00543462209176,9.0,18.027756377319943,22.0,26.0768096208106,25.179356624028344,81.09870529176159,63.07138812488592,48.5,40.0,39.0,14.5,41.5,22.5,6.5,14.0356688476182,14.0,14.5,42.0,40.0,38.01315561749642,{}
53,53,32.01562118716424,99.02019995940222,7.0,17.0,25.0,28.0178514522438,23.08679276123039,79.05694150420949,62.07253821135398,46.0,36.0,34.0,12.0,44.0,26.0,6.0,14.0356688476182,15.033296378372908,15.0,36.0,34.0,37.01351104664349,{}
54,54,32.01562118716424,101.01980003939822,8.0,17.0,25.0,28.0713376952364,22.20360331117452,79.1012010022604,62.12889826803627,46.0,35.0,33.0,12.0,45.0,27.0,5.0,15.033296378372908,15.033296378372908,15.0,36.0,36.0,37.0,{}
55,55,33.015148038438355,103.00485425454472,7.0,17.0,25.0,28.0713376952364,22.20360331117452,79.1012010022604,62.12889826803627,45.5,33.0,32.0,10.5,46.5,28.5,4.5,14.142135623730953,14.0356688476182,14.5,37.0,36.0,36.013886210738214,{}
56,56,31.016124838541646,103.0194156457898,7.0,16.0,25.0,28.0713376952364,21.213203435596427,75.1065909225016,59.13543776789008,43.5,32.0,30.0,10.0,44.0,27.0,4.0,15.132745950421556,15.033296378372908,15.0,34.0,35.0,40.0,{}
57,57,30.01666203960727,100.04498987955368,8.0,17.0,23.021728866442675,26.0768096208106,20.223748416156685,75.1065909225016,58.137767414994535,43.0,32.0,29.0,10.5,44.5,27.5,4.5,14.0356688476182,15.033296378372908,15.0,37.0,39.0,37.0,{}
58,58,29.017236257093817,99.02019995940222,8.0,16.0,25.019992006393608,29.068883707497267,21.213203435596427,74.10802925459562,58.137767414994535,43.5,32.0,30.0,10.0,43.0,25.0,4.0,14.0356688476182,15.132745950421556,15.5,36.0,38.0,35.0142828000232,{}
59,59,30.01666203960727,98.04590761474952,7.0,16.0,25.0,28.0178514522438,21.213203435596427,74.10802925459562,58.137767414994535,43.0,33.0,30.0,10.5,42.5,25.5,5.5,14.0356688476182,15.132745950421556,15.0,35.0,37.0,35.0,{}
60,60,32.01562118716424,95.0473566176356,6.0,15.0,24.020824298928627,26.019223662515376,20.39607805437113,73.17103251970687,58.215118311311535,42.0,33.0,30.0,11.5,41.5,25.5,6.5,16.0312195418814,15.033296378372908,15.5,34.0,37.0,36.013886210738214,{}
61,61,31.0,95.0210502993942,7.071067811865476,17.0,23.0,26.019223662515376,21.37755832643195,76.16429609731846,59.21148537234985,43.5,34.0,32.0,12.0,43.0,25.0,6.0,15.132745950421556,16.0312195418814,15.5,34.0,36.0,34.0147027033899,{}
62,62,32.01562118716424,93.00537618869136,6.0,16.0312195418814,22.0,25.019992006393608,21.213203435596427,75.16648189186454,59.13543776789008,43.0,34.0,33.0,12.5,41.5,24.5,7.5,15.033296378372908,15.033296378372908,15.0,33.0,34.0,35.0,{}
63,63,33.0,92.00543462209176,8.06225774829855,16.0,23.0,25.019992006393608,20.223748416156685,77.10382610480494,61.1310068623117,44.5,35.0,34.0,14.5,42.5,24.5,7.5,16.1245154965971,16.0312195418814,16.0,34.0,34.0,33.015148038438355,{}
64,64,33.015148038438355,91.0,7.071067811865476,16.0,23.021728866442675,26.0,22.36067977499789,78.23042886243178,62.28964600958975,45.5,34.0,34.0,12.0,44.0,26.0,5.0,16.1245154965971,16.0312195418814,16.0,34.0,33.0,32.0,{}
65,65,20.0,89.00561780022652,7.0,17.0,22.02271554554524,25.0,25.495097567963924,69.18092222571191,52.23983154643591,42.0,33.0,32.0,7.5,36.5,17.5,1.5,15.132745950421556,15.033296378372908,15.5,34.0,33.0,32.0,{}
66,66,8.0,88.0,8.06225774829855,17.029386365926403,22.02271554554524,23.021728866442675,28.442925306655784,61.40032573203501,44.40720662234904,40.0,33.0,33.0,5.0,28.0,10.0,1.0,15.132745950421556,15.033296378372908,15.5,34.0,32.0,32.0,{}
67,67,9.0,87.0,8.06225774829855,16.0312195418814,22.02271554554524,23.021728866442675,27.29468812791236,60.29925372672534,44.28317965096906,39.5,33.0,33.0,6.0,27.0,10.0,0.0,14.142135623730953,15.0,15.0,34.0,30.0,34.058772731852805,{}
68,68,10.04987562112089,87.05170877128145,8.0,17.029386365926403,21.0,24.020824298928627,28.635642126552707,63.50590523722971,46.52956049652737,41.0,32.0,35.0,5.5,29.5,10.5,0.5,15.132745950421556,15.033296378372908,15.5,37.0,33.0,36.05551275463989,{}
69,69,16.0312195418814,88.02272433866155,8.06225774829855,17.029386365926403,22.02271554554524,25.0,25.495097567963924,66.48308055437865,49.49747468305833,41.0,31.0,33.0,7.0,34.0,15.0,0.0,15.132745950421556,16.0,16.0,36.0,30.0,34.058772731852805,{}
70,70,20.024984394500787,90.0499861188218,8.06225774829855,18.027756377319943,22.02271554554524,25.0,24.73863375370596,70.57619995437555,52.61178575186362,42.0,31.0,34.0,8.5,37.5,17.5,0.5,16.1245154965971,16.0312195418814,16.0,37.0,32.0,31.064449134018133,{}
71,71,22.02271554554524,92.04890004774636,9.055385138137416,18.027756377319943,22.02271554554524,26.0,22.80350850198276,71.56814934033156,53.60037313302959,42.0,29.0,32.0,8.5,40.5,20.5,0.5,15.297058540778355,16.0,16.0,36.0,30.0,36.05551275463989,{}
72,72,26.019223662515376,95.0473566176356,9.055385138137416,18.027756377319943,23.021728866442675,27.0,20.615528128088304,73.43704787094863,55.44366510251645,42.0,28.0,31.0,9.5,43.5,23.5,1.5,15.297058540778355,15.033296378372908,15.0,39.0,33.0,35.0142828000232,{}
73,73,27.018512172212592,96.08329719571452,8.06225774829855,18.027756377319943,24.020824298928627,27.0,21.587033144922906,74.43117626371358,56.43580423808985,42.5,28.0,32.0,9.0,44.0,24.0,2.0,15.297058540778355,15.0,15.5,38.0,32.0,35.05709628591621,{}
74,74,27.073972741361768,97.12878049270464,8.06225774829855,17.029386365926403,24.020824298928627,27.0,21.587033144922906,73.55270219373317,56.56854249492381,42.5,28.0,33.0,9.5,42.5,23.5,2.5,14.317821063276352,15.0,15.5,39.0,32.0,37.05401462729781,{}
75,75,20.024984394500787,93.02150289046077,8.0,17.029386365926403,23.0,26.019223662515376,24.73863375370596,69.46221994724903,52.46903848937962,42.0,31.0,33.0,8.0,37.0,19.0,2.0,16.278820596099706,15.0,15.5,38.0,32.0,33.06055050963308,{}
76,76,10.04987562112089,89.00561780022652,8.0,17.0,21.02379604162864,23.021728866442675,27.65863337187866,62.39390995922599,45.5411901469428,40.0,32.0,33.0,5.5,29.5,11.5,0.5,14.142135623730953,15.0,15.5,37.0,31.0,34.058772731852805,{}
77,77,7.0,91.00549433962765,8.06225774829855,16.0312195418814,23.0,24.020824298928627,28.635642126552707,59.53990258641679,43.56604182158393,39.5,31.0,32.0,3.5,27.5,10.5,2.5,16.1245154965971,15.0,15.5,36.0,32.0,31.016124838541646,{}
78,78,10.0,90.00555538409837,8.06225774829855,16.0,21.0,24.020824298928627,27.65863337187866,61.40032573203501,45.5411901469428,40.0,31.0,32.0,4.5,29.5,12.5,2.5,16.1245154965971,16.0,16.0,38.0,33.0,32.0624390837628,{}
79,79,14.0356688476182,91.00549433962765,8.06225774829855,18.0,23.021728866442675,25.019992006393608,26.476404589747453,66.37017402418047,48.507731342539614,41.0,31.0,32.0,5.5,34.5,15.5,0.5,16.1245154965971,15.033296378372908,15.5,38.0,36.0,35.0142828000232,{}
80,80,19.0,92.00543462209176,7.071067811865476,17.029386365926403,23.021728866442675,25.0,25.495097567963924,68.3593446428504,51.35172830587107,41.5,30.0,31.0,5.5,37.5,18.5,0.5,14.142135623730953,14.0356688476182,14.5,34.0,32.0,31.016124838541646,{}
81,81,23.021728866442675,92.00543462209176,8.06225774829855,17.0,22.02271554554524,25.019992006393608,22.36067977499789,70.25667228100119,53.33854141237835,41.5,27.0,28.0,5.5,42.5,24.5,0.5,15.132745950421556,15.033296378372908,15.5,35.0,33.0,33.015148038438355,{}
82,82,26.019223662515376,97.0051545022222,7.0,15.0,24.0,26.0768096208106,22.36067977499789,70.178344238091,55.22680508593631,42.0,27.0,26.0,4.5,43.5,26.5,0.5,16.1245154965971,16.0312195418814,16.5,34.0,33.0,35.0142828000232,{}
83,83,28.0178514522438,99.0050503762308,7.0,16.0,24.020824298928627,27.073972741361768,22.56102834535696,73.24616030891995,57.3149195236284,43.0,27.0,26.0,4.5,46.5,29.5,0.5,16.1245154965971,16.0312195418814,16.0,32.0,33.0,32.01562118716424,{}
84,84,27.0,99.08077512817508,7.0,16.0,25.079872407968907,28.16025568065745,21.587033144922906,71.17583859709698,55.22680508593631,41.5,27.0,23.0,4.0,46.0,29.0,0.0,15.132745950421556,16.1245154965971,16.0,31.0,34.0,38.05259518088089,{}
85,85,27.018512172212592,102.12247548899312,6.0,16.0,25.019992006393608,28.0713376952364,20.39607805437113,69.18092222571191,53.23532661682466,39.5,26.0,21.0,3.5,45.5,28.5,0.5,14.0356688476182,15.033296378372908,15.5,32.0,36.0,34.058772731852805,{}
86,86,26.019223662515376,105.11898020814318,6.0,16.0,26.019223662515376,28.0713376952364,20.223748416156685,68.11754546370561,52.15361924162119,39.0,25.0,20.0,2.5,45.5,29.5,1.5,16.1245154965971,16.0312195418814,16.0,30.0,34.0,34.058772731852805,{}
87,87,26.0,105.17128885774862,6.0,15.0,27.073972741361768,30.14962686336267,21.37755832643195,68.11754546370561,53.150729063673246,40.0,26.0,20.0,2.0,45.0,30.0,1.0,15.132745950421556,16.0312195418814,16.0,31.0,35.0,34.058772731852805,{}
88,88,28.0,107.16809226630843,7.0,16.0,28.0713376952364,30.14962686336267,19.4164878389476,70.11419257183242,54.147945482723536,40.0,25.0,19.0,3.0,48.0,32.0,1.0,15.033296378372908,16.1245154965971,16.0,33.0,37.0,40.01249804748511,{}
89,89,26.019223662515376,109.1146186356347,7.0,15.0,28.0713376952364,31.14482300479488,20.223748416156685,68.11754546370561,53.150729063673246,40.0,23.0,18.0,0.5,47.5,32.5,3.5,15.132745950421556,15.033296378372908,15.5,35.0,38.0,36.05551275463989,{}
90,90,26.019223662515376,108.1156787889712,7.0,15.0,28.0713376952364,31.064449134018133,19.235384061671343,67.11929677819934,52.15361924162119,39.0,23.0,18.0,1.5,46.5,31.5,2.5,16.0312195418814,15.132745950421556,15.0,32.0,36.0,36.05551275463989,{}
91,91,25.019992006393608,109.16501271011695,6.0,15.033296378372908,28.0178514522438,31.14482300479488,20.223748416156685,66.06814663663572,51.15662224971465,38.5,23.0,17.0,0.0,46.0,31.0,3.0,15.132745950421556,15.132745950421556,15.0,34.0,37.0,38.01315561749642,{}
92,92,26.019223662515376,108.2266141020775,7.0,16.0,28.0713376952364,31.14482300479488,19.235384061671343,68.11754546370561,52.15361924162119,39.0,25.0,18.0,2.5,46.5,30.5,1.5,15.132745950421556,15.132745950421556,15.0,34.0,36.0,38.0,{}
93,93,27.0,103.12128781197411,7.0,16.0,26.0768096208106,29.068883707497267,19.4164878389476,69.1158447825099,53.150729063673246,39.5,27.0,22.0,5.5,44.5,28.5,1.5,16.1245154965971,16.1245154965971,16.5,34.0,36.0,38.0,{}
94,94,29.017236257093817,99.12618221237013,6.0,15.0,26.019223662515376,29.068883707497267,19.235384061671343,69.1158447825099,54.147945482723536,39.5,30.0,25.0,8.5,41.5,25.5,4.5,16.1245154965971,16.0312195418814,16.0,34.0,36.0,38.01315561749642,{}
95,95,29.017236257093817,95.0473566176356,5.0990195135927845,16.0,25.0,26.019223662515376,21.37755832643195,71.11258679024411,55.14526271584895,40.5,32.0,29.0,9.5,40.5,23.5,5.5,15.132745950421556,15.033296378372908,15.5,36.0,37.0,37.01351104664349,{}
96,96,30.0,94.02127418834527,6.082762530298219,17.029386365926403,25.019992006393608,27.018512172212592,20.223748416156685,73.17103251970687,56.1426753904728,41.0,32.0,30.0,11.0,42.0,24.0,6.0,15.132745950421556,16.1245154965971,16.0,34.0,35.0,36.013886210738214,{}
97,97,34.0147027033899,93.02150289046077,5.0,16.0,24.0,27.018512172212592,22.36067977499789,77.1621668954417,61.20457499239743,44.0,35.0,33.0,12.0,43.0,25.0,8.0,16.1245154965971,16.1245154965971,16.5,33.0,37.0,36.013886210738214,{}
98,98,37.01351104664349,95.00526301210895,5.0,17.0,25.0,28.0713376952364,21.37755832643195,80.15609770940699,63.198101237299845,44.5,33.0,32.0,11.5,47.5,28.5,7.5,16.0312195418814,16.0312195418814,16.0,34.0,36.0,35.0142828000232,{}
99,99,35.0142828000232,96.08329719571452,6.0,18.027756377319943,25.0,29.017236257093817,21.213203435596427,80.15609770940699,62.12889826803627,44.5,35.0,31.0,12.0,47.0,28.0,7.0,15.132745950421556,16.1245154965971,16.0,37.0,38.0,36.0,{}
100,100,32.01562118716424,97.082439194738,6.0,17.0,25.019992006393608,28.0713376952364,21.095023109728988,76.05918747922567,59.07622195096772,43.0,34.0,30.0,11.0,44.0,27.0,7.0,15.132745950421556,15.033296378372908,16.0,34.0,35.0,33.015148038438355,{}
101,101,26.019223662515376,94.04786015641186,6.0,17.0,24.020824298928627,26.019223662515376,22.20360331117452,71.11258679024411,54.147945482723536,41.0,33.0,30.0,9.5,39.5,21.5,4.5,16.0312195418814,16.1245154965971,16.0,33.0,35.0,35.0142828000232,{}
102,102,21.0,92.04890004774636,6.0,15.033296378372908,24.0,26.019223662515376,24.33105012119288,66.18912297349165,51.15662224971465,40.5,33.0,30.0,7.5,34.5,17.5,2.5,15.132745950421556,15.132745950421556,15.5,32.0,32.0,32.01562118716424,{}
103,103,16.0312195418814,93.02150289046077,7.0,16.0,23.0,26.019223662515376,25.179356624028344,64.1248781675256,48.16637831516918,40.0,33.0,31.0,7.0,32.0,15.0,1.0,12.16552506059644,12.041594578792296,12.0,37.0,36.0,33.015148038438355,{}
104,104,11.0,91.02197536858888,8.0,18.0,24.020824298928627,26.019223662515376,27.16615541441225,64.07027391856539,46.09772228646444,40.5,34.0,32.0,6.0,31.0,12.0,0.0,7.071067811865476,7.0,7.0,41.0,39.0,37.01351104664349,{}
105,105,6.0,90.0,8.0,17.0,23.0,25.0,29.27456233660889,60.13318551349163,43.18564576337837,40.0,32.0,32.0,3.0,28.0,9.0,3.0,6.082762530298219,5.0990195135927845,5.5,39.0,37.0,32.01562118716424,{}
106,106,6.0,89.00561780022652,8.06225774829855,17.0,22.0,25.019992006393608,29.154759474226505,60.13318551349163,43.18564576337837,40.0,32.0,33.0,3.5,27.5,8.5,2.5,6.082762530298219,6.082762530298219,6.0,38.0,36.0,32.0,{}
107,107,5.0,89.02246907382428,8.0,17.029386365926403,23.0,24.0,29.27456233660889,59.21148537234985,42.190046219457976,39.5,32.0,34.0,4.0,26.0,7.0,2.0,9.219544457292889,9.0,9.0,37.0,33.0,31.016124838541646,{}
108,108,2.0,90.0222194794152,8.06225774829855,18.027756377319943,23.0,24.0,28.16025568065745,56.22277118748239,38.2099463490856,37.0,31.0,33.0,4.0,24.0,5.0,3.0,11.180339887498947,10.0,10.5,41.0,34.0,34.058772731852805,{}
109,109,0.0,91.02197536858888,10.0,19.026297590440446,23.0,26.0,28.16025568065745,57.14017850864661,38.11823710509184,38.0,31.0,33.0,4.0,25.0,5.0,4.0,11.180339887498947,11.04536101718726,11.5,47.0,39.0,44.01136216933077,{}
110,110,3.0,93.08598175880188,10.04987562112089,19.026297590440446,23.0,25.019992006393608,27.16615541441225,59.21148537234985,40.19950248448356,38.5,31.0,35.0,6.0,26.0,5.0,3.0,12.16552506059644,12.041594578792296,12.0,47.0,41.0,46.01086828130936,{}
111,111,9.0,92.19544457292888,9.055385138137416,18.110770276274835,23.021728866442675,25.079872407968907,27.459060435491963,63.50590523722971,45.39823785126467,40.5,32.0,38.0,8.0,28.0,8.0,0.0,13.152946437965904,12.0,12.5,42.0,29.0,34.23448553724738,{}
112,112,17.029386365926403,95.33624704172072,10.04987562112089,18.110770276274835,22.09072203437452,25.079872407968907,25.317977802344327,70.45565981523414,52.3450093132096,43.5,31.0,39.0,10.0,35.0,15.0,1.0,12.16552506059644,11.04536101718726,11.0,51.0,40.0,48.04164859785725,{}
113,113,19.026297590440446,94.5304183847718,11.180339887498947,17.26267650163207,22.09072203437452,24.08318915758459,24.33105012119288,71.7007670809734,54.45181356024793,44.5,32.0,42.0,13.0,34.0,14.0,2.0,13.152946437965904,11.04536101718726,11.5,50.0,37.0,49.16299421312742,{}
114,114,23.08679276123039,94.76286192385707,10.04987562112089,18.24828759089466,22.20360331117452,25.179356624028344,24.73863375370596,75.95393340703298,57.706152185014034,45.5,34.0,46.0,16.0,35.0,14.0,5.0,13.341664064126334,13.152946437965904,13.0,45.0,26.0,37.65634076752546,{}
115,115,22.09072203437452,95.35197952848172,10.198039027185567,18.24828759089466,23.345235059857504,26.30589287593181,25.0,75.31268153505093,57.0701322935211,45.0,33.0,49.0,17.0,33.0,12.0,6.0,13.341664064126334,13.152946437965904,13.0,43.0,21.0,35.90264614203248,{}
116,116,22.20360331117452,94.54099639838792,11.180339887498947,17.46424919657298,22.56102834535696,26.30589287593181,23.53720459187964,74.33034373659252,56.88585061331157,45.0,34.0,51.0,19.5,30.5,10.5,6.5,12.36931687685298,12.16552506059644,12.5,46.0,21.0,43.93176527297759,{}
117,117,20.223748416156685,93.38094023943002,11.180339887498947,17.26267650163207,21.37755832643195,24.33105012119288,25.0,73.54590403278758,56.29387178015028,45.0,35.0,51.0,19.0,29.0,9.0,6.0,12.36931687685298,13.152946437965904,13.0,44.0,19.0,40.52159917870962,{}
118,118,17.26267650163207,93.55746896961249,13.152946437965904,17.26267650163207,21.37755832643195,24.515301344262525,24.73863375370596,72.3671196055225,55.10898293381942,45.5,36.0,53.0,20.5,26.5,6.5,6.5,12.36931687685298,13.341664064126334,13.0,48.0,23.0,44.91102314577124,{}
119,119,16.1245154965971,91.41115905621152,13.152946437965904,16.492422502470642,21.37755832643195,23.345235059857504,24.73863375370596,70.40596565632774,53.9351462406472,45.0,37.0,53.0,21.0,24.0,5.0,6.0,12.36931687685298,12.36931687685298,12.5,52.0,28.0,47.67598976424087,{}
120,120,13.341664064126334,92.07062506576132,10.198039027185567,15.524174696260024,20.615528128088304,23.345235059857504,26.92582403567252,65.96969000988257,50.44799302251776,42.5,36.0,50.0,17.0,21.0,3.0,5.0,12.36931687685298,12.36931687685298,12.5,40.0,17.0,41.48493702538308,{}
121,121,11.180339887498947,91.0823802938856,10.44030650891055,16.492422502470642,21.587033144922906,22.36067977499789,27.65863337187866,65.73431371817918,49.24428900898052,42.5,37.0,51.0,17.0,20.0,2.0,5.0,13.601470508735444,12.36931687685298,12.5,42.0,18.0,39.56008088970496,{}
122,122,10.198039027185567,88.11923740024082,10.198039027185567,15.524174696260024,20.39607805437113,22.36067977499789,27.65863337187866,63.56099432828282,48.05205510693585,42.0,37.0,51.0,17.0,18.0,1.0,5.0,13.341664064126334,13.152946437965904,13.0,40.0,18.0,40.26164427839479,{}
123,123,9.219544457292889,87.96590248499699,10.198039027185567,14.560219778561036,20.39607805437113,21.213203435596427,29.8328677803526,63.788713735268246,49.24428900898052,43.5,38.0,51.0,15.5,17.5,0.5,4.5,13.341664064126334,12.16552506059644,12.5,40.0,19.0,39.293765408777,{}
124,124,15.132745950421556,110.8873302050329,14.142135623730953,20.39607805437113,25.317977802344327,27.29468812791236,35.90264614203248,85.5102333057278,65.11528238439882,56.5,52.0,66.0,24.0,25.0,2.0,8.0,17.26267650163207,16.1245154965971,16.0,52.0,26.0,50.21951811795888,{}
125,124,7.071067811865476,19.235384061671343,2.0,4.0,6.082762530298219,6.082762530298219,6.0,19.026297590440446,15.033296378372908,11.5,15.0,12.0,7.5,5.5,1.5,5.5,3.1622776601683795,3.0,2.5,8.0,10.0,4.123105625617661,{}
126,124,2.0,25.0,1.0,2.0,7.071067811865476,7.071067811865476,4.123105625617661,9.055385138137416,7.071067811865476,6.0,4.0,4.0,0.0,5.0,2.0,1.0,4.0,4.0,4.0,11.0,10.0,8.246211251235321,{}
127,125,16.278820596099706,111.75866856758807,14.142135623730953,21.37755832643195,25.317977802344327,27.29468812791236,36.6742416417845,88.45903006477066,67.08203932499369,58.0,54.0,67.0,24.5,26.5,2.5,9.5,17.46424919657298,17.26267650163207,17.5,52.0,27.0,50.00999900019995,{}
128,125,2.0,19.235384061671343,3.0,4.0,5.0,6.082762530298219,6.082762530298219,15.033296378372908,11.04536101718726,10.0,13.0,10.0,5.5,3.5,0.5,2.5,3.0,3.1622776601683795,3.5,11.0,13.0,6.082762530298219,{}
129,125,6.082762530298219,23.194827009486403,1.4142135623730951,2.23606797749979,6.324555320336759,7.071067811865476,2.23606797749979,11.0,9.055385138137416,6.0,1.0,4.0,0.5,8.5,4.5,1.5,2.23606797749979,2.23606797749979,2.0,11.0,5.0,6.708203932499369,{}
130,126,18.110770276274835,109.65856099730654,15.132745950421556,22.36067977499789,25.317977802344327,28.284271247461906,36.6742416417845,92.22797840135064,69.87131027825369,60.0,56.0,68.0,26.0,29.0,4.0,10.0,18.43908891458577,17.11724276862369,17.5,50.0,28.0,50.00999900019995,{}
131,126,3.0,22.56102834535696,1.4142135623730951,3.0,7.071067811865476,7.071067811865476,6.0,13.038404810405298,10.04987562112089,8.5,3.0,8.0,0.5,7.5,3.5,1.5,3.1622776601683795,2.0,2.0,9.0,2.0,7.615773105863909,{}
132,127,15.132745950421556,109.37092849564732,15.132745950421556,24.186773244895647,27.16615541441225,29.154759474226505,37.65634076752546,92.07062506576132,67.89698078707183,59.5,55.0,64.0,22.5,31.5,4.5,6.5,17.46424919657298,15.132745950421556,15.5,53.0,31.0,50.00999900019995,{}
133,128,13.038404810405298,111.36426715962352,14.142135623730953,23.194827009486403,28.16025568065745,30.14962686336267,37.48332962798263,87.82368700982668,64.6297145282261,57.5,53.0,62.0,20.5,29.5,4.5,5.5,8.54400374531753,8.54400374531753,7.5,52.0,33.0,39.05124837953327,{}
134,128,4.0,22.20360331117452,3.0,2.23606797749979,6.082762530298219,7.280109889280518,4.0,13.038404810405298,11.0,9.0,6.0,9.0,3.5,5.5,1.5,0.5,3.1622776601683795,4.123105625617661,3.5,10.0,5.0,5.830951894845301,{}
135,129,13.0,108.2266141020775,14.142135623730953,22.20360331117452,27.16615541441225,30.066592756745816,37.48332962798263,86.70063436907483,64.4980619863884,57.5,54.0,61.0,20.5,28.5,4.5,5.5,7.280109889280518,8.06225774829855,7.0,53.0,39.0,42.579337712087536,{}
136,129,1.4142135623730951,23.021728866442675,2.0,2.0,7.071067811865476,7.071067811865476,5.0990195135927845,10.198039027185567,8.246211251235321,7.5,6.0,5.0,0.5,4.5,1.5,0.5,3.0,2.0,2.5,8.0,8.0,6.082762530298219,{}
137,130,14.0356688476182,108.1156787889712,14.0356688476182,22.09072203437452,27.073972741361768,30.066592756745816,37.48332962798263,87.5728268357257,65.49045732013177,58.0,54.0,59.0,19.5,30.5,6.5,5.5,6.324555320336759,7.280109889280518,6.5,52.0,41.0,39.45883931389772,{}
138,130,4.0,24.186773244895647,1.0,3.0,7.0,8.06225774829855,6.0,14.0,11.0,9.0,5.0,8.0,0.5,7.5,3.5,0.5,1.4142135623730951,2.23606797749979,1.5,10.0,3.0,6.324555320336759,{}
139,131,16.0,111.00450441310927,15.033296378372908,24.020824298928627,28.0713376952364,31.016124838541646,34.23448553724738,89.20201791439474,65.19202405202648,57.0,57.0,58.0,23.5,31.5,5.5,8.5,9.219544457292889,10.04987562112089,9.5,52.0,42.0,39.319206502675,{}
140,131,5.0,25.0,1.0,2.0,7.0,7.0,2.23606797749979,10.04987562112089,8.06225774829855,5.5,2.0,2.0,0.0,8.0,5.0,1.0,3.1622776601683795,3.1622776601683795,3.0,8.0,7.0,7.071067811865476,{}
141,132,24.020824298928627,117.00427342623004,14.0,24.020824298928627,30.0,33.0,33.13608305156178,95.13148795220224,71.11258679024411,59.0,56.0,57.0,23.5,38.5,13.5,10.5,14.317821063276352,14.0,14.0,50.0,42.0,36.22154055254967,{}
142,132,5.0,24.020824298928627,1.0,2.0,7.0,7.0,3.1622776601683795,11.04536101718726,9.055385138137416,6.5,4.0,5.0,1.5,6.5,3.5,0.5,1.0,1.0,1.0,10.0,8.0,7.071067811865476,{}
143,133,35.0142828000232,120.0041665943312,13.0,24.020824298928627,30.0,35.05709628591621,31.14482300479488,103.12128781197411,79.1012010022604,61.5,58.0,57.0,26.5,45.5,20.5,14.5,16.1245154965971,16.0312195418814,16.5,50.0,45.0,47.09564735726647,{}
144,133,5.0,24.33105012119288,2.0,3.0,7.071067811865476,8.06225774829855,4.123105625617661,14.0356688476182,11.04536101718726,8.5,4.0,8.0,2.0,8.0,4.0,0.0,2.23606797749979,2.0,1.5,10.0,5.0,8.246211251235321,{}
145,134,38.01315561749642,120.0041665943312,12.041594578792296,23.021728866442675,31.016124838541646,35.0142828000232,30.14962686336267,103.1746092796091,80.15609770940699,61.0,57.0,56.0,26.5,46.5,22.5,14.5,17.029386365926403,17.029386365926403,17.5,49.0,48.0,47.042533945356304,{}
146,134,4.0,24.020824298928627,2.0,2.0,8.06225774829855,8.0,4.0,12.0,10.0,8.0,6.0,7.0,2.5,5.5,2.5,0.5,1.0,1.0,1.0,7.0,6.0,8.246211251235321,{}
147,135,40.01249804748511,125.06398362438324,12.0,24.0,33.0,37.05401462729781,30.14962686336267,106.07544484940895,82.09750300709517,62.0,58.0,54.0,26.0,50.0,26.0,15.0,19.1049731745428,19.026297590440446,19.5,47.0,49.0,44.0,{}
148,135,3.0,25.317977802344327,2.0,3.1622776601683795,8.06225774829855,9.055385138137416,2.0,10.04987562112089,7.0,5.5,1.0,5.0,1.0,7.0,3.0,1.0,1.0,2.23606797749979,1.5,9.0,5.0,7.280109889280518,{}
149,136,37.0,123.10158406779338,11.0,24.020824298928627,32.0,36.05551275463989,31.064449134018133,103.00485425454472,79.02531240052139,60.5,57.0,52.0,23.5,48.5,23.5,13.5,20.024984394500787,21.095023109728988,21.0,48.0,51.0,47.042533945356304,{}
150,136,3.0,25.079872407968907,2.0,3.1622776601683795,7.071067811865476,7.071067811865476,3.1622776601683795,11.0,8.06225774829855,6.5,3.0,5.0,1.0,7.0,3.0,1.0,1.0,1.4142135623730951,1.0,10.0,7.0,8.246211251235321,{}
151,137,23.021728866442675,120.10412149464314,10.0,22.02271554554524,28.0,32.0624390837628,31.016124838541646,86.00581375697809,64.03124237432849,52.5,52.0,47.0,18.5,36.5,14.5,9.5,21.02379604162864,20.024984394500787,20.5,48.0,53.0,45.0111097397076,{}
152,137,4.0,19.235384061671343,3.0,4.123105625617661,6.082762530298219,6.082762530298219,6.082762530298219,17.11724276862369,13.038404810405298,11.0,15.0,12.0,7.5,3.5,0.5,5.5,3.0,4.123105625617661,3.5,9.0,11.0,8.06225774829855,{}
153,137,5.0990195135927845,24.186773244895647,2.23606797749979,3.1622776601683795,7.071067811865476,7.071067811865476,5.0,15.033296378372908,12.0,9.5,6.0,9.0,2.5,7.5,3.5,0.5,2.23606797749979,1.4142135623730951,1.0,10.0,2.0,10.44030650891055,{}
154,138,21.02379604162864,124.14507642270796,10.0,22.0,30.0,33.13608305156178,31.064449134018133,84.00595217006948,62.00806399170998,51.5,51.0,45.0,17.0,36.0,13.0,8.0,21.02379604162864,21.095023109728988,21.0,47.0,55.0,44.10215414239989,{}
155,138,7.0,20.223748416156685,3.0,4.0,6.082762530298219,6.0,6.082762530298219,20.024984394500787,16.0312195418814,12.5,17.0,14.0,9.5,4.5,0.5,6.5,3.0,3.1622776601683795,2.5,7.0,10.0,7.071067811865476,{}
156,138,4.123105625617661,25.70992026436488,3.1622776601683795,3.1622776601683795,8.246211251235321,8.06225774829855,4.0,14.0356688476182,11.0,9.0,3.0,9.0,2.0,8.0,4.0,1.0,2.0,2.23606797749979,2.0,10.0,3.0,7.280109889280518,{}
157,139,23.0,125.19584657647394,10.0,22.02271554554524,30.01666203960727,33.13608305156178,31.016124838541646,86.0,64.00781202322104,52.5,50.0,43.0,15.5,39.5,17.5,7.5,23.021728866442675,22.09072203437452,22.5,46.0,56.0,46.09772228646444,{}
158,139,5.0,17.26267650163207,1.4142135623730951,2.23606797749979,3.0,4.123105625617661,8.0,16.1245154965971,14.0356688476182,11.5,16.0,13.0,6.5,1.5,0.5,5.5,3.1622776601683795,3.1622776601683795,3.0,6.0,11.0,5.385164807134504,{}
159,139,5.0,26.1725046566048,2.0,2.0,7.071067811865476,7.071067811865476,3.0,12.0,10.0,7.5,3.0,6.0,1.5,7.5,4.5,0.5,4.0,4.0,4.0,13.0,8.0,8.54400374531753,{}
160,140,30.01666203960727,130.31116606031887,11.0,23.021728866442675,32.0624390837628,36.12478373637688,29.0,93.02150289046077,70.00714249274856,55.0,49.0,40.0,15.5,48.5,24.5,7.5,22.02271554554524,22.09072203437452,22.5,44.0,55.0,47.09564735726647,{}
161,140,5.0,20.223748416156685,3.1622776601683795,4.0,5.0990195135927845,6.082762530298219,6.0,18.027756377319943,14.0356688476182,11.5,15.0,12.0,7.5,4.5,0.5,5.5,2.23606797749979,3.1622776601683795,3.0,9.0,11.0,6.082762530298219,{}
162,140,5.0,26.1725046566048,2.23606797749979,2.23606797749979,7.071067811865476,8.0,4.123105625617661,13.341664064126334,11.180339887498947,8.5,3.0,6.0,0.5,8.5,5.5,1.5,4.123105625617661,5.0,5.0,13.0,9.0,5.385164807134504,{}
163,141,32.0,136.2974687952788,10.04987562112089,24.020824298928627,33.06055050963308,38.11823710509184,30.0,96.02083107326244,72.00694410957877,56.0,46.0,37.0,11.5,54.5,30.5,4.5,21.02379604162864,22.20360331117452,22.5,44.0,55.0,47.09564735726647,{}
164,141,5.0,19.1049731745428,3.0,4.0,5.0,5.0,5.0990195135927845,17.029386365926403,13.038404810405298,10.5,15.0,13.0,9.0,3.0,1.0,6.0,3.0,4.123105625617661,4.0,9.0,10.0,5.0,{}
165,141,6.0,25.179356624028344,2.0,3.0,7.0,7.071067811865476,4.0,15.0,12.0,9.0,5.0,8.0,2.5,8.5,4.5,0.5,3.1622776601683795,2.0,2.5,10.0,3.0,7.615773105863909,{}
166,142,35.05709628591621,142.1724305201258,10.0,23.021728866442675,35.12833614050059,39.11521443121589,29.0,97.04638066409278,74.02702209328699,56.5,40.0,33.0,7.5,60.5,36.5,1.5,21.095023109728988,23.194827009486403,23.0,44.0,55.0,49.16299421312742,{}
167,142,8.06225774829855,20.09975124224178,3.1622776601683795,4.123105625617661,5.0,6.0,6.0,21.02379604162864,17.0,13.0,17.0,15.0,10.0,5.0,1.0,7.0,3.0,3.1622776601683795,2.5,7.0,8.0,5.0990195135927845,{}
168,142,5.0,26.1725046566048,2.23606797749979,2.0,9.055385138137416,9.055385138137416,2.23606797749979,11.0,9.0,6.5,1.0,4.0,0.5,8.5,5.5,1.5,3.0,3.0,3.0,9.0,7.0,8.06225774829855,{}
169,143,36.05551275463989,143.22360140703069,10.04987562112089,23.021728866442675,36.05551275463989,39.11521443121589,28.0,97.082439194738,74.06078584514209,56.0,39.0,31.0,7.0,62.0,37.0,0.0,22.02271554554524,22.20360331117452,22.0,44.0,54.0,47.16990566028302,{}
170,143,6.082762530298219,19.235384061671343,3.0,4.0,6.082762530298219,6.0,7.071067811865476,20.09975124224178,16.1245154965971,13.0,17.0,14.0,8.5,4.5,0.5,6.5,2.0,2.0,2.0,8.0,11.0,7.071067811865476,{}
171,143,5.0,28.16025568065745,2.23606797749979,3.0,8.06225774829855,8.246211251235321,4.123105625617661,14.0,11.0,8.5,3.0,6.0,0.5,9.5,5.5,1.5,3.1622776601683795,3.0,3.5,10.0,5.0,8.54400374531753,{}
172,144,37.05401462729781,145.27904184706065,9.055385138137416,22.02271554554524,37.05401462729781,41.04875150354759,29.0,97.082439194738,75.05997601918082,56.5,37.0,28.0,3.5,64.5,40.5,1.5,22.02271554554524,22.36067977499789,22.5,40.0,52.0,48.16637831516918,{}
173,144,4.0,24.33105012119288,1.0,2.23606797749979,6.082762530298219,7.280109889280518,3.1622776601683795,10.0,8.06225774829855,6.0,1.0,5.0,0.0,7.0,4.0,1.0,2.23606797749979,2.23606797749979,2.0,10.0,6.0,6.708203932499369,{}
174,144,6.0,20.223748416156685,3.1622776601683795,4.123105625617661,5.0,6.082762530298219,7.0,20.09975124224178,16.0312195418814,13.0,17.0,14.0,8.5,4.5,0.5,5.5,3.1622776601683795,3.1622776601683795,3.0,9.0,12.0,7.071067811865476,{}
175,145,39.05124837953327,144.2809758769326,10.04987562112089,22.02271554554524,37.05401462729781,41.10960958218893,28.0,99.08077512817508,77.05841939723393,57.5,38.0,29.0,5.5,65.5,41.5,0.5,22.09072203437452,22.20360331117452,22.5,41.0,52.0,49.16299421312742,{}
176,145,4.0,25.079872407968907,1.0,2.0,7.071067811865476,7.071067811865476,3.1622776601683795,10.04987562112089,8.06225774829855,6.0,3.0,5.0,1.0,6.0,3.0,0.0,2.23606797749979,2.0,2.0,9.0,5.0,8.246211251235321,{}
177,146,37.05401462729781,142.22517358048822,10.04987562112089,23.021728866442675,35.12833614050059,40.11234224026316,29.017236257093817,99.04544411531506,76.02631123499285,57.5,40.0,32.0,7.0,63.0,39.0,1.0,22.09072203437452,22.20360331117452,22.5,44.0,54.0,48.16637831516918,{}
178,146,4.123105625617661,24.33105012119288,2.23606797749979,3.0,7.071067811865476,7.071067811865476,3.1622776601683795,12.041594578792296,9.055385138137416,7.0,3.0,7.0,2.0,7.0,3.0,0.0,2.23606797749979,2.0,1.5,10.0,5.0,7.280109889280518,{}
179,147,31.016124838541646,135.36986370680884,10.04987562112089,23.08679276123039,35.12833614050059,39.05124837953327,32.0,96.08329719571452,73.02739212103907,57.5,45.0,35.0,8.0,56.0,32.0,2.0,23.021728866442675,23.194827009486403,23.5,47.0,57.0,50.08991914547278,{}
180,147,3.0,24.33105012119288,2.0,3.1622776601683795,6.082762530298219,7.071067811865476,5.0,13.038404810405298,10.0,8.5,5.0,9.0,2.0,6.0,2.0,0.0,3.1622776601683795,3.1622776601683795,2.5,12.0,6.0,9.219544457292889,{}
181,148,22.02271554554524,130.24592124131948,9.055385138137416,22.02271554554524,33.06055050963308,36.12478373637688,36.0,89.05054744357274,67.02984409947557,56.0,46.0,38.0,6.0,47.0,23.0,0.0,23.08679276123039,23.08679276123039,23.5,48.0,56.0,56.00892785976178,{}
182,149,12.041594578792296,124.25779653607252,10.0,23.021728866442675,30.066592756745816,33.13608305156178,39.01281840626232,84.00595217006948,61.0,55.0,47.0,39.0,4.0,41.0,17.0,3.0,23.08679276123039,22.09072203437452,23.0,48.0,55.0,54.00925846556311,{}
183,150,8.06225774829855,119.10499569707392,11.0,24.0,30.066592756745816,33.06055050963308,39.01281840626232,82.0,58.0,54.0,47.0,42.0,5.5,37.5,12.5,2.5,24.08318915758459,24.08318915758459,24.5,51.0,54.0,52.0,{}
184,151,8.06225774829855,120.03749414245534,11.0,23.0,31.016124838541646,35.0142828000232,40.11234224026316,82.02438661763951,59.033888572581766,55.0,47.0,44.0,5.5,36.5,11.5,2.5,24.186773244895647,23.08679276123039,23.5,51.0,51.0,55.03635162326805,{}
185,151,10.0,19.1049731745428,3.0,3.1622776601683795,5.0990195135927845,6.0,5.0990195135927845,21.095023109728988,18.027756377319943,13.0,15.0,13.0,9.0,7.0,3.0,7.0,3.0,3.0,3.0,8.0,9.0,7.0,{}
186,152,16.0,122.00409829181967,9.055385138137416,23.0,31.0,35.0,39.05124837953327,87.05170877128145,64.07027391856539,56.0,44.0,45.0,5.5,42.5,17.5,1.5,24.186773244895647,24.020824298928627,24.5,54.0,51.0,54.00925846556311,{}
187,152,9.055385138137416,20.615528128088304,3.1622776601683795,4.0,5.385164807134504,6.082762530298219,5.0,21.095023109728988,17.11724276862369,12.5,15.0,10.0,7.5,8.5,4.5,5.5,2.23606797749979,2.0,2.0,7.0,9.0,7.0,{}
188,153,24.0,128.06248474865697,10.04987562112089,23.021728866442675,33.015148038438355,36.013886210738214,36.12478373637688,93.1343116150004,70.11419257183242,58.0,41.0,45.0,7.0,50.0,24.0,1.0,24.33105012119288,25.079872407968907,25.5,56.0,51.0,57.0350769263968,{}
189,154,31.016124838541646,133.09395177843356,9.0,25.019992006393608,35.05709628591621,39.01281840626232,33.13608305156178,98.12746812182613,73.10950690573696,57.5,38.0,43.0,7.5,57.5,29.5,0.5,23.345235059857504,24.020824298928627,24.5,53.0,48.0,52.03844732503075,{}
190,155,40.01249804748511,138.0905500025255,9.055385138137416,25.019992006393608,37.05401462729781,42.04759208325728,30.066592756745816,104.12012293500234,79.1012010022604,59.0,35.0,40.0,7.5,66.5,37.5,0.5,23.345235059857504,23.021728866442675,23.5,54.0,46.0,50.039984012787215,{}
191,156,36.0,141.12760183606892,10.0,28.0713376952364,39.01281840626232,43.04648650006177,28.16025568065745,102.12247548899312,74.06078584514209,56.0,31.0,37.0,6.0,68.0,36.0,2.0,23.345235059857504,23.0,23.0,50.0,43.0,52.15361924162119,{}
192,157,41.0,143.1258187749506,9.055385138137416,27.073972741361768,39.01281840626232,44.04543109109048,28.0178514522438,105.07616285342742,78.02563681252464,57.5,29.0,35.0,4.0,73.0,41.0,3.0,23.345235059857504,24.0,24.0,51.0,43.0,52.08646657242167,{}
193,157,1.0,18.110770276274835,2.0,3.0,6.082762530298219,6.0,7.0,13.0,10.0,9.5,11.0,9.0,3.0,3.0,0.0,2.0,3.0,3.1622776601683795,3.5,10.0,12.0,6.082762530298219,{}
194,158,42.01190307520001,144.12494579357175,8.06225774829855,25.079872407968907,39.01281840626232,44.04543109109048,27.018512172212592,102.04410811016967,77.00649323271382,56.0,27.0,33.0,3.0,72.0,42.0,3.0,22.20360331117452,22.02271554554524,22.5,50.0,44.0,55.03635162326805,{}
195,158,6.0,19.1049731745428,3.0,4.123105625617661,5.0990195135927845,6.082762530298219,8.06225774829855,21.095023109728988,17.029386365926403,14.0,18.0,16.0,9.0,4.0,0.0,7.0,3.0,2.0,2.0,8.0,9.0,7.071067811865476,{}
196,159,42.0,144.12494579357175,9.0,26.0768096208106,39.05124837953327,44.04543109109048,28.0178514522438,105.04284840006956,79.00632886041473,58.0,27.0,33.0,2.0,75.0,44.0,5.0,22.20360331117452,23.021728866442675,23.0,53.0,47.0,60.07495318350236,{}
197,159,3.0,18.24828759089466,2.0,3.1622776601683795,6.0,5.0990195135927845,7.0,15.033296378372908,12.0,10.5,13.0,10.0,4.5,3.5,0.5,2.5,4.0,4.123105625617661,3.5,8.0,12.0,6.0,{}
198,160,42.0,144.08677940741129,9.0,26.019223662515376,38.01315561749642,43.01162633521314,28.0,105.00476179678712,79.0,58.0,27.0,32.0,1.5,75.5,44.5,4.5,22.20360331117452,21.02379604162864,22.0,52.0,47.0,59.07622195096772,{}
199,160,3.1622776601683795,19.235384061671343,2.0,3.0,5.0990195135927845,6.082762530298219,8.0,16.0312195418814,13.038404810405298,11.5,13.0,10.0,3.5,4.5,1.5,2.5,3.1622776601683795,3.0,3.0,9.0,11.0,6.0,{}
200,160,3.0,19.235384061671343,2.0,2.0,6.082762530298219,5.0990195135927845,2.0,9.0,7.0,5.5,3.0,6.0,2.5,4.5,1.5,0.5,2.23606797749979,2.0,2.0,11.0,7.0,5.385164807134504,{}
201,161,42.01190307520001,144.05554484295286,9.055385138137416,26.019223662515376,39.01281840626232,44.04543109109048,28.0,105.00476179678712,79.0,58.0,28.0,32.0,2.0,75.0,45.0,4.0,21.213203435596427,21.0,21.5,51.0,46.0,57.0350769263968,{}
202,161,7.0,18.110770276274835,3.0,4.0,5.0,6.082762530298219,6.082762530298219,20.024984394500787,16.0312195418814,12.5,16.0,14.0,9.0,5.0,1.0,6.0,3.0,3.0,2.5,8.0,8.0,6.0,{}
203,162,43.0,143.0873858870865,9.0,26.019223662515376,38.01315561749642,43.04648650006177,29.0,107.00467279516349,81.0,59.5,28.0,33.0,1.5,76.5,44.5,4.5,22.20360331117452,22.0,23.0,47.0,45.0,56.00892785976178,{}
204,163,42.0,142.0563268566381,8.0,26.019223662515376,39.01281840626232,43.10452412450461,29.0,105.00476179678712,79.0,58.0,29.0,33.0,2.0,74.0,43.0,4.0,21.37755832643195,19.026297590440446,20.0,52.0,48.0,54.037024344425184,{}
205,163,1.4142135623730951,19.1049731745428,3.1622776601683795,4.123105625617661,6.0,6.082762530298219,6.0,14.0356688476182,10.0,9.5,12.0,10.0,5.0,3.0,1.0,2.0,3.1622776601683795,3.1622776601683795,3.0,10.0,10.0,5.0990195135927845,{}
206,164,37.0,140.12851244482687,10.0,26.019223662515376,39.05124837953327,43.10452412450461,29.017236257093817,102.0196059588548,76.00657866263946,57.5,29.0,35.0,3.0,70.0,39.0,5.0,8.54400374531753,8.246211251235321,8.5,52.0,45.0,45.044422518220834,{}
207,164,5.0,21.02379604162864,4.0,4.0,6.082762530298219,6.0,7.071067811865476,20.024984394500787,16.0312195418814,13.5,16.0,15.0,8.5,4.5,0.5,5.5,3.0,3.0,2.5,8.0,8.0,7.071067811865476,{}
208,165,36.0,132.1854757528224,6.082762530298219,23.08679276123039,35.12833614050059,39.11521443121589,34.058772731852805,99.12618221237013,76.05918747922567,58.0,31.0,38.0,0.5,64.5,36.5,4.5,6.324555320336759,6.324555320336759,6.0,52.0,44.0,37.12142238654117,{}
209,166,23.0,125.09996003196804,5.0990195135927845,21.095023109728988,32.0624390837628,35.12833614050059,40.11234224026316,89.20201791439474,68.11754546370561,56.5,37.0,42.0,0.5,49.5,24.5,4.5,7.280109889280518,7.280109889280518,7.5,51.0,43.0,40.11234224026316,{}
210,166,1.4142135623730951,16.278820596099706,3.0,3.1622776601683795,5.0990195135927845,5.0990195135927845,6.324555320336759,13.601470508735444,10.44030650891055,9.5,12.0,9.0,4.5,2.5,0.5,2.5,2.0,3.1622776601683795,3.0,6.0,10.0,7.071067811865476,{}
211,167,6.082762530298219,118.15244390193544,8.06225774829855,23.08679276123039,30.01666203960727,32.0624390837628,43.10452412450461,80.30566605165541,57.21887800367987,54.0,39.0,45.0,1.0,38.0,12.0,7.0,12.36931687685298,12.041594578792296,12.0,53.0,44.0,44.181444068749045,{}
212,167,3.1622776601683795,17.26267650163207,2.0,3.1622776601683795,5.0990195135927845,5.0990195135927845,6.082762530298219,14.317821063276352,11.180339887498947,9.5,13.0,10.0,5.5,2.5,0.5,4.5,2.0,3.1622776601683795,3.0,7.0,10.0,6.0,{}
213,167,4.123105625617661,22.80350850198276,2.23606797749979,2.23606797749979,7.071067811865476,8.246211251235321,3.1622776601683795,11.180339887498947,9.055385138137416,7.0,2.0,8.0,2.0,6.0,3.0,0.0,2.23606797749979,2.0,2.0,10.0,3.0,8.246211251235321,{}
214,168,0.0,115.15641536623131,8.06225774829855,22.02271554554524,29.017236257093817,31.016124838541646,45.39823785126467,75.4254598925323,53.46026561849464,53.0,40.0,46.0,2.0,32.0,8.0,8.0,15.297058540778355,15.0,15.5,55.0,46.0,52.15361924162119,{}
215,168,2.0,19.1049731745428,3.0,4.123105625617661,5.0990195135927845,6.082762530298219,6.082762530298219,15.132745950421556,11.04536101718726,10.0,12.0,10.0,5.0,4.0,0.0,3.0,3.0,4.123105625617661,3.5,10.0,11.0,4.123105625617661,{}
216,169,3.1622776601683795,114.21471008587292,9.055385138137416,23.08679276123039,29.068883707497267,31.064449134018133,44.28317965096906,79.51100552753688,56.43580423808985,54.5,41.0,48.0,0.5,34.5,8.5,7.5,18.24828759089466,18.0,18.0,55.0,43.0,48.16637831516918,{}
217,169,2.0,18.110770276274835,2.0,4.123105625617661,6.082762530298219,6.082762530298219,7.0,15.033296378372908,11.0,10.0,12.0,10.0,4.0,4.0,0.0,3.0,3.0,3.1622776601683795,3.5,9.0,11.0,5.0,{}
218,170,1.0,115.2128465059344,10.0,24.08318915758459,27.018512172212592,30.066592756745816,43.41658669218482,77.52418977325722,53.46026561849464,53.0,40.0,47.0,0.5,33.5,7.5,7.5,18.24828759089466,18.0,18.0,56.0,44.0,47.16990566028302,{}
219,170,3.0,19.026297590440446,2.23606797749979,4.0,7.0,7.071067811865476,6.082762530298219,15.0,11.0,9.5,12.0,11.0,5.5,3.5,0.5,3.5,3.0,2.23606797749979,2.5,9.0,10.0,5.0,{}
220,170,3.1622776601683795,23.194827009486403,2.23606797749979,2.23606797749979,7.0,7.071067811865476,3.0,10.04987562112089,8.0,6.5,3.0,6.0,1.5,5.5,2.5,0.5,2.0,3.0,3.0,10.0,5.0,6.082762530298219,{}
221,171,6.082762530298219,113.28283188550682,10.04987562112089,25.179356624028344,27.073972741361768,30.066592756745816,41.30375285612676,82.60750571225353,57.42821606144492,54.0,40.0,48.0,3.0,38.0,10.0,6.0,19.235384061671343,19.026297590440446,19.0,58.0,47.0,48.16637831516918,{}
222,171,4.0,18.24828759089466,2.0,4.123105625617661,6.082762530298219,6.082762530298219,6.082762530298219,16.1245154965971,12.041594578792296,10.0,13.0,10.0,5.5,4.5,0.5,3.5,3.1622776601683795,2.23606797749979,2.5,8.0,10.0,6.0,{}
223,172,11.04536101718726,114.21471008587292,10.198039027185567,24.186773244895647,28.0713376952364,30.066592756745816,41.30375285612676,86.70063436907483,62.51399843235114,56.5,42.0,49.0,4.5,40.5,13.5,4.5,19.235384061671343,19.0,19.5,56.0,45.0,45.09988913511872,{}
224,172,5.0,19.1049731745428,2.0,5.0990195135927845,7.071067811865476,7.071067811865476,6.0,18.027756377319943,13.0,10.5,14.0,12.0,7.0,5.0,0.0,5.0,2.23606797749979,2.0,2.0,8.0,9.0,6.0,{}
225,173,12.16552506059644,116.27553482998908,10.04987562112089,24.08318915758459,28.0713376952364,30.066592756745816,39.45883931389772,85.70880934886448,61.66036003787198,55.0,41.0,49.0,6.0,40.0,14.0,3.0,19.235384061671343,19.0,19.5,55.0,44.0,43.18564576337837,{}
226,173,3.0,18.24828759089466,3.1622776601683795,4.123105625617661,5.0990195135927845,5.0990195135927845,5.0,15.132745950421556,11.04536101718726,9.5,12.0,9.0,5.5,4.5,1.5,2.5,3.0,3.1622776601683795,3.0,9.0,11.0,4.123105625617661,{}
227,174,13.038404810405298,116.15506876585285,10.04987562112089,24.08318915758459,27.073972741361768,30.01666203960727,39.319206502675,86.46964785403026,62.39390995922599,55.5,44.0,50.0,8.0,39.0,13.0,1.0,19.235384061671343,19.0,19.5,52.0,42.0,43.04648650006177,{}
228,175,13.038404810405298,114.15778554264269,9.055385138137416,23.08679276123039,27.018512172212592,29.017236257093817,40.311288741492746,85.47514258543241,62.39390995922599,55.5,46.0,52.0,9.0,36.0,11.0,1.0,20.223748416156685,20.0,20.0,54.0,44.0,43.04648650006177,{}
229,175,5.0,19.1049731745428,3.0,4.123105625617661,6.082762530298219,7.071067811865476,4.123105625617661,16.1245154965971,12.041594578792296,9.5,12.0,10.0,7.0,5.0,1.0,5.0,2.23606797749979,2.0,2.0,8.0,9.0,5.0990195135927845,{}
230,176,13.0,113.07077429645558,10.198039027185567,23.08679276123039,27.018512172212592,29.017236257093817,38.2099463490856,84.38009243891595,61.29437168288782,54.5,47.0,51.0,11.0,35.0,10.0,2.0,20.223748416156685,20.0,20.5,52.0,43.0,42.04759208325728,{}
231,176,7.0,20.39607805437113,3.1622776601683795,4.123105625617661,7.071067811865476,7.0,6.0,20.09975124224178,16.0312195418814,12.5,17.0,13.0,9.0,5.0,1.0,7.0,1.4142135623730951,2.23606797749979,2.0,7.0,11.0,6.082762530298219,{}
232,177,11.04536101718726,114.0701538527936,10.04987562112089,23.021728866442675,27.073972741361768,30.01666203960727,38.2099463490856,82.29823813423954,59.30430001273095,53.5,47.0,51.0,11.0,33.0,9.0,2.0,19.235384061671343,20.0,20.0,53.0,43.0,44.10215414239989,{}
233,177,4.0,18.24828759089466,3.0,4.123105625617661,6.082762530298219,6.0,4.123105625617661,15.132745950421556,11.04536101718726,9.0,13.0,10.0,7.5,3.5,0.5,5.5,3.0,3.1622776601683795,2.5,8.0,11.0,5.0,{}
234,178,15.033296378372908,113.11056537742176,10.04987562112089,25.079872407968907,27.073972741361768,30.0,36.12478373637688,86.28441342444185,61.20457499239743,53.5,48.0,53.0,14.5,35.5,9.5,4.5,19.235384061671343,19.026297590440446,19.5,55.0,48.0,48.04164859785725,{}
235,178,4.0,18.24828759089466,3.1622776601683795,4.123105625617661,6.082762530298219,6.082762530298219,4.0,15.132745950421556,11.04536101718726,9.0,12.0,9.0,6.5,4.5,0.5,4.5,3.1622776601683795,3.1622776601683795,3.0,9.0,10.0,7.071067811865476,{}
236,178,4.123105625617661,25.179356624028344,2.0,2.0,8.06225774829855,8.06225774829855,5.0,13.038404810405298,11.04536101718726,9.0,4.0,7.0,0.5,7.5,4.5,1.5,1.0,2.0,1.5,7.0,3.0,8.246211251235321,{}
237,179,23.021728866442675,117.01709276853532,10.04987562112089,23.021728866442675,30.01666203960727,33.0,34.132096331752024,90.19977827023745,67.1863081289633,55.5,50.0,52.0,17.0,39.0,14.0,8.0,20.09975124224178,20.0,20.0,58.0,50.0,50.08991914547278,{}
238,179,4.0,18.24828759089466,3.1622776601683795,3.1622776601683795,5.0990195135927845,6.082762530298219,6.0,16.1245154965971,13.038404810405298,11.0,14.0,11.0,6.5,3.5,0.5,4.5,2.0,3.1622776601683795,2.5,7.0,8.0,4.0,{}
239,179,4.0,26.0768096208106,1.0,2.0,8.0,8.06225774829855,2.23606797749979,9.055385138137416,7.071067811865476,5.0,1.0,3.0,0.0,7.0,4.0,1.0,3.1622776601683795,3.0,3.0,8.0,6.0,8.06225774829855,{}
240,180,25.019992006393608,117.01709276853532,10.04987562112089,23.021728866442675,29.017236257093817,32.01562118716424,33.06055050963308,91.13725912051558,68.11754546370561,55.5,49.0,51.0,17.0,41.0,17.0,8.0,20.09975124224178,20.0,20.0,54.0,49.0,46.04345773288535,{}
241,180,1.0,19.4164878389476,2.23606797749979,3.0,6.082762530298219,7.071067811865476,7.0,13.038404810405298,10.04987562112089,9.5,12.0,8.0,3.0,3.0,0.0,2.0,3.0,2.23606797749979,2.5,8.0,10.0,5.0,{}
242,180,3.0,23.194827009486403,2.0,2.0,6.082762530298219,7.071067811865476,3.1622776601683795,10.04987562112089,8.06225774829855,6.5,2.0,5.0,0.5,6.5,3.5,1.5,1.4142135623730951,2.0,2.0,10.0,6.0,7.071067811865476,{}
243,181,26.019223662515376,119.00420160649792,9.055385138137416,23.021728866442675,30.01666203960727,33.0,33.015148038438355,91.08786966440702,68.06614430096654,55.0,48.0,49.0,15.5,42.5,18.5,7.5,18.110770276274835,17.0,17.5,52.0,48.0,49.04079934095692,{}
244,182,27.018512172212592,119.01680553602505,8.06225774829855,21.095023109728988,31.016124838541646,34.0147027033899,34.0,90.08884503644168,69.02897942168927,55.5,48.0,50.0,15.0,41.0,19.0,8.0,8.06225774829855,7.071067811865476,7.5,47.0,44.0,39.0,{}
245,183,20.0,117.00427342623004,9.055385138137416,23.08679276123039,30.0,33.0,40.01249804748511,92.0869154657707,69.02897942168927,59.0,53.0,52.0,12.5,39.5,15.5,5.5,7.071067811865476,6.082762530298219,6.0,48.0,45.0,38.0,{}
246,183,7.0,21.213203435596427,3.1622776601683795,4.123105625617661,6.0,6.082762530298219,6.082762530298219,20.223748416156685,16.1245154965971,12.5,15.0,12.0,7.5,6.5,2.5,4.5,1.4142135623730951,2.23606797749979,1.5,8.0,12.0,7.071067811865476,{}
247,184,10.0,113.017697729161,9.055385138137416,20.0,28.0178514522438,30.01666203960727,43.04648650006177,82.05485969764375,62.07253821135398,57.0,54.0,52.0,10.0,29.0,8.0,3.0,7.071067811865476,8.06225774829855,7.5,48.0,45.0,35.0,{}
248,184,7.0,21.095023109728988,4.123105625617661,4.123105625617661,6.082762530298219,6.0,5.0990195135927845,20.223748416156685,16.1245154965971,12.5,14.0,12.0,8.0,7.0,3.0,5.0,1.4142135623730951,1.4142135623730951,1.0,7.0,10.0,8.06225774829855,{}
249,185,4.0,114.0,11.04536101718726,23.021728866442675,30.01666203960727,32.01562118716424,44.01136216933077,82.05485969764375,59.033888572581766,57.0,53.0,53.0,9.0,29.0,5.0,0.0,10.198039027185567,10.0,10.0,49.0,47.0,39.01281840626232,{}
250,185,6.082762530298219,17.11724276862369,3.1622776601683795,4.123105625617661,5.0990195135927845,6.082762530298219,6.082762530298219,19.1049731745428,15.033296378372908,12.0,16.0,14.0,9.0,4.0,0.0,7.0,2.23606797749979,2.23606797749979,2.5,7.0,8.0,5.0,{}
251,186,8.0,114.00438588054408,11.04536101718726,24.020824298928627,29.0,31.0,43.04648650006177,86.09297300012354,62.07253821135398,58.0,52.0,53.0,9.5,33.5,7.5,0.5,15.033296378372908,15.0,15.0,49.0,46.0,44.0,{}
252,187,21.02379604162864,116.00431026474836,11.0,24.0,29.0,33.015148038438355,39.11521443121589,95.08417323613853,71.11258679024411,60.5,52.0,53.0,13.5,42.5,16.5,4.5,17.029386365926403,17.029386365926403,17.5,50.0,46.0,44.01136216933077,{}
253,188,27.018512172212592,114.03946685248928,9.0,22.0,29.017236257093817,32.0,36.22154055254967,94.13288479590966,72.17340230306452,58.5,49.0,52.0,14.5,43.5,19.5,6.5,18.110770276274835,18.027756377319943,18.5,51.0,48.0,47.01063709417264,{}
254,189,25.019992006393608,112.04017136723776,10.0,22.02271554554524,28.0178514522438,31.016124838541646,34.23448553724738,91.19758768739445,69.18092222571191,56.5,48.0,51.0,15.5,41.5,17.5,6.5,20.024984394500787,19.0,19.5,52.0,48.0,47.042533945356304,{}
255,189,5.0,23.194827009486403,2.23606797749979,3.0,6.0,7.071067811865476,1.0,11.04536101718726,8.06225774829855,5.5,1.0,4.0,1.5,8.5,4.5,0.5,2.23606797749979,1.0,1.0,9.0,5.0,6.324555320336759,{}
256,190,21.02379604162864,109.01834707974616,10.0,23.021728866442675,26.019223662515376,29.0,35.22782990761707,89.20201791439474,66.18912297349165,55.5,50.0,52.0,16.0,38.0,13.0,7.0,20.09975124224178,20.024984394500787,20.0,44.0,43.0,41.01219330881976,{}
257,191,7.071067811865476,107.00467279516349,12.0,24.020824298928627,27.018512172212592,29.017236257093817,39.20459156782532,82.21921916437786,58.215118311311535,54.5,51.0,52.0,12.5,30.5,5.5,1.5,20.09975124224178,20.024984394500787,20.0,49.0,46.0,42.0,{}
258,191,6.0,24.186773244895647,1.0,2.23606797749979,7.071067811865476,8.06225774829855,2.0,11.04536101718726,9.0,6.0,2.0,5.0,1.5,7.5,4.5,0.5,2.23606797749979,3.0,2.5,12.0,7.0,7.615773105863909,{}
259,191,3.1622776601683795,20.223748416156685,3.0,3.0,7.071067811865476,7.071067811865476,6.082762530298219,15.0,12.0,10.5,12.0,9.0,4.5,4.5,1.5,2.5,3.0,3.0,3.0,10.0,11.0,8.0,{}
260,192,5.0990195135927845,107.0,13.0,24.020824298928627,26.019223662515376,28.0,38.2099463490856,80.22468448052632,56.22277118748239,53.5,50.0,50.0,12.0,30.0,5.0,0.0,20.09975124224178,21.0,21.0,48.0,47.0,43.01162633521314,{}
261,193,4.0,105.0,12.0,23.021728866442675,25.0,28.0178514522438,41.19465984809196,80.15609770940699,57.14017850864661,55.0,52.0,52.0,11.0,28.0,3.0,1.0,20.09975124224178,20.0,20.5,46.0,46.0,40.01249804748511,{}
262,194,7.0,107.00467279516349,13.0,25.019992006393608,26.0,29.0,39.20459156782532,84.1486779456457,59.13543776789008,55.5,51.0,52.0,12.5,32.5,6.5,1.5,20.09975124224178,20.0,20.5,47.0,46.0,41.01219330881976,{}
263,195,12.041594578792296,106.01886624558855,13.0,26.019223662515376,25.0,29.0,40.19950248448356,91.19758768739445,65.19202405202648,59.0,53.0,55.0,14.0,37.0,10.0,3.0,20.09975124224178,21.02379604162864,22.0,47.0,48.0,39.01281840626232,{}
264,196,23.021728866442675,108.0185169311262,11.0,24.020824298928627,27.0,29.017236257093817,36.12478373637688,94.13288479590966,70.11419257183242,58.5,53.0,55.0,18.0,40.0,14.0,8.0,21.095023109728988,21.02379604162864,21.5,49.0,50.0,42.04759208325728,{}
265,197,26.019223662515376,114.00438588054408,11.0,24.020824298928627,27.018512172212592,31.0,32.0624390837628,93.08598175880188,69.06518659932803,56.0,51.0,52.0,19.5,41.5,15.5,9.5,21.095023109728988,20.024984394500787,21.0,49.0,50.0,45.0,{}
266,197,10.04987562112089,19.4164878389476,2.23606797749979,3.1622776601683795,5.0990195135927845,6.082762530298219,4.123105625617661,19.4164878389476,16.278820596099706,11.0,13.0,9.0,7.0,8.0,5.0,5.0,1.4142135623730951,1.4142135623730951,1.0,5.0,7.0,7.071067811865476,{}
267,198,27.0,116.0,12.0,24.020824298928627,27.018512172212592,31.016124838541646,29.068883707497267,92.04890004774636,68.0294054067798,54.5,51.0,51.0,22.0,41.0,15.0,10.0,19.1049731745428,20.024984394500787,20.5,47.0,48.0,44.01136216933077,{}
268,198,4.0,19.235384061671343,2.0,4.0,5.0990195135927845,6.082762530298219,5.0,15.0,11.0,9.0,12.0,9.0,5.5,4.5,0.5,3.5,3.0,2.23606797749979,2.0,8.0,10.0,8.0,{}
269,199,30.0,119.01680553602505,11.0,23.021728866442675,28.0,31.0,29.017236257093817,93.02150289046077,70.00714249274856,55.0,52.0,50.0,22.0,42.0,17.0,12.0,20.09975124224178,20.024984394500787,21.0,45.0,48.0,45.0111097397076,{}
270,200,32.0,122.03687967167956,11.0,23.0,29.017236257093817,32.01562118716424,28.0,94.0,71.0,55.0,52.0,49.0,22.5,43.5,18.5,12.5,20.09975124224178,20.024984394500787,20.5,42.0,46.0,44.0,{}
271,201,29.017236257093817,124.03628501370072,13.0,24.0,30.01666203960727,34.058772731852805,28.0178514522438,94.0,70.0,55.5,50.0,47.0,20.5,45.5,20.5,9.5,20.024984394500787,20.024984394500787,20.5,42.0,46.0,42.01190307520001,{}
272,201,5.0,25.079872407968907,2.0,2.0,7.071067811865476,8.0,2.23606797749979,11.04536101718726,9.055385138137416,6.5,3.0,5.0,2.0,7.0,4.0,0.0,1.4142135623730951,2.0,2.0,8.0,4.0,6.082762530298219,{}
273,202,30.0,127.06297651164952,12.0,24.0,31.016124838541646,35.0142828000232,29.0,95.0,71.0,56.0,49.0,45.0,18.0,48.0,23.0,8.0,19.026297590440446,19.026297590440446,20.0,45.0,49.0,45.0111097397076,{}
274,202,4.0,25.179356624028344,1.0,3.0,8.0,8.06225774829855,2.23606797749979,10.04987562112089,7.071067811865476,5.0,1.0,4.0,0.5,7.5,3.5,0.5,1.4142135623730951,2.23606797749979,1.5,10.0,5.0,5.385164807134504,{}
275,203,32.0,132.09466302617983,12.0,23.0,32.01562118716424,36.05551275463989,30.01666203960727,97.0051545022222,74.00675644831355,58.0,48.0,43.0,15.5,51.5,27.5,6.5,20.024984394500787,20.024984394500787,20.5,42.0,46.0,46.0,{}
276,203,5.0,26.30589287593181,1.4142135623730951,2.0,8.06225774829855,8.06225774829855,3.1622776601683795,11.0,9.0,6.5,1.0,5.0,0.0,8.0,5.0,1.0,1.4142135623730951,2.23606797749979,1.5,8.0,3.0,5.0990195135927845,{}
277,204,34.0,133.09395177843356,11.04536101718726,23.0,33.015148038438355,37.01351104664349,31.0,99.0050503762308,76.00657866263946,59.0,48.0,43.0,14.5,53.5,28.5,5.5,19.026297590440446,18.027756377319943,19.0,44.0,50.0,52.009614495783374,{}
278,204,6.0,19.1049731745428,3.0,4.123105625617661,6.0,7.0,6.082762530298219,19.1049731745428,15.033296378372908,12.0,15.0,13.0,8.0,5.0,1.0,5.0,2.23606797749979,3.1622776601683795,2.5,7.0,10.0,6.324555320336759,{}
279,204,4.123105625617661,23.021728866442675,2.23606797749979,2.23606797749979,7.071067811865476,7.0,2.23606797749979,10.0,8.06225774829855,6.0,3.0,4.0,1.5,6.5,3.5,0.5,2.0,1.0,1.0,9.0,2.0,6.324555320336759,{}
280,205,34.0147027033899,138.1774221788784,11.04536101718726,23.0,33.015148038438355,37.05401462729781,30.01666203960727,98.04590761474952,75.05997601918082,58.0,46.0,39.0,12.5,55.5,30.5,4.5,19.026297590440446,19.1049731745428,19.5,45.0,52.0,49.0,{}
281,205,5.0,19.1049731745428,3.1622776601683795,4.0,5.0990195135927845,5.0990195135927845,6.0,18.027756377319943,14.0356688476182,11.5,15.0,13.0,8.0,4.0,0.0,5.0,3.0,3.0,3.0,8.0,8.0,5.0990195135927845,{}
282,205,3.0,23.194827009486403,2.0,3.0,7.0,7.071067811865476,2.0,10.0,7.0,5.5,2.0,5.0,1.5,6.5,2.5,0.5,2.23606797749979,2.0,2.0,9.0,6.0,8.246211251235321,{}
283,206,31.016124838541646,140.089257261219,11.0,23.0,34.0147027033899,39.0,31.14482300479488,96.08329719571452,73.10950690573696,57.5,44.0,39.0,10.5,54.5,29.5,2.5,18.110770276274835,18.027756377319943,19.5,41.0,50.0,50.039984012787215,{}
284,206,6.0,19.1049731745428,4.0,4.123105625617661,6.0,6.0,5.0,19.026297590440446,15.0,12.0,16.0,14.0,10.0,4.0,0.0,6.0,2.0,3.1622776601683795,2.5,7.0,8.0,5.0,{}
285,206,4.0,25.079872407968907,2.0,2.0,8.0,8.0,4.123105625617661,12.041594578792296,10.04987562112089,8.0,4.0,6.0,1.0,7.0,4.0,0.0,2.23606797749979,2.0,1.5,8.0,5.0,7.280109889280518,{}
286,207,30.066592756745816,141.0319112825179,10.0,22.0,36.0,39.01281840626232,32.2490309931942,94.19129471453292,72.24956747275377,57.0,42.0,39.0,8.5,53.5,29.5,0.5,17.11724276862369,17.029386365926403,18.0,44.0,50.0,57.0,{}
287,207,5.0990195135927845,26.0768096208106,1.0,2.0,8.06225774829855,8.06225774829855,5.385164807134504,13.038404810405298,11.04536101718726,8.5,4.0,6.0,0.0,8.0,5.0,1.0,2.0,2.0,2.0,5.0,4.0,10.04987562112089,{}
288,208,28.0713376952364,140.00357138301865,10.0,22.0,36.013886210738214,40.01249804748511,33.13608305156178,93.1343116150004,71.17583859709698,57.0,39.0,40.0,6.5,53.5,28.5,1.5,19.1049731745428,18.110770276274835,18.5,46.0,49.0,53.0,{}
289,208,5.0,26.0768096208106,2.0,2.0,7.0,8.0,2.23606797749979,11.04536101718726,9.055385138137416,6.5,3.0,5.0,2.0,7.0,4.0,0.0,2.0,2.23606797749979,1.5,8.0,5.0,7.280109889280518,{}
290,209,27.018512172212592,139.05754204644924,9.055385138137416,22.0,35.05709628591621,39.05124837953327,31.14482300479488,89.1403387922662,67.1863081289633,53.5,35.0,39.0,6.0,52.0,26.0,2.0,19.235384061671343,19.026297590440446,19.5,49.0,47.0,53.009433122794285,{}
291,209,2.23606797749979,18.110770276274835,3.0,4.0,5.0990195135927845,5.0990195135927845,6.0,15.033296378372908,11.04536101718726,10.0,12.0,10.0,5.0,4.0,0.0,3.0,4.123105625617661,3.0,3.0,9.0,11.0,6.082762530298219,{}
292,210,24.020824298928627,135.18135966175217,9.0,22.0,35.05709628591621,38.2099463490856,31.14482300479488,86.09297300012354,64.1248781675256,52.0,32.0,39.0,4.5,50.5,23.5,3.5,19.235384061671343,20.0,20.5,51.0,46.0,50.00999900019995,{}
293,210,3.1622776601683795,18.24828759089466,4.0,4.123105625617661,4.123105625617661,5.0990195135927845,5.0990195135927845,16.278820596099706,12.16552506059644,10.5,14.0,11.0,7.5,3.5,0.5,4.5,3.0,3.1622776601683795,3.0,8.0,11.0,4.0,{}
294,211,27.073972741361768,136.444127759314,9.0,20.024984394500787,34.132096331752024,37.33630940518894,30.14962686336267,86.09297300012354,66.18912297349165,52.5,28.0,39.0,3.5,52.5,26.5,4.5,19.4164878389476,21.0,21.0,53.0,46.0,52.03844732503075,{}
295,211,5.0,29.017236257093817,2.0,2.0,8.06225774829855,8.0,1.4142135623730951,10.04987562112089,8.06225774829855,5.5,0.0,1.0,0.5,9.5,6.5,2.5,2.0,2.0,2.0,10.0,8.0,7.071067811865476,{}
296,211,7.0,19.1049731745428,2.23606797749979,3.0,5.0990195135927845,5.0,7.0,19.026297590440446,16.0312195418814,12.5,13.0,15.0,7.0,5.0,1.0,5.0,1.0,2.0,1.5,7.0,7.0,6.0,{}
297,212,28.0713376952364,136.82470537150812,9.0,22.0,33.13608305156178,37.48332962798263,31.064449134018133,90.08884503644168,68.11754546370561,54.0,25.0,40.0,1.5,57.5,28.5,6.5,20.39607805437113,21.02379604162864,21.0,56.0,47.0,48.04164859785725,{}
298,212,5.0,27.073972741361768,1.4142135623730951,4.0,7.0,7.0,3.1622776601683795,13.0,9.0,6.5,2.0,4.0,0.0,10.0,5.0,1.0,3.605551275463989,4.123105625617661,4.0,13.0,7.0,6.708203932499369,{}
299,213,24.08318915758459,136.82470537150812,8.0,24.020824298928627,33.24154027718932,37.48332962798263,29.068883707497267,85.05292469985967,61.1310068623117,49.0,22.0,37.0,0.5,55.5,25.5,7.5,20.39607805437113,21.0,21.5,60.0,47.0,52.08646657242167,{}
300,213,4.123105625617661,25.019992006393608,2.23606797749979,2.0,7.0,8.0,1.4142135623730951,9.055385138137416,7.071067811865476,5.0,1.0,2.0,0.5,7.5,4.5,0.5,2.23606797749979,2.0,2.0,10.0,7.0,7.071067811865476,{}
301,214,22.02271554554524,133.7348122217996,8.0,23.021728866442675,34.23448553724738,36.49657518178932,30.14962686336267,83.05419917138447,60.13318551349163,49.0,22.0,36.0,1.0,54.0,25.0,9.0,20.39607805437113,21.0,21.0,58.0,46.0,54.037024344425184,{}
302,214,5.0,28.16025568065745,1.0,3.0,8.06225774829855,8.06225774829855,3.1622776601683795,12.041594578792296,9.055385138137416,6.5,2.0,5.0,0.5,8.5,4.5,0.5,2.23606797749979,2.23606797749979,2.0,10.0,4.0,9.486832980505138,{}
303,215,23.08679276123039,135.6244815658294,8.0,23.021728866442675,34.23448553724738,37.65634076752546,29.154759474226505,83.09632964216891,60.20797289396148,48.5,22.0,35.0,0.5,54.5,25.5,8.5,22.36067977499789,22.0,22.5,56.0,44.0,54.00925846556311,{}
304,215,6.0,27.459060435491963,2.0,3.1622776601683795,8.246211251235321,8.06225774829855,2.23606797749979,13.152946437965904,10.04987562112089,7.0,1.0,6.0,1.5,9.5,5.5,1.5,2.8284271247461903,2.0,2.5,11.0,4.0,11.704699910719626,{}
305,216,25.079872407968907,134.5362404707371,8.0,23.0,35.22782990761707,37.48332962798263,28.0713376952364,84.09518416651456,61.1310068623117,48.5,22.0,34.0,0.0,56.0,27.0,7.0,23.53720459187964,22.02271554554524,22.5,58.0,47.0,51.0098029794274,{}
306,217,29.068883707497267,133.5402561027947,8.0,23.0,34.23448553724738,37.48332962798263,27.018512172212592,87.05170877128145,64.07027391856539,49.5,21.0,33.0,0.0,60.0,31.0,8.0,23.345235059857504,24.020824298928627,24.5,59.0,49.0,54.0,{}
307,218,29.017236257093817,133.5402561027947,8.0,22.0,33.24154027718932,36.49657518178932,29.068883707497267,88.05112151472007,66.06814663663572,51.5,22.0,34.0,1.0,60.0,31.0,9.0,24.33105012119288,24.0,24.5,54.0,43.0,50.00999900019995,{}
308,218,1.0,20.223748416156685,2.0,4.0,6.0,6.082762530298219,6.0,13.0,9.0,8.5,11.0,8.0,3.5,3.5,0.5,1.5,4.0,3.1622776601683795,3.0,9.0,12.0,10.04987562112089,{}
309,219,32.0624390837628,132.45754036671525,6.0,21.02379604162864,34.23448553724738,37.48332962798263,30.14962686336267,89.08984229416954,68.18357573492314,52.0,22.0,33.0,2.5,61.5,33.5,8.5,24.33105012119288,24.020824298928627,24.0,51.0,40.0,51.03920062069938,{}
310,219,2.0,20.223748416156685,2.0,3.1622776601683795,6.082762530298219,7.071067811865476,6.0,13.038404810405298,10.0,9.0,11.0,8.0,3.5,3.5,1.5,2.5,4.123105625617661,3.0,3.0,8.0,11.0,11.0,{}
311,220,32.01562118716424,128.39003076563228,6.0,22.02271554554524,35.22782990761707,38.47076812334269,30.066592756745816,90.0222194794152,68.06614430096654,52.0,23.0,33.0,2.0,62.0,33.0,8.0,24.33105012119288,25.0,25.0,49.0,38.0,51.03920062069938,{}
312,220,1.0,19.4164878389476,3.0,4.123105625617661,6.082762530298219,6.082762530298219,5.0,13.038404810405298,9.0,8.5,11.0,7.0,4.0,4.0,0.0,2.0,3.1622776601683795,3.0,2.5,8.0,11.0,10.04987562112089,{}
313,221,30.066592756745816,123.25988804148736,5.0,20.024984394500787,31.25699921617557,34.36568055487916,33.06055050963308,88.05112151472007,68.11754546370561,53.0,27.0,35.0,2.0,57.0,31.0,7.0,24.33105012119288,25.079872407968907,24.5,46.0,37.0,49.01020301937138,{}
314,222,24.08318915758459,119.2057045614848,4.0,20.0,30.066592756745816,32.38826948140329,36.013886210738214,84.0535543567314,64.07027391856539,52.0,29.0,36.0,3.5,51.5,26.5,7.5,24.33105012119288,25.019992006393608,25.0,49.0,39.0,51.0098029794274,{}
315,223,16.278820596099706,116.21101496846155,6.082762530298219,21.02379604162864,29.068883707497267,32.38826948140329,37.05401462729781,80.05623023850174,59.13543776789008,51.0,30.0,37.0,3.5,46.5,19.5,9.5,25.317977802344327,25.0,25.5,48.0,39.0,51.0098029794274,{}
316,223,1.4142135623730951,20.39607805437113,3.0,3.0,6.082762530298219,7.0,5.0,12.041594578792296,9.055385138137416,8.5,11.0,7.0,4.0,3.0,0.0,2.0,2.23606797749979,2.0,2.5,8.0,11.0,7.0,{}
317,224,11.04536101718726,112.2853507809456,8.0,21.0,29.068883707497267,32.38826948140329,37.01351104664349,77.02596964660685,56.0357029044876,50.5,30.0,38.0,3.0,43.0,16.0,11.0,24.515301344262525,25.019992006393608,24.5,50.0,40.0,48.04164859785725,{}
318,225,8.06225774829855,112.16059914247964,8.0,22.0,31.064449134018133,34.23448553724738,38.0,76.00657866263946,54.00925846556311,50.0,32.0,38.0,3.0,41.0,14.0,10.0,24.33105012119288,23.021728866442675,23.5,47.0,39.0,50.00999900019995,{}
319,226,5.385164807134504,112.2853507809456,10.0,23.021728866442675,28.0713376952364,30.26549190084312,37.01351104664349,75.02666192761077,52.08646657242167,49.5,31.0,39.0,2.0,40.0,12.0,11.0,23.345235059857504,24.020824298928627,24.5,55.0,48.0,55.03635162326805,{}
320,227,4.123105625617661,112.2853507809456,9.0,24.0,30.14962686336267,32.38826948140329,38.0,75.0066663703967,51.0098029794274,49.0,31.0,39.0,3.0,40.0,12.0,12.0,24.33105012119288,24.020824298928627,24.5,50.0,43.0,51.0098029794274,{}
321,228,4.123105625617661,109.2931836849856,10.0,23.021728866442675,29.068883707497267,31.25699921617557,37.0,74.0,51.0098029794274,49.0,31.0,39.0,2.0,39.0,11.0,11.0,25.495097567963924,25.019992006393608,25.0,50.0,44.0,54.037024344425184,{}
322,229,3.1622776601683795,112.21853679316978,9.0,23.021728866442675,30.066592756745816,33.37663853655727,39.01281840626232,74.00675644831355,51.03920062069938,49.5,32.0,39.0,3.5,38.5,10.5,11.5,24.186773244895647,24.020824298928627,24.5,44.0,39.0,50.00999900019995,{}
323,230,3.1622776601683795,112.36102527122117,10.0,24.020824298928627,30.066592756745816,31.25699921617557,37.0,74.0,50.00999900019995,48.5,30.0,39.0,2.5,39.5,11.5,11.5,24.33105012119288,23.021728866442675,23.5,48.0,41.0,50.00999900019995,{}
324,231,47.042533945356304,136.0,9.0,24.0,35.0,39.01281840626232,31.016124838541646,111.04053313993047,87.05170877128145,63.5,42.0,42.0,11.0,69.0,41.0,4.0,20.024984394500787,20.024984394500787,20.5,46.0,46.0,51.0098029794274,{}
325,232,47.01063709417264,136.0,9.055385138137416,24.0,35.0,41.01219330881976,30.01666203960727,110.04090148667449,86.05230967266364,62.5,41.0,41.0,11.0,69.0,41.0,4.0,20.024984394500787,20.024984394500787,20.5,43.0,44.0,51.0098029794274,{}
326,233,44.04543109109048,135.00370365289984,10.0,25.0,35.0142828000232,39.01281840626232,30.066592756745816,109.07336980216571,84.09518416651456,62.0,42.0,41.0,11.5,67.5,39.5,4.5,19.026297590440446,20.024984394500787,20.0,45.0,46.0,51.0098029794274,{}
327,234,46.04345773288535,136.0,9.0,25.0,34.0,39.01281840626232,30.01666203960727,110.04090148667449,85.05292469985967,62.0,41.0,41.0,11.0,69.0,41.0,4.0,20.024984394500787,20.09975124224178,20.5,44.0,46.0,51.0,{}
328,235,47.042533945356304,134.00373129133382,10.0,24.0,35.0,39.01281840626232,30.01666203960727,111.04053313993047,87.05170877128145,63.5,42.0,41.0,11.5,69.5,41.5,3.5,20.024984394500787,20.024984394500787,20.5,45.0,46.0,54.037024344425184,{}
329,236,48.010415536631214,135.0,9.055385138137416,24.0,35.0,39.01281840626232,31.016124838541646,112.04017136723776,88.05112151472007,64.0,42.0,42.0,11.0,70.0,42.0,4.0,20.09975124224178,20.024984394500787,20.5,43.0,44.0,52.009614495783374,{}
330,237,46.01086828130936,136.0036764208968,10.0,25.0,35.0,39.01281840626232,30.066592756745816,111.04053313993047,86.05230967266364,63.0,41.0,42.0,11.5,69.5,41.5,3.5,20.09975124224178,20.09975124224178,20.5,46.0,47.0,52.009614495783374,{}
331,238,42.01190307520001,136.0,10.0,25.0,34.0,39.05124837953327,30.01666203960727,107.01868995647442,82.02438661763951,61.0,40.0,40.0,10.0,67.0,39.0,2.0,20.09975124224178,21.02379604162864,21.5,44.0,44.0,53.009433122794285,{}
332,239,38.01315561749642,137.00364958642524,9.0,21.02379604162864,34.0,38.01315561749642,30.01666203960727,98.00510190801292,77.02596964660685,58.0,37.0,38.0,7.5,60.5,36.5,0.5,20.09975124224178,20.024984394500787,20.5,42.0,42.0,51.0098029794274,{}
333,240,29.0,136.0,9.0,20.024984394500787,35.0,39.01281840626232,31.016124838541646,89.0,69.00724599634447,54.5,36.0,36.0,5.0,53.0,30.0,1.0,19.1049731745428,20.024984394500787,20.5,41.0,41.0,51.0098029794274,{}
334,241,27.0,136.01470508735443,9.055385138137416,21.0,35.0,38.01315561749642,30.01666203960727,87.0,66.0,52.5,34.0,36.0,5.0,52.0,28.0,2.0,19.1049731745428,20.024984394500787,20.5,42.0,40.0,49.04079934095692,{}
335,242,28.0,134.01492454200763,9.0,21.02379604162864,34.0147027033899,38.01315561749642,31.0,89.00561780022652,68.0,54.0,35.0,37.0,5.0,53.0,29.0,2.0,20.09975124224178,20.024984394500787,21.0,41.0,38.0,47.09564735726647,{}
336,243,31.016124838541646,135.03332921912278,9.0,22.02271554554524,34.0,38.01315561749642,30.0,92.02173656261871,70.00714249274856,54.5,34.0,37.0,5.5,56.5,32.5,1.5,20.223748416156685,20.024984394500787,20.5,41.0,37.0,50.08991914547278,{}
337,244,30.0,133.01503674397117,9.055385138137416,22.02271554554524,33.015148038438355,38.01315561749642,30.0,91.02197536858888,69.00724599634447,54.0,34.0,36.0,5.0,56.0,32.0,2.0,20.223748416156685,20.024984394500787,20.5,39.0,37.0,49.04079934095692,{}
338,245,32.0,134.01492454200763,8.06225774829855,21.02379604162864,34.0,38.01315561749642,31.016124838541646,92.00543462209176,71.0,55.0,35.0,37.0,5.0,56.0,33.0,1.0,20.223748416156685,21.02379604162864,21.0,38.0,36.0,48.04164859785725,{}
339,246,33.0,134.01492454200763,8.06225774829855,21.02379604162864,35.0,38.0,31.016124838541646,93.00537618869136,72.0,55.5,35.0,37.0,5.0,57.0,34.0,1.0,20.09975124224178,21.02379604162864,21.0,39.0,37.0,48.04164859785725,{}
340,247,30.0,133.01503674397117,9.055385138137416,22.02271554554524,33.0,37.0,30.0,91.02197536858888,69.00724599634447,54.0,34.0,36.0,5.0,56.0,32.0,2.0,20.223748416156685,20.024984394500787,20.5,39.0,38.0,46.04345773288535,{}
341,248,25.0,133.0,9.0,22.02271554554524,34.0,37.0,30.0,86.00581375697809,64.0,51.5,35.0,35.0,5.0,51.0,27.0,2.0,20.223748416156685,20.024984394500787,20.5,38.0,35.0,45.044422518220834,{}
342,249,23.0,131.00381673829202,9.0,21.02379604162864,34.0147027033899,37.0,31.0,84.00595217006948,63.0,51.5,34.0,35.0,3.5,49.5,26.5,3.5,20.223748416156685,20.024984394500787,20.5,34.0,31.0,42.04759208325728,{}
343,250,24.0,132.00378782444085,9.055385138137416,22.02271554554524,33.0,36.0,30.0,85.0235261559999,63.00793600809346,51.0,34.0,35.0,4.5,50.5,26.5,2.5,20.09975124224178,20.024984394500787,20.5,38.0,36.0,47.09564735726647,{}
344,251,29.0,132.03408650799233,8.06225774829855,21.02379604162864,34.0147027033899,38.01315561749642,31.0,89.02246907382428,68.00735254367721,53.5,34.0,37.0,4.5,53.5,29.5,2.5,20.223748416156685,20.0,20.5,35.0,33.0,45.044422518220834,{}
345,252,34.0147027033899,129.0155029444136,7.0,23.021728866442675,33.015148038438355,37.0,32.01562118716424,96.04686356149271,73.02739212103907,56.0,37.0,39.0,6.0,58.0,33.0,0.0,21.213203435596427,21.02379604162864,21.0,41.0,37.0,51.03920062069938,{}
346,253,34.0,129.0348790056394,8.06225774829855,21.02379604162864,34.0,38.01315561749642,31.016124838541646,94.04786015641186,73.02739212103907,56.0,36.0,39.0,6.5,56.5,32.5,0.5,20.223748416156685,21.095023109728988,21.0,40.0,37.0,49.04079934095692,{}
347,254,30.0,131.03434664239754,9.0,23.021728866442675,33.0,37.01351104664349,31.064449134018133,93.04837451562494,70.02856560004639,55.0,36.0,39.0,6.5,55.5,29.5,0.5,20.223748416156685,21.02379604162864,21.0,39.0,34.0,46.09772228646444,{}
348,255,29.0,130.01538370516005,8.06225774829855,21.0,33.0,37.01351104664349,32.01562118716424,90.0222194794152,69.02897942168927,54.5,37.0,39.0,6.0,52.0,28.0,0.0,22.20360331117452,21.0,21.0,37.0,33.0,47.09564735726647,{}
349,256,29.0,129.0155029444136,8.0,22.02271554554524,33.015148038438355,37.01351104664349,32.01562118716424,91.02197536858888,69.00724599634447,54.5,37.0,39.0,6.0,53.0,28.0,1.0,20.223748416156685,21.02379604162864,21.0,39.0,35.0,47.09564735726647,{}
350,257,31.016124838541646,128.03515142334936,8.0,22.02271554554524,32.01562118716424,36.013886210738214,31.016124838541646,92.04890004774636,70.02856560004639,54.5,37.0,40.0,7.5,53.5,29.5,0.5,21.213203435596427,21.02379604162864,21.0,43.0,39.0,52.03844732503075,{}
351,258,30.0,128.01562404644207,8.06225774829855,21.0,33.015148038438355,37.01351104664349,32.01562118716424,91.02197536858888,70.02856560004639,55.0,38.0,40.0,7.0,52.0,28.0,0.0,21.213203435596427,21.02379604162864,21.0,41.0,37.0,48.0936586256442,{}
352,259,31.0,130.034610777285,8.06225774829855,21.0,34.0147027033899,37.01351104664349,31.016124838541646,91.02197536858888,70.02856560004639,54.5,37.0,40.0,7.5,52.5,29.5,0.5,21.213203435596427,21.02379604162864,21.5,38.0,34.0,46.04345773288535,{}
353,260,34.0147027033899,129.0620006043607,8.0,21.0,33.015148038438355,37.01351104664349,31.016124838541646,94.02127418834527,73.02739212103907,56.0,38.0,42.0,9.0,54.0,30.0,2.0,21.213203435596427,21.02379604162864,21.0,41.0,37.0,47.09564735726647,{}
354,261,31.016124838541646,128.06248474865697,9.0,21.02379604162864,32.01562118716424,36.013886210738214,31.016124838541646,92.04890004774636,71.02816342831905,55.5,38.0,42.0,9.0,52.0,28.0,1.0,22.09072203437452,21.02379604162864,21.5,42.0,38.0,50.039984012787215,{}
355,262,28.0,128.09761902549164,9.055385138137416,21.02379604162864,32.0624390837628,35.05709628591621,32.0624390837628,90.08884503644168,69.06518659932803,55.0,38.0,43.0,8.5,49.5,26.5,0.5,22.20360331117452,22.02271554554524,22.0,44.0,39.0,50.08991914547278,{}
356,263,29.0,130.09611831257686,9.055385138137416,21.02379604162864,33.06055050963308,37.05401462729781,32.0624390837628,91.08786966440702,70.06425622241343,55.5,38.0,43.0,8.5,50.5,26.5,0.5,21.213203435596427,21.02379604162864,21.5,45.0,41.0,48.0936586256442,{}
357,264,34.0147027033899,129.18978287774928,8.06225774829855,21.02379604162864,32.14031735997639,37.12142238654117,32.0624390837628,95.13148795220224,74.10802925459562,57.0,37.0,44.0,8.5,54.5,30.5,0.5,21.213203435596427,21.02379604162864,21.5,45.0,40.0,50.08991914547278,{}
358,265,33.015148038438355,126.19429464123962,9.055385138137416,22.02271554554524,31.064449134018133,36.12478373637688,33.13608305156178,97.18538984847466,75.16648189186454,58.5,40.0,47.0,10.5,53.5,28.5,2.5,21.095023109728988,21.02379604162864,21.0,47.0,42.0,46.04345773288535,{}
359,266,27.018512172212592,115.1086443322134,8.06225774829855,21.02379604162864,29.068883707497267,32.0624390837628,36.12478373637688,92.19544457292888,71.17583859709698,57.5,45.0,50.0,11.5,44.5,21.5,4.5,12.16552506059644,11.0,11.5,48.0,43.0,41.04875150354759,{}
360,266,10.04987562112089,18.110770276274835,2.0,3.0,6.082762530298219,6.0,6.082762530298219,21.095023109728988,18.110770276274835,13.0,17.0,15.0,10.0,5.0,1.0,8.0,1.0,2.0,2.0,7.0,8.0,4.123105625617661,{}
361,267,17.0,112.0714058089752,8.06225774829855,20.09975124224178,28.0713376952364,30.14962686336267,36.12478373637688,81.2219182240853,61.1310068623117,52.5,45.0,49.0,11.0,34.0,11.0,3.0,7.280109889280518,8.06225774829855,8.0,47.0,42.0,33.06055050963308,{}
362,267,6.082762530298219,18.24828759089466,2.0,4.123105625617661,6.082762530298219,5.0990195135927845,5.0990195135927845,17.26267650163207,13.152946437965904,10.0,14.0,11.0,7.5,4.5,1.5,5.5,2.0,2.0,2.0,8.0,9.0,5.0990195135927845,{}
363,268,10.04987562112089,110.1135777277262,11.0,22.09072203437452,26.0768096208106,29.068883707497267,37.33630940518894,80.39900496896712,58.30951894845301,53.0,46.0,51.0,11.5,31.5,7.5,0.5,9.486832980505138,10.04987562112089,10.5,48.0,41.0,34.058772731852805,{}
364,268,10.04987562112089,19.6468827043885,2.0,3.1622776601683795,6.082762530298219,7.280109889280518,4.123105625617661,19.235384061671343,16.1245154965971,11.0,14.0,9.0,7.5,7.5,4.5,5.5,1.0,2.0,1.5,6.0,10.0,7.071067811865476,{}
365,269,9.055385138137416,111.1125555461668,12.041594578792296,23.08679276123039,25.179356624028344,28.16025568065745,37.21558813185679,81.39410298049853,58.30951894845301,53.5,46.0,51.0,11.5,32.5,7.5,0.5,13.152946437965904,14.0356688476182,14.5,49.0,41.0,35.22782990761707,{}
366,270,18.027756377319943,108.37435120913068,11.180339887498947,22.20360331117452,25.317977802344327,29.154759474226505,35.35533905932738,86.70063436907483,64.4980619863884,55.0,46.0,55.0,15.5,35.5,10.5,3.5,16.278820596099706,17.029386365926403,17.5,51.0,42.0,41.19465984809196,{}
367,270,7.071067811865476,18.24828759089466,2.0,3.0,6.082762530298219,6.082762530298219,5.0990195135927845,17.11724276862369,14.142135623730953,10.5,15.0,12.0,8.5,3.5,0.5,6.5,2.0,2.23606797749979,2.0,7.0,11.0,6.082762530298219,{}
368,271,23.08679276123039,106.38138934982942,12.041594578792296,23.08679276123039,26.1725046566048,29.27456233660889,37.48332962798263,95.63472172804184,72.56031973468694,60.5,50.0,59.0,17.5,40.5,13.5,5.5,18.24828759089466,19.026297590440446,20.0,52.0,43.0,43.18564576337837,{}
369,271,3.0,18.24828759089466,3.1622776601683795,4.123105625617661,6.082762530298219,6.082762530298219,6.0,16.1245154965971,12.041594578792296,10.5,13.0,10.0,5.5,4.5,0.5,3.5,3.0,4.123105625617661,3.5,8.0,10.0,6.0,{}
370,272,11.180339887498947,108.29589096544709,13.038404810405298,24.08318915758459,27.16615541441225,29.154759474226505,40.60788100849391,88.81441324469807,64.77653896280658,58.5,50.0,58.0,14.0,34.0,7.0,1.0,20.223748416156685,21.0,21.0,55.0,45.0,46.17358552246078,{}
371,273,8.246211251235321,106.38138934982942,14.0356688476182,24.08318915758459,25.179356624028344,29.068883707497267,38.47076812334269,84.71717653463199,60.67124524847005,56.0,48.0,57.0,14.5,31.5,4.5,0.5,21.213203435596427,21.02379604162864,21.5,54.0,44.0,42.1070065428546,{}
372,274,10.198039027185567,109.45775440780794,14.0356688476182,24.08318915758459,25.179356624028344,29.154759474226505,36.49657518178932,84.71717653463199,60.67124524847005,55.0,46.0,56.0,15.0,33.0,7.0,1.0,20.223748416156685,21.02379604162864,21.5,55.0,44.0,49.25444142409901,{}
373,275,13.152946437965904,110.5486318323298,13.038404810405298,24.08318915758459,26.30589287593181,29.154759474226505,36.6742416417845,86.83317338436964,62.80127387243033,55.5,45.0,56.0,14.5,35.5,8.5,0.5,21.213203435596427,21.02379604162864,21.5,55.0,45.0,47.16990566028302,{}
374,276,22.20360331117452,114.6298390472568,13.038404810405298,24.08318915758459,27.29468812791236,31.14482300479488,34.713109915419565,93.90420650854784,69.87131027825369,58.0,44.0,56.0,16.0,43.0,16.0,2.0,22.36067977499789,21.0,22.0,56.0,45.0,49.36598018878993,{}
375,277,30.066592756745816,120.702112657567,13.152946437965904,25.179356624028344,29.27456233660889,32.2490309931942,31.575306807693888,99.84988733093292,74.67261881037788,59.0,42.0,55.0,17.5,50.5,22.5,3.5,22.20360331117452,23.0,23.0,57.0,46.0,49.36598018878993,{}
376,278,43.10452412450461,124.67958934805648,13.038404810405298,24.08318915758459,31.25699921617557,36.12478373637688,29.61418578992169,109.65856099730654,85.58621384311844,63.5,43.0,56.0,20.5,59.5,31.5,6.5,21.213203435596427,22.0,23.0,56.0,45.0,47.265209192385896,{}
377,279,48.04164859785725,126.66885963013956,13.038404810405298,26.1725046566048,32.14031735997639,36.12478373637688,29.8328677803526,116.72617529928752,90.55385138137416,66.0,43.0,56.0,20.5,66.5,37.5,7.5,21.213203435596427,22.0,23.0,58.0,48.0,48.25971404805462,{}
378,280,41.04875150354759,128.65846260545786,14.142135623730953,29.068883707497267,33.24154027718932,38.11823710509184,27.65863337187866,111.64676439557036,82.60750571225353,61.5,43.0,56.0,22.5,61.5,29.5,7.5,22.20360331117452,23.0,23.5,54.0,43.0,43.18564576337837,{}
379,281,48.0936586256442,128.65846260545786,13.038404810405298,24.08318915758459,32.14031735997639,38.11823710509184,29.120439557122072,113.86395390991832,89.80534505250787,65.0,42.0,55.0,20.5,64.5,36.5,7.5,22.36067977499789,23.0,23.5,58.0,46.0,54.230987451824994,{}
380,282,44.10215414239989,126.4792473095883,12.041594578792296,23.08679276123039,32.14031735997639,36.05551275463989,29.8328677803526,108.77959367454908,85.70880934886448,63.0,44.0,55.0,20.5,58.5,32.5,7.5,22.20360331117452,23.021728866442675,23.5,56.0,47.0,49.09175083453431,{}
381,283,38.05259518088089,122.40914998479484,12.041594578792296,23.08679276123039,30.14962686336267,34.058772731852805,31.575306807693888,104.58011283222064,81.49846624323675,62.0,45.0,55.0,19.0,54.0,29.0,7.0,23.194827009486403,23.021728866442675,24.0,53.0,44.0,49.16299421312742,{}
382,284,33.06055050963308,117.27318534089538,11.0,23.021728866442675,29.154759474226505,34.058772731852805,32.38826948140329,99.32270636667126,76.32168761236873,59.5,45.0,53.0,17.0,50.0,24.0,6.0,23.345235059857504,23.021728866442675,24.0,52.0,44.0,49.09175083453431,{}
383,285,28.0,113.1591799192624,11.04536101718726,22.09072203437452,27.073972741361768,31.016124838541646,34.23448553724738,95.25754563287887,73.17103251970687,59.0,48.0,54.0,17.0,44.0,19.0,6.0,23.194827009486403,24.08318915758459,24.0,51.0,44.0,41.19465984809196,{}
384,286,22.02271554554524,109.1146186356347,12.041594578792296,24.020824298928627,24.020824298928627,29.017236257093817,35.22782990761707,93.26306878931231,69.26037828369117,58.0,49.0,54.0,16.5,41.5,15.5,4.5,24.186773244895647,23.021728866442675,24.0,57.0,51.0,47.09564735726647,{}
385,287,11.0,107.0420478129973,13.038404810405298,26.019223662515376,25.0,30.0,37.21558813185679,87.20665112249179,61.20457499239743,55.5,49.0,52.0,13.5,36.5,9.5,1.5,23.194827009486403,23.021728866442675,23.5,52.0,46.0,47.042533945356304,{}
386,288,10.0,104.01922899156676,12.041594578792296,24.020824298928627,24.0,28.0178514522438,38.2099463490856,84.2140130857092,60.20797289396148,55.0,50.0,52.0,13.0,33.0,8.0,2.0,23.194827009486403,24.020824298928627,24.0,52.0,47.0,49.04079934095692,{}
387,289,10.04987562112089,104.01922899156676,12.0,24.020824298928627,25.0,28.0,38.2099463490856,84.2140130857092,60.20797289396148,55.0,50.0,52.0,13.0,33.0,8.0,3.0,23.194827009486403,23.021728866442675,23.5,51.0,48.0,47.042533945356304,{}
388,290,10.04987562112089,107.01868995647442,14.0,25.019992006393608,25.0,29.0,35.12833614050059,84.1486779456457,59.13543776789008,54.0,49.0,51.0,15.0,34.0,8.0,2.0,23.194827009486403,23.021728866442675,23.5,51.0,49.0,51.0098029794274,{}
389,291,22.02271554554524,110.00454536063498,13.038404810405298,24.020824298928627,27.018512172212592,31.0,30.066592756745816,89.1403387922662,65.12296062065974,54.0,50.0,51.0,20.5,38.5,13.5,7.5,23.08679276123039,23.08679276123039,23.5,49.0,49.0,46.01086828130936,{}
390,292,30.01666203960727,111.0,12.0,24.020824298928627,26.0,30.01666203960727,27.073972741361768,93.08598175880188,69.06518659932803,54.0,50.0,50.0,23.0,43.0,18.0,11.0,22.09072203437452,23.021728866442675,23.5,51.0,51.0,49.0,{}
391,293,31.016124838541646,111.0,13.038404810405298,25.0,26.019223662515376,30.01666203960727,27.018512172212592,96.04686356149271,71.06335201775947,55.5,51.0,51.0,24.0,45.0,20.0,11.0,23.08679276123039,22.02271554554524,22.5,52.0,53.0,52.0,{}
392,294,21.0,112.01785571952357,14.0356688476182,24.0,24.0,28.0713376952364,31.064449134018133,90.0499861188218,66.06814663663572,55.5,51.0,49.0,19.0,40.0,15.0,6.0,22.09072203437452,22.02271554554524,22.5,51.0,53.0,50.00999900019995,{}
393,295,9.055385138137416,111.04053313993047,13.038404810405298,23.0,26.019223662515376,29.068883707497267,37.01351104664349,82.00609733428362,59.00847396772772,54.5,51.0,48.0,12.5,32.5,9.5,1.5,22.02271554554524,23.08679276123039,23.0,48.0,51.0,51.0098029794274,{}
394,296,10.0,108.07404868885035,12.0,22.0,25.019992006393608,29.068883707497267,39.05124837953327,83.02409288875127,61.032778078668514,56.0,54.0,50.0,13.0,31.0,8.0,3.0,24.08318915758459,24.08318915758459,24.0,46.0,50.0,51.0098029794274,{}
395,297,8.06225774829855,107.07474025184464,12.0,23.0,27.018512172212592,30.01666203960727,42.01190307520001,85.0,62.0,58.0,56.0,52.0,12.0,31.0,7.0,2.0,24.08318915758459,25.079872407968907,25.5,46.0,50.0,47.0,{}
396,298,7.0,110.07270324653612,13.038404810405298,23.08679276123039,27.073972741361768,31.14482300479488,44.04543109109048,87.00574693662483,64.00781202322104,60.5,57.0,53.0,11.0,32.0,7.0,1.0,23.021728866442675,24.08318915758459,24.5,45.0,49.0,49.0,{}
397,299,9.055385138137416,108.04165863221463,12.0,24.020824298928627,26.0768096208106,29.154759474226505,44.01136216933077,89.00561780022652,65.0,60.5,57.0,54.0,11.5,33.5,8.5,2.5,24.020824298928627,25.079872407968907,25.0,49.0,55.0,51.03920062069938,{}
398,300,12.041594578792296,108.04165863221463,12.0,24.020824298928627,26.019223662515376,28.0713376952364,44.04543109109048,92.0,68.00735254367721,62.0,58.0,55.0,12.5,35.5,10.5,2.5,24.020824298928627,25.079872407968907,25.5,48.0,56.0,48.04164859785725,{}
399,301,18.027756377319943,112.11155159036912,12.0,24.020824298928627,27.018512172212592,30.066592756745816,43.04648650006177,97.0,73.00684899377592,64.0,56.0,51.0,10.5,43.5,18.5,1.5,24.08318915758459,24.186773244895647,24.5,47.0,56.0,50.08991914547278,{}
400,302,29.0,116.15506876585285,11.0,24.020824298928627,29.017236257093817,34.058772731852805,40.049968789001575,104.00480758118827,80.02499609497022,65.5,57.0,51.0,14.0,50.0,25.0,5.0,24.020824298928627,24.186773244895647,24.5,44.0,54.0,51.03920062069938,{}
401,303,38.0,123.25988804148736,12.0,23.08679276123039,31.14482300479488,35.22782990761707,33.06055050963308,106.0,83.02409288875127,64.0,55.0,47.0,18.0,55.0,31.0,9.0,23.021728866442675,24.186773244895647,24.5,41.0,54.0,46.17358552246078,{}
402,304,43.01162633521314,127.39309243440164,11.04536101718726,23.021728866442675,33.13608305156178,37.33630940518894,32.0624390837628,109.00458705944445,86.02325267042627,64.5,54.0,44.0,17.0,60.0,36.0,9.0,23.021728866442675,24.186773244895647,24.5,42.0,55.0,54.037024344425184,{}
403,305,44.0,135.6244815658294,10.0,22.02271554554524,33.13608305156178,38.47076812334269,31.016124838541646,107.0,85.00588214941364,63.0,50.0,37.0,12.5,63.5,41.5,6.5,23.021728866442675,23.345235059857504,23.5,43.0,59.0,55.08175741568164,{}
404,306,42.01190307520001,135.94484175576503,11.0,23.08679276123039,33.24154027718932,38.47076812334269,30.0,106.04244433244644,83.00602387778854,62.0,50.0,34.0,12.0,64.0,41.0,5.0,24.020824298928627,24.33105012119288,24.0,37.0,55.0,54.230987451824994,{}
405,307,38.01315561749642,137.05838172107534,10.04987562112089,23.08679276123039,33.24154027718932,37.48332962798263,31.016124838541646,102.04410811016967,79.00632886041473,60.0,49.0,32.0,9.5,61.5,39.5,3.5,24.0,24.33105012119288,24.0,36.0,56.0,52.46903848937962,{}
406,308,35.0142828000232,138.1774221788784,9.055385138137416,22.09072203437452,34.36568055487916,37.48332962798263,32.01562118716424,98.04590761474952,76.00657866263946,58.5,48.0,30.0,7.0,59.0,38.0,3.0,21.02379604162864,22.36067977499789,22.5,34.0,55.0,49.25444142409901,{}
407,309,32.0624390837628,139.5886814895821,9.219544457292889,21.095023109728988,36.49657518178932,39.45883931389772,32.0,94.19129471453292,73.10950690573696,57.0,49.0,28.0,6.5,55.5,34.5,2.5,14.0,12.649110640673518,12.5,37.0,54.0,45.39823785126467,{}
408,310,28.0713376952364,138.31124321616085,8.06225774829855,22.20360331117452,34.36568055487916,37.48332962798263,33.015148038438355,91.26883367283708,69.1158447825099,55.0,47.0,28.0,4.5,53.5,32.5,1.5,6.082762530298219,6.324555320336759,6.0,41.0,59.0,43.28972164382672,{}
409,311,27.073972741361768,137.46272221951665,9.055385138137416,23.194827009486403,35.35533905932738,38.3275357934736,32.0624390837628,91.35097153287424,68.18357573492314,54.5,48.0,28.0,6.0,53.0,30.0,2.0,8.06225774829855,8.54400374531753,8.5,40.0,59.0,45.70557952810576,{}
410,312,28.0713376952364,139.44174410842686,8.246211251235321,22.09072203437452,35.510561809129406,37.48332962798263,32.01562118716424,90.27181176868004,68.18357573492314,54.0,47.0,27.0,5.0,53.0,32.0,2.0,13.038404810405298,12.36931687685298,12.5,37.0,57.0,46.52956049652737,{}
411,313,28.0713376952364,136.194713553794,8.06225774829855,22.09072203437452,34.23448553724738,37.48332962798263,33.0,91.13725912051558,69.06518659932803,55.0,48.0,30.0,6.0,52.0,30.0,2.0,16.0,16.278820596099706,16.5,38.0,56.0,44.40720662234904,{}
412,314,28.0178514522438,134.9518432626987,9.055385138137416,23.08679276123039,34.23448553724738,37.33630940518894,33.015148038438355,93.1343116150004,70.06425622241343,56.0,48.0,32.0,7.0,53.0,30.0,2.0,18.027756377319943,17.26267650163207,18.0,35.0,51.0,41.30375285612676,{}
413,315,29.068883707497267,135.94484175576503,9.0,21.02379604162864,35.22782990761707,38.2099463490856,32.01562118716424,91.08786966440702,70.06425622241343,55.5,48.0,32.0,8.0,51.0,29.0,3.0,19.026297590440446,19.1049731745428,19.0,40.0,53.0,46.09772228646444,{}
414,316,30.01666203960727,135.72398461583714,9.055385138137416,20.024984394500787,33.13608305156178,36.345563690772494,34.0,93.04837451562494,73.02739212103907,58.0,51.0,37.0,10.0,49.0,28.0,4.0,18.027756377319943,18.24828759089466,19.0,38.0,50.0,43.04648650006177,{}
415,316,4.123105625617661,25.29822128134704,4.0,4.123105625617661,6.324555320336759,7.280109889280518,6.082762530298219,18.24828759089466,14.142135623730953,12.0,17.0,9.0,7.0,5.0,2.0,4.0,3.1622776601683795,4.123105625617661,4.0,5.0,17.0,13.92838827718412,{}
416,317,30.01666203960727,132.30646242719968,10.0,23.021728866442675,31.064449134018133,35.05709628591621,35.0142828000232,98.00510190801292,75.0,60.0,51.0,42.0,11.5,51.5,28.5,4.5,20.024984394500787,20.223748416156685,20.0,47.0,53.0,49.0,{}
417,317,0.0,17.26267650163207,3.0,3.1622776601683795,6.082762530298219,6.0,6.0,12.041594578792296,9.0,9.0,11.0,8.0,3.5,2.5,0.5,1.5,2.0,3.1622776601683795,2.5,10.0,11.0,5.0,{}
418,318,33.0,133.1840831330831,11.0,23.021728866442675,32.01562118716424,36.05551275463989,33.015148038438355,100.0,77.00649323271382,60.5,52.0,45.0,15.5,51.5,27.5,6.5,20.024984394500787,19.1049731745428,19.5,52.0,55.0,54.00925846556311,{}
419,318,6.082762530298219,19.235384061671343,3.0,4.123105625617661,5.0990195135927845,6.082762530298219,6.082762530298219,19.235384061671343,15.132745950421556,12.0,16.0,13.0,8.5,4.5,0.5,6.5,2.23606797749979,3.1622776601683795,2.5,7.0,8.0,6.0,{}
420,319,33.0,133.0338302838793,12.0,22.0,33.0,36.0,34.058772731852805,101.01980003939822,79.02531240052139,62.5,53.0,50.0,17.5,49.5,25.5,7.5,20.09975124224178,20.024984394500787,20.5,49.0,49.0,50.08991914547278,{}
421,320,35.0,135.00370365289984,12.041594578792296,23.021728866442675,33.015148038438355,37.01351104664349,34.0147027033899,104.04326023342406,81.02468759581859,63.5,55.0,54.0,20.5,49.5,25.5,10.5,21.095023109728988,21.02379604162864,20.5,52.0,46.0,52.08646657242167,{}
422,320,7.0,19.026297590440446,3.0,4.123105625617661,5.0,6.0,7.071067811865476,21.095023109728988,17.029386365926403,13.5,18.0,17.0,10.5,3.5,0.5,7.5,2.0,2.0,2.0,6.0,9.0,7.071067811865476,{}
423,321,38.01315561749642,134.00373129133382,11.04536101718726,22.02271554554524,33.015148038438355,37.0,36.12478373637688,107.16809226630843,85.14693182963201,66.0,56.0,57.0,20.5,50.5,26.5,10.5,20.09975124224178,20.024984394500787,20.0,48.0,43.0,50.039984012787215,{}
424,321,4.0,27.073972741361768,2.0,3.0,8.06225774829855,8.246211251235321,2.23606797749979,11.04536101718726,8.06225774829855,6.0,2.0,4.0,1.0,8.0,4.0,1.0,2.23606797749979,2.0,2.0,9.0,6.0,9.219544457292889,{}
425,322,30.01666203960727,105.01904589168576,11.04536101718726,18.027756377319943,26.019223662515376,28.0178514522438,25.019992006393608,84.09518416651456,66.06814663663572,51.0,44.0,46.0,20.0,39.0,19.0,9.0,16.1245154965971,15.033296378372908,15.5,43.0,36.0,41.10960958218893,{}
426,323,29.068883707497267,105.07616285342742,10.04987562112089,18.027756377319943,26.019223662515376,29.017236257093817,28.0713376952364,85.21150157109074,67.1863081289633,52.5,46.0,50.0,20.0,37.0,18.0,11.0,15.033296378372908,15.033296378372908,15.5,44.0,35.0,42.190046219457976,{}
427,324,29.068883707497267,103.07764064044152,10.04987562112089,18.027756377319943,26.0768096208106,28.0178514522438,27.073972741361768,84.2140130857092,66.18912297349165,51.5,44.0,48.0,19.0,38.0,19.0,9.0,16.1245154965971,16.0312195418814,16.0,47.0,37.0,45.09988913511872,{}
428,325,27.018512172212592,104.12012293500234,11.180339887498947,17.029386365926403,26.0768096208106,29.068883707497267,27.018512172212592,82.15229759416349,65.12296062065974,51.5,44.0,49.0,19.5,35.5,17.5,8.5,16.1245154965971,16.0,16.0,51.0,40.0,48.16637831516918,{}
429,326,28.0178514522438,106.1178590059185,9.219544457292889,16.0312195418814,26.0768096208106,29.068883707497267,28.16025568065745,81.30190649671138,65.27633568147036,51.0,43.0,48.0,17.5,35.5,17.5,8.5,16.1245154965971,15.0,15.5,44.0,33.0,41.19465984809196,{}
430,327,28.0178514522438,106.16967551989596,10.04987562112089,17.11724276862369,27.073972741361768,30.01666203960727,28.16025568065745,83.2946576918352,66.18912297349165,52.0,43.0,49.0,18.0,37.0,18.0,8.0,16.278820596099706,16.0,16.5,45.0,33.0,42.2965719651132,{}
431,328,32.0624390837628,107.16809226630843,11.04536101718726,18.027756377319943,27.073972741361768,31.064449134018133,26.1725046566048,87.28115489611719,69.26037828369117,53.0,43.0,49.0,20.0,41.0,21.0,9.0,16.1245154965971,16.0,16.0,48.0,36.0,43.28972164382672,{}
432,329,34.058772731852805,107.22872749408155,10.198039027185567,17.029386365926403,28.0713376952364,31.064449134018133,26.1725046566048,87.36704184073076,70.34912934784623,53.0,43.0,50.0,20.5,40.5,21.5,10.5,16.1245154965971,15.0,15.0,45.0,33.0,40.311288741492746,{}
433,330,36.05551275463989,107.22872749408155,10.04987562112089,18.110770276274835,28.0713376952364,32.0624390837628,26.1725046566048,90.35485598461214,72.24956747275377,54.0,43.0,50.0,20.5,43.5,23.5,10.5,16.278820596099706,16.0,16.0,43.0,32.0,38.3275357934736,{}
434,331,39.05124837953327,107.16809226630843,10.04987562112089,19.026297590440446,29.068883707497267,32.01562118716424,25.317977802344327,93.34345183246651,74.33034373659252,54.5,44.0,50.0,22.0,46.0,25.0,12.0,16.278820596099706,17.0,17.0,47.0,33.0,40.44749683231337,{}
435,332,33.06055050963308,102.1763181955584,11.04536101718726,19.026297590440446,27.073972741361768,30.01666203960727,25.179356624028344,88.2779700718135,69.26037828369117,52.5,44.0,50.0,22.0,41.0,20.0,11.0,16.278820596099706,16.0,16.5,54.0,40.0,49.16299421312742,{}
436,333,20.09975124224178,99.18165152889924,11.04536101718726,17.11724276862369,25.179356624028344,28.0178514522438,25.317977802344327,73.55270219373317,56.43580423808985,46.0,41.0,47.0,19.0,29.0,10.0,8.0,16.278820596099706,16.0,16.0,54.0,42.0,48.16637831516918,{}
437,334,11.04536101718726,97.12878049270464,12.16552506059644,18.110770276274835,24.08318915758459,26.019223662515376,24.186773244895647,65.49045732013177,47.38143096192854,41.5,39.0,44.0,17.5,23.5,4.5,6.5,17.26267650163207,16.0312195418814,16.0,55.0,40.0,46.389654018972806,{}
438,335,7.280109889280518,98.18350166906862,10.04987562112089,18.110770276274835,24.186773244895647,26.019223662515376,27.16615541441225,62.51399843235114,44.40720662234904,40.5,38.0,44.0,14.0,21.0,1.0,4.0,16.278820596099706,15.033296378372908,15.5,48.0,35.0,39.45883931389772,{}
439,336,9.055385138137416,97.25224933131366,11.04536101718726,17.11724276862369,24.08318915758459,26.019223662515376,25.317977802344327,62.51399843235114,45.39823785126467,40.5,36.0,43.0,14.5,22.5,3.5,4.5,17.11724276862369,17.029386365926403,17.0,44.0,31.0,39.20459156782532,{}
440,337,10.04987562112089,96.1873172512884,9.055385138137416,16.1245154965971,24.08318915758459,26.019223662515376,27.29468812791236,62.51399843235114,46.389654018972806,41.0,37.0,43.0,13.0,22.0,4.0,4.0,16.1245154965971,17.0,16.5,46.0,32.0,44.28317965096906,{}
441,338,7.071067811865476,97.18538984847466,11.04536101718726,17.11724276862369,24.08318915758459,26.0768096208106,27.29468812791236,62.51399843235114,45.39823785126467,41.5,38.0,44.0,14.0,21.0,2.0,3.0,16.1245154965971,16.0,16.0,51.0,35.0,43.41658669218482,{}
442,339,6.082762530298219,94.19129471453292,13.038404810405298,20.09975124224178,23.08679276123039,25.019992006393608,26.1725046566048,65.37583651472461,45.27692569068709,42.0,40.0,46.0,17.0,22.0,1.0,4.0,17.26267650163207,17.029386365926403,17.0,52.0,36.0,49.25444142409901,{}
443,340,7.280109889280518,95.1892851112981,12.041594578792296,18.027756377319943,24.08318915758459,26.0768096208106,27.29468812791236,64.4980619863884,46.52956049652737,42.5,39.0,45.0,15.0,22.0,3.0,3.0,17.11724276862369,17.029386365926403,17.0,49.0,35.0,43.41658669218482,{}
444,341,12.041594578792296,94.26027795418386,13.038404810405298,20.09975124224178,23.021728866442675,26.019223662515376,24.33105012119288,69.46221994724903,49.36598018878993,43.0,39.0,46.0,18.5,26.5,5.5,6.5,17.26267650163207,16.0312195418814,16.0,48.0,34.0,44.40720662234904,{}
445,342,19.026297590440446,96.25487000666512,11.04536101718726,18.110770276274835,24.08318915758459,27.018512172212592,25.495097567963924,73.55270219373317,55.44366510251645,45.5,40.0,47.0,18.5,29.5,9.5,7.5,17.26267650163207,18.027756377319943,17.5,48.0,34.0,44.28317965096906,{}
446,343,21.02379604162864,95.25754563287887,11.180339887498947,19.235384061671343,24.08318915758459,26.019223662515376,25.495097567963924,76.79192665899195,57.55866572463264,46.5,42.0,49.0,20.5,30.5,10.5,9.5,17.26267650163207,17.0,17.0,48.0,34.0,44.181444068749045,{}
447,344,26.0768096208106,93.53608929178084,11.04536101718726,19.235384061671343,24.186773244895647,27.073972741361768,24.515301344262525,80.75270893288967,61.5223536610881,48.0,41.0,51.0,22.0,34.0,13.0,10.0,17.26267650163207,17.0,17.0,50.0,36.0,43.28972164382672,{}
448,345,23.08679276123039,90.448880590088,10.198039027185567,19.1049731745428,23.08679276123039,25.019992006393608,26.68332812825267,78.91767862779544,59.84145720150872,47.5,42.0,51.0,20.5,31.5,10.5,9.5,17.26267650163207,17.029386365926403,17.5,49.0,36.0,43.28972164382672,{}
449,346,14.0356688476182,90.35485598461214,12.041594578792296,20.223748416156685,21.095023109728988,24.020824298928627,27.459060435491963,73.68174807915459,53.46026561849464,46.0,42.0,50.0,19.0,27.0,6.0,7.0,17.26267650163207,18.027756377319943,17.5,51.0,37.0,43.28972164382672,{}
450,347,10.04987562112089,87.36704184073076,13.152946437965904,21.02379604162864,20.09975124224178,24.08318915758459,24.515301344262525,68.59300255857006,47.67598976424087,42.0,40.0,48.0,20.0,24.0,2.0,7.0,18.24828759089466,17.029386365926403,17.5,50.0,36.0,44.28317965096906,{}
451,348,14.0356688476182,85.21150157109074,12.041594578792296,20.09975124224178,21.095023109728988,24.08318915758459,21.587033144922906,67.60177512462228,47.51841748206689,40.0,39.0,45.0,21.0,25.0,4.0,9.0,17.26267650163207,18.0,18.0,48.0,37.0,44.181444068749045,{}
452,349,19.026297590440446,86.28441342444185,12.041594578792296,20.09975124224178,22.09072203437452,24.020824298928627,21.587033144922906,72.56031973468694,52.46903848937962,42.5,41.0,48.0,23.5,27.5,5.5,10.5,17.11724276862369,18.0,18.0,49.0,38.0,45.17742799230607,{}
453,350,19.026297590440446,84.1486779456457,12.0,21.095023109728988,21.095023109728988,24.08318915758459,21.587033144922906,73.43704787094863,52.3450093132096,42.5,42.0,47.0,23.5,28.5,6.5,10.5,18.110770276274835,18.0,18.5,50.0,41.0,44.10215414239989,{}
454,351,10.0,84.0535543567314,14.0356688476182,23.08679276123039,20.024984394500787,23.021728866442675,24.515301344262525,71.449282711585,48.373546489791295,43.0,43.0,46.0,20.5,26.5,2.5,6.5,18.110770276274835,17.0,17.5,43.0,37.0,37.05401462729781,{}
455,352,10.0,86.02325267042627,12.041594578792296,20.024984394500787,20.0,23.021728866442675,26.1725046566048,68.18357573492314,48.16637831516918,43.0,43.0,45.0,18.0,24.0,3.0,7.0,18.110770276274835,17.0,17.5,40.0,36.0,37.01351104664349,{}
456,353,10.0,87.0,11.04536101718726,18.027756377319943,20.0,23.0,27.073972741361768,66.12110101926616,48.0936586256442,43.0,44.0,44.0,17.0,22.0,3.0,7.0,17.029386365926403,18.0,18.0,39.0,36.0,37.01351104664349,{}
457,354,10.0,86.02325267042627,12.041594578792296,19.0,20.0,22.0,26.0768096208106,67.06713054842886,48.0936586256442,43.0,46.0,44.0,19.0,22.0,3.0,8.0,17.029386365926403,17.0,17.5,40.0,39.0,37.01351104664349,{}
458,355,11.0,88.09086218218096,12.0,20.024984394500787,21.02379604162864,23.021728866442675,26.0768096208106,69.00724599634447,49.04079934095692,43.5,47.0,43.0,19.0,24.0,4.0,8.0,17.0,17.029386365926403,17.0,39.0,42.0,41.0,{}
459,356,13.038404810405298,88.20430828479978,11.0,19.026297590440446,20.024984394500787,23.021728866442675,28.0178514522438,71.00704190430693,52.0,45.5,49.0,43.0,18.0,25.0,6.0,8.0,18.027756377319943,18.110770276274835,18.5,37.0,41.0,38.0,{}
460,357,13.0,88.2779700718135,12.0,19.026297590440446,20.024984394500787,24.08318915758459,28.0,72.00694410957877,53.0,46.5,50.0,43.0,18.5,25.5,6.5,7.5,17.0,18.027756377319943,18.5,38.0,43.0,41.01219330881976,{}
461,358,16.0,87.28115489611719,12.041594578792296,20.0,20.024984394500787,23.08679276123039,27.0,75.0066663703967,55.00909015790027,47.0,50.0,43.0,19.5,28.5,8.5,8.5,17.0,17.11724276862369,17.0,34.0,42.0,35.0142828000232,{}
462,359,20.024984394500787,85.21150157109074,13.0,21.0,21.02379604162864,25.019992006393608,27.0,81.00617260431454,60.00833275470999,50.0,52.0,46.0,22.0,32.0,11.0,10.0,17.029386365926403,17.11724276862369,17.5,34.0,42.0,32.14031735997639,{}
463,360,22.02271554554524,84.1486779456457,12.0,21.0,21.02379604162864,25.079872407968907,27.018512172212592,82.02438661763951,61.032778078668514,50.0,52.0,47.0,22.5,32.5,11.5,11.5,17.0,17.11724276862369,17.0,35.0,44.0,34.132096331752024,{}
464,361,20.0,88.2779700718135,13.038404810405298,21.02379604162864,22.09072203437452,25.079872407968907,26.0,80.02499609497022,59.00847396772772,49.0,52.0,45.0,22.5,31.5,10.5,11.5,18.0,18.24828759089466,18.5,36.0,46.0,37.05401462729781,{}
465,362,18.027756377319943,90.35485598461214,12.0,21.02379604162864,23.08679276123039,25.079872407968907,25.0,76.02631123499285,55.00909015790027,46.0,50.0,42.0,21.0,30.0,9.0,10.0,17.0,17.11724276862369,17.0,34.0,44.0,36.05551275463989,{}
466,363,19.0,88.20430828479978,12.041594578792296,20.024984394500787,22.02271554554524,25.079872407968907,24.0,75.02666192761077,55.00909015790027,45.5,48.0,42.0,21.0,30.0,10.0,10.0,18.027756377319943,18.110770276274835,18.0,33.0,45.0,32.14031735997639,{}
467,364,20.024984394500787,91.35097153287424,12.0,20.024984394500787,22.09072203437452,25.079872407968907,26.019223662515376,78.05767098754612,58.034472514187634,48.0,51.0,43.0,21.0,31.0,11.0,11.0,17.0,18.110770276274835,18.0,36.0,46.0,35.12833614050059,{}
468,365,28.0178514522438,92.26592003551474,11.0,21.02379604162864,23.021728866442675,26.0768096208106,24.020824298928627,84.0535543567314,63.0317380372777,49.0,50.0,43.0,22.5,37.5,16.5,12.5,17.029386365926403,17.11724276862369,17.5,34.0,44.0,39.05124837953327,{}
469,366,29.017236257093817,95.1892851112981,10.0,20.024984394500787,24.020824298928627,28.0713376952364,24.020824298928627,83.05419917138447,63.0317380372777,48.5,49.0,43.0,22.0,37.0,17.0,13.0,17.029386365926403,17.11724276862369,17.0,36.0,45.0,39.05124837953327,{}
470,367,29.017236257093817,94.19129471453292,10.0,19.0,23.021728866442675,27.073972741361768,24.020824298928627,82.02438661763951,63.0317380372777,48.5,49.0,43.0,22.0,36.0,17.0,13.0,17.0,18.110770276274835,18.0,34.0,42.0,33.06055050963308,{}
471,368,30.01666203960727,93.1933474020544,10.0,19.026297590440446,23.021728866442675,26.0768096208106,22.02271554554524,81.05553651663777,62.03224967708329,47.0,48.0,42.0,23.0,36.0,16.0,14.0,18.027756377319943,18.110770276274835,18.0,36.0,43.0,34.0,{}
472,369,30.0,94.13288479590966,9.0,19.026297590440446,24.0,26.019223662515376,22.02271554554524,80.02499609497022,61.00819617067857,46.0,47.0,42.0,22.5,35.5,15.5,13.5,17.029386365926403,17.11724276862369,17.5,36.0,41.0,34.0,{}
473,370,29.017236257093817,90.0222194794152,10.0,20.0,22.0,25.079872407968907,20.0,79.00632886041473,59.00847396772772,44.5,44.0,42.0,23.0,36.0,16.0,13.0,18.027756377319943,18.110770276274835,18.5,35.0,38.0,35.0,{}
474,371,31.0,92.00543462209176,10.0,21.02379604162864,23.021728866442675,26.0,20.0,82.00609733428362,61.0,45.5,44.0,43.0,23.5,38.5,16.5,13.5,18.027756377319943,18.027756377319943,18.5,39.0,41.0,37.01351104664349,{}
475,372,32.0,93.0,10.0,21.0,23.021728866442675,27.018512172212592,20.024984394500787,83.00602387778854,62.00806399170998,46.0,43.0,43.0,23.0,40.0,18.0,13.0,17.11724276862369,18.027756377319943,18.0,44.0,43.0,41.04875150354759,{}
476,373,34.0,93.00537618869136,9.055385138137416,21.02379604162864,25.019992006393608,28.0,21.02379604162864,85.05292469985967,64.03124237432849,47.0,43.0,44.0,22.5,41.5,19.5,13.5,17.11724276862369,17.029386365926403,17.0,38.0,37.0,35.0142828000232,{}
477,374,33.015148038438355,91.0494371207203,10.0,21.095023109728988,24.020824298928627,27.0,21.095023109728988,85.14693182963201,64.07027391856539,47.5,42.0,45.0,22.5,41.5,18.5,12.5,17.11724276862369,17.029386365926403,17.5,41.0,37.0,37.12142238654117,{}
478,375,24.020824298928627,86.00581375697809,11.04536101718726,21.02379604162864,23.021728866442675,25.0,24.186773244895647,80.22468448052632,59.21148537234985,47.0,45.0,46.0,21.5,34.5,12.5,10.5,17.11724276862369,17.029386365926403,17.5,41.0,38.0,39.01281840626232,{}
479,376,16.0312195418814,84.0535543567314,12.041594578792296,21.02379604162864,21.02379604162864,24.0,26.1725046566048,75.23961722390672,54.230987451824994,46.0,43.0,46.0,18.5,30.5,8.5,6.5,17.11724276862369,17.0,17.5,45.0,39.0,40.049968789001575,{}
480,377,14.0356688476182,81.09870529176159,11.04536101718726,22.02271554554524,21.02379604162864,24.020824298928627,26.30589287593181,73.33484846919642,51.35172830587107,44.0,42.0,46.0,18.0,29.0,6.0,7.0,17.26267650163207,17.029386365926403,17.5,41.0,37.0,36.013886210738214,{}
481,378,10.04987562112089,78.10249675906654,16.0312195418814,23.021728866442675,18.027756377319943,21.0,24.33105012119288,73.33484846919642,50.35871324805669,45.0,43.0,47.0,21.0,28.0,4.0,5.0,16.1245154965971,16.0,16.5,54.0,50.0,48.0,{}
482,379,11.04536101718726,76.05918747922567,14.0,24.020824298928627,20.024984394500787,22.02271554554524,25.317977802344327,74.24284477308234,50.24937810560445,44.5,44.0,47.0,20.5,28.5,3.5,5.5,16.1245154965971,16.0,16.5,52.0,50.0,50.039984012787215,{}
483,380,12.0,76.05918747922567,15.033296378372908,24.020824298928627,19.0,22.02271554554524,24.33105012119288,75.23961722390672,51.24451190127583,45.0,45.0,48.0,22.5,28.5,3.5,7.5,17.11724276862369,17.0,17.5,53.0,48.0,47.01063709417264,{}
484,381,10.0,77.05841939723393,15.0,24.08318915758459,19.026297590440446,22.02271554554524,25.495097567963924,74.33034373659252,50.24937810560445,45.0,43.0,46.0,19.5,29.5,3.5,4.5,17.11724276862369,17.0,17.5,53.0,52.0,50.08991914547278,{}
485,382,6.082762530298219,78.02563681252464,13.0,23.021728866442675,20.024984394500787,23.0,28.16025568065745,70.178344238091,47.16990566028302,44.0,42.0,44.0,15.0,27.0,2.0,2.0,17.11724276862369,17.029386365926403,17.5,54.0,50.0,46.01086828130936,{}
486,383,4.0,82.09750300709517,14.0356688476182,23.08679276123039,21.02379604162864,23.021728866442675,27.16615541441225,68.26419266350405,45.17742799230607,43.0,40.0,44.0,15.0,26.0,1.0,1.0,16.278820596099706,16.0312195418814,16.5,53.0,51.0,50.039984012787215,{}
487,384,5.0,84.09518416651456,13.038404810405298,24.08318915758459,21.02379604162864,24.020824298928627,27.073972741361768,69.18092222571191,45.09988913511872,42.5,39.0,43.0,14.0,28.0,2.0,1.0,17.11724276862369,17.029386365926403,17.5,53.0,50.0,50.00999900019995,{}
488,385,7.071067811865476,85.14693182963201,14.0356688476182,24.020824298928627,22.02271554554524,24.08318915758459,25.179356624028344,70.25667228100119,46.2709412050371,42.5,37.0,42.0,14.5,30.5,5.5,0.5,17.11724276862369,17.0,17.5,54.0,51.0,50.0,{}
