,frame_seq,m1,m3,m4,m5,m6,m7,m8,m9,m10,m11,m12,m13,m14,m15,m16,m17,e1,e2,e3,b1,b2,b3
0,0,1.0,30.0,4.0,5.0,9.0,10.0,6.0,16.0,11.0,10.5,11.0,11.0,5.0,5.0,1.0,1.0,5.0990195135927845,5.0,5.5,13.0,13.0,15.0
1,1,0.0,29.0,5.0,6.082762530298219,9.055385138137417,9.0,5.0,16.0312195418814,10.0,10.0,11.0,11.0,6.0,5.0,1.0,1.0,6.0,6.082762530298219,6.0,13.0,15.0,14.035668847618199
2,2,0.0,30.0,5.0,6.0,9.0,10.0,5.0,16.0,10.0,10.0,11.0,11.0,6.0,5.0,1.0,2.0,6.082762530298219,6.082762530298219,6.0,12.0,14.0,14.0
3,3,0.0,30.0,5.0,6.0,9.0,10.0,5.0,16.0,10.0,10.0,11.0,11.0,6.0,5.0,2.0,2.0,6.082762530298219,6.082762530298219,6.0,13.0,14.0,15.0
4,4,0.0,30.0,5.0,6.082762530298219,9.0,9.055385138137417,5.0990195135927845,16.0,10.04987562112089,10.0,11.0,11.0,6.0,5.0,1.0,2.0,6.0,6.0,5.5,13.0,14.0,14.0
5,5,0.0,30.01666203960727,5.0,6.0,9.055385138137417,10.0,5.0,16.0,10.0,10.0,11.0,10.0,5.5,5.5,0.5,0.5,6.082762530298219,6.0,6.0,13.0,14.0,13.0
6,6,0.0,30.0,4.0,6.0,9.0,9.0,6.0,16.0,10.0,10.0,11.0,11.0,5.0,5.0,1.0,1.0,6.0,5.0,5.5,13.0,13.0,14.035668847618199
7,7,0.0,30.0,5.0,6.0,10.04987562112089,10.0,5.0,16.0,10.0,10.0,11.0,11.0,6.0,5.0,1.0,1.0,5.0,4.123105625617661,4.5,13.0,14.0,14.0
8,8,0.0,30.01666203960727,5.0,6.0,9.055385138137417,10.0,5.0,16.0,10.0,10.0,11.0,10.0,5.5,5.5,0.5,0.5,3.0,2.0,2.0,14.0,15.0,14.0
9,9,0.0,29.0,5.0,6.0,9.0,10.0,5.0,16.0,10.0,10.0,10.0,10.0,5.0,6.0,0.0,0.0,2.0,3.0,3.0,14.0,15.0,14.0
10,10,0.0,30.01666203960727,5.0,6.0,10.0,10.0,5.0,16.0,10.0,10.0,11.0,10.0,5.5,5.5,0.5,1.5,3.0,2.0,2.0,14.0,15.0,15.0
11,11,1.4142135623730951,30.0,4.0,6.082762530298219,9.0,11.0,6.0,17.0,11.045361017187261,10.5,11.0,11.0,5.0,6.0,1.0,1.0,3.0,3.0,3.0,13.0,15.0,15.0
12,12,1.0,29.0,4.0,5.0,10.0,10.0,6.0,16.0,11.0,10.5,11.0,11.0,5.0,5.0,1.0,1.0,3.0,3.0,3.0,13.0,15.0,15.033296378372908
13,13,1.0,30.01666203960727,4.0,5.0,9.0,10.0,6.0,16.0,11.0,10.5,11.0,10.0,4.5,5.5,0.5,0.5,4.123105625617661,4.0,4.0,13.0,14.0,15.0
14,14,0.0,29.0,5.0,6.0,9.0,9.0,5.0,16.0,10.0,10.0,10.0,10.0,5.0,6.0,0.0,1.0,4.123105625617661,4.0,4.5,13.0,14.0,15.0
15,15,1.0,31.0,4.0,6.0,10.0,10.0,5.0,16.0,10.0,9.5,10.0,10.0,5.0,6.0,0.0,1.0,5.0,5.0,5.0,13.0,15.0,15.0
16,16,1.0,30.01666203960727,4.0,5.0,10.0,10.0,6.0,16.0,11.0,10.5,11.0,10.0,4.5,5.5,0.5,0.5,5.0,5.0990195135927845,5.0,12.0,14.0,16.0
17,17,0.0,30.01666203960727,5.0,6.0,9.0,10.0,5.0,16.0,10.0,10.0,11.0,10.0,5.5,5.5,0.5,1.5,5.0,5.0,5.0,13.0,15.0,15.033296378372908
18,18,0.0,30.01666203960727,5.0,6.0,10.04987562112089,10.0,5.0,16.0,10.0,10.0,11.0,10.0,5.5,5.5,0.5,0.5,5.0,5.0990195135927845,5.0,13.0,15.0,15.033296378372908
19,19,1.0,30.01666203960727,5.0,5.0,10.0,10.0,5.0,16.0,11.0,10.5,11.0,10.0,5.5,5.5,0.5,1.5,5.0,5.0,5.0,13.0,15.0,15.033296378372908
20,20,0.0,30.01666203960727,5.0,6.082762530298219,9.0,9.0,5.0,16.0312195418814,10.0,10.0,11.0,10.0,5.5,5.5,0.5,0.5,5.0990195135927845,5.0,5.0,13.0,14.0,15.0
21,21,0.0,30.01666203960727,5.0,6.0,9.055385138137417,10.0,5.0,16.0,10.0,10.0,11.0,10.0,5.5,5.5,0.5,0.5,5.0990195135927845,5.0,5.0,13.0,14.0,15.033296378372908
22,22,0.0,29.017236257093817,5.0,6.0,9.0,9.0,5.0,16.0,10.0,10.0,11.0,10.0,5.5,5.5,0.5,1.5,6.082762530298219,5.0,5.0,13.0,14.0,15.0
23,23,0.0,30.01666203960727,5.0,6.0,9.0,10.0,5.0,16.0,10.0,10.0,11.0,10.0,5.5,5.5,0.5,1.5,6.082762530298219,5.0990195135927845,5.0,13.0,14.0,14.0
24,24,0.0,30.01666203960727,4.0,6.0,10.0,10.0,6.0,16.0,10.0,10.0,11.0,10.0,4.5,5.5,0.5,1.5,6.082762530298219,6.082762530298219,6.0,13.0,14.0,15.0
25,25,0.0,31.016124838541646,5.0,6.0,9.0,9.0,5.0,16.0,10.0,10.0,11.0,10.0,5.5,5.5,0.5,1.5,6.082762530298219,5.0,5.5,13.0,14.0,15.0
26,26,0.0,30.01666203960727,5.0,6.0,9.0,9.0,5.0,16.0,10.0,10.0,11.0,10.0,5.5,5.5,0.5,1.5,6.082762530298219,5.0,5.5,13.0,14.0,15.0
27,27,0.0,30.01666203960727,5.0,5.0,9.0,9.0,5.0,15.0,10.0,10.0,11.0,10.0,5.5,4.5,0.5,1.5,6.0,5.0990195135927845,5.5,14.0,15.0,15.0
28,28,0.0,30.0,5.0,6.0,9.0,9.0,5.0,16.0,10.0,10.0,10.0,10.0,5.0,6.0,0.0,1.0,6.0,5.0,5.5,13.0,15.0,15.0
29,29,0.0,30.01666203960727,5.0,6.0,9.0,9.0,5.0,16.0,10.0,10.0,11.0,10.0,5.5,5.5,0.5,1.5,6.0,5.0,5.5,13.0,15.0,15.0
30,30,0.0,29.017236257093817,5.0,6.0,9.0,9.0,5.0,16.0,10.0,10.0,11.0,10.0,5.5,5.5,0.5,1.5,6.0,5.0,5.5,13.0,14.0,15.0
31,31,1.0,30.01666203960727,5.0,6.0,9.0,9.0,5.0990195135927845,16.0,10.0,10.0,11.0,10.0,5.5,5.5,0.5,1.5,6.0,6.082762530298219,6.0,13.0,14.0,15.0
32,32,1.0,30.01666203960727,5.0990195135927845,5.0,9.0,9.0,5.0,15.0,10.0,10.0,11.0,10.0,5.5,4.5,1.5,1.5,6.0,6.082762530298219,6.0,13.0,14.0,14.0
33,33,0.0,30.01666203960727,4.0,6.0,9.0,10.0,6.0,16.0,10.0,10.0,11.0,10.0,4.5,5.5,0.5,1.5,6.0,6.082762530298219,6.0,13.0,14.0,15.0
34,34,1.0,31.016124838541646,5.0,5.0,9.0,9.055385138137417,5.0,16.0,11.0,10.5,11.0,10.0,5.5,5.5,0.5,0.5,6.082762530298219,6.0,5.5,13.0,14.0,14.0
35,35,1.0,31.016124838541646,4.0,5.0,9.0,10.0,6.0,16.0,11.0,10.5,11.0,10.0,4.5,5.5,0.5,0.5,6.082762530298219,6.0,6.0,13.0,14.0,15.033296378372908
36,36,1.0,30.01666203960727,4.0,5.0,9.0,10.04987562112089,6.0,16.0,11.0,10.5,11.0,10.0,4.5,5.5,0.5,0.5,6.0,6.0,6.0,13.0,14.0,13.038404810405298
37,37,1.0,31.016124838541646,4.0,5.0,9.0,10.0,6.0,16.0,11.0,10.5,11.0,10.0,4.5,5.5,0.5,0.5,6.0,6.082762530298219,6.0,13.0,14.0,15.0
38,38,1.0,30.01666203960727,4.0,5.0,10.0,10.0,6.0,16.0,11.0,10.5,11.0,10.0,4.5,5.5,0.5,0.5,6.0,6.082762530298219,6.0,13.0,14.0,14.0
39,39,1.0,30.01666203960727,4.0,5.0,10.0,10.0,6.0,16.0,11.0,10.5,11.0,10.0,4.5,5.5,0.5,0.5,5.0990195135927845,6.082762530298219,6.0,13.0,15.0,14.0
40,40,1.0,30.0,4.0,6.0,9.0,10.0,6.0,17.0,11.0,10.5,11.0,11.0,5.0,6.0,0.0,1.0,6.082762530298219,6.082762530298219,5.5,13.0,14.0,14.0
41,41,2.23606797749979,31.016124838541646,4.0,6.082762530298219,9.0,10.0,6.082762530298219,18.027756377319946,12.0,11.0,12.0,11.0,5.5,6.5,0.5,1.5,6.0,5.0,5.5,14.0,14.0,15.0
42,42,5.0990195135927845,30.01666203960727,3.0,5.0990195135927845,9.0,10.0,6.082762530298219,19.026297590440446,14.0,11.5,12.0,11.0,5.5,7.5,1.5,2.5,6.0,6.0,6.0,13.0,14.0,15.0
43,43,4.123105625617661,30.01666203960727,4.0,5.0,9.0,10.0,7.0710678118654755,20.0,15.0,13.0,13.0,12.0,5.5,7.5,1.5,2.5,5.0,5.0,5.0,13.0,14.0,14.0
44,44,6.0,31.0,5.0,6.0,9.0,10.0,5.0,22.0,16.0,13.0,14.0,14.0,9.0,8.0,1.0,4.0,5.0990195135927845,5.0,5.5,13.0,14.0,14.0
45,45,6.082762530298219,30.0,4.0,7.0,9.055385138137417,10.0,6.0,23.021728866442675,16.0312195418814,13.0,15.0,15.0,9.0,8.0,1.0,4.0,6.0,6.0,6.0,13.0,14.0,15.0
46,46,6.0,30.0,5.0,6.0,9.055385138137417,10.04987562112089,7.0,24.0,18.0,15.0,17.0,17.0,10.0,7.0,0.0,5.0,5.0,5.0990195135927845,5.0,14.0,14.0,15.0
47,47,8.06225774829855,30.0,5.0,6.0,9.0,9.0,6.082762530298219,25.0,19.0,15.0,18.0,18.0,12.0,7.0,0.0,7.0,5.0,5.0,5.0,14.0,14.0,14.0
48,48,9.055385138137417,31.0,4.123105625617661,5.0,9.0,9.0,7.0,25.0,20.0,15.5,19.0,19.0,12.0,6.0,0.0,8.0,5.0,4.0,4.0,12.0,13.0,15.0
49,49,9.0,31.016124838541646,5.0,6.0,9.0,10.0,6.0,26.0,20.0,15.5,20.0,19.0,13.5,6.5,0.5,8.5,5.0,5.0,4.5,13.0,14.0,15.0
50,50,10.0,32.0624390837628,5.0,5.0990195135927845,9.0,10.0,5.0,25.019992006393608,20.0,15.0,20.0,18.0,14.0,6.0,1.0,9.0,4.0,4.123105625617661,4.5,12.0,14.0,17.11724276862369
51,51,10.0,32.0624390837628,5.0,5.0990195135927845,9.055385138137417,9.055385138137417,6.0,26.019223662515376,21.0,16.0,21.0,19.0,14.0,6.0,1.0,9.0,4.0,4.0,4.5,11.0,15.0,16.0312195418814
52,52,10.0,32.14031735997639,5.0,5.0990195135927845,8.06225774829855,10.0,5.0990195135927845,25.079872407968907,20.024984394500787,15.0,21.0,18.0,14.5,5.5,0.5,9.5,4.123105625617661,4.0,4.0,11.0,16.0,17.029386365926403
53,53,10.0,32.14031735997639,5.0,6.082762530298219,9.055385138137417,10.04987562112089,6.082762530298219,27.073972741361768,21.02379604162864,16.0,22.0,19.0,14.5,6.5,1.5,9.5,4.0,4.123105625617661,4.5,9.0,15.0,16.1245154965971
54,54,10.0,33.24154027718932,6.082762530298219,5.0990195135927845,8.06225774829855,10.04987562112089,5.0990195135927845,26.1725046566048,21.095023109728988,16.0,22.0,18.0,15.0,6.0,2.0,10.0,4.123105625617661,4.0,4.5,9.0,16.0,16.1245154965971
55,55,11.045361017187261,32.38826948140329,5.0,5.0,9.219544457292887,10.198039027185569,6.082762530298219,27.073972741361768,22.090722034374522,16.5,23.0,18.0,14.5,6.5,1.5,10.5,4.123105625617661,3.1622776601683795,3.0,9.0,16.0,16.278820596099706
56,56,12.041594578792296,32.55764119219941,4.0,5.0990195135927845,10.198039027185569,11.180339887498949,6.324555320336759,27.294688127912362,22.20360331117452,16.0,23.0,17.0,14.0,7.0,3.0,11.0,3.1622776601683795,2.23606797749979,2.5,8.0,16.0,13.341664064126334
57,57,11.0,33.54101966249684,5.0990195135927845,5.0990195135927845,10.198039027185569,11.180339887498949,6.082762530298219,27.16615541441225,22.090722034374522,16.5,23.0,17.0,14.0,7.0,3.0,10.0,2.23606797749979,2.0,2.5,9.0,17.0,13.341664064126334
58,58,11.045361017187261,34.713109915419565,4.0,5.0990195135927845,9.055385138137417,10.198039027185569,6.324555320336759,26.30589287593181,21.213203435596427,15.5,22.0,15.0,12.5,7.5,3.5,8.5,3.1622776601683795,3.0,3.0,9.0,17.0,13.341664064126334
59,59,10.04987562112089,33.54101966249684,4.0,5.0990195135927845,9.219544457292887,10.198039027185569,6.082762530298219,25.179356624028344,20.09975124224178,15.0,20.0,14.0,11.0,8.0,4.0,8.0,2.23606797749979,2.23606797749979,2.5,9.0,17.0,14.317821063276353
60,60,9.0,34.713109915419565,4.123105625617661,6.082762530298219,9.055385138137417,10.198039027185569,6.324555320336759,25.317977802344327,19.235384061671343,14.5,20.0,13.0,10.5,8.5,3.5,6.5,3.1622776601683795,3.1622776601683795,2.5,9.0,17.0,15.297058540778355
61,61,7.0,33.54101966249684,4.123105625617661,6.082762530298219,9.219544457292887,10.04987562112089,6.324555320336759,23.345235059857504,17.26267650163207,13.5,17.0,11.0,8.0,9.0,4.0,5.0,3.1622776601683795,3.0,3.0,10.0,18.0,15.132745950421556
62,62,6.0,33.54101966249684,3.1622776601683795,6.082762530298219,9.219544457292887,9.219544457292887,6.324555320336759,21.37755832643195,15.297058540778355,12.0,15.0,9.0,6.0,9.0,4.0,4.0,4.0,3.0,3.5,10.0,17.0,15.132745950421556
63,63,4.0,31.400636936215164,4.0,6.082762530298219,8.06225774829855,8.06225774829855,7.280109889280518,21.213203435596427,15.132745950421556,13.0,15.0,10.0,5.5,8.5,2.5,2.5,4.123105625617661,4.123105625617661,4.0,11.0,17.0,15.132745950421556
64,64,4.123105625617661,30.14962686336267,4.0,6.0,7.0710678118654755,8.06225774829855,6.082762530298219,20.09975124224178,14.142135623730951,12.0,13.0,10.0,5.5,8.5,2.5,1.5,5.0,4.123105625617661,4.5,11.0,17.0,14.142135623730951
65,65,2.0,29.154759474226502,5.0,7.0710678118654755,7.0710678118654755,8.06225774829855,6.082762530298219,20.09975124224178,13.038404810405298,12.0,13.0,10.0,5.5,8.5,1.5,1.5,5.0,5.0,4.5,11.0,17.0,15.132745950421556
66,66,3.0,29.068883707497267,4.123105625617661,6.0,7.0710678118654755,8.06225774829855,7.0710678118654755,20.09975124224178,14.142135623730951,12.5,13.0,11.0,5.0,8.0,2.0,1.0,5.0,5.0990195135927845,5.0,11.0,16.0,14.142135623730951
67,67,3.0,30.14962686336267,4.0,6.0,6.0,7.0,6.324555320336759,19.1049731745428,13.152946437965905,11.5,13.0,10.0,5.5,7.5,1.5,1.5,5.0,4.123105625617661,4.5,12.0,16.0,14.142135623730951
68,68,3.1622776601683795,29.068883707497267,4.0,6.0,7.0,7.0,7.0,20.024984394500787,14.035668847618199,12.5,13.0,11.0,5.0,8.0,2.0,1.0,5.0990195135927845,4.0,4.5,12.0,15.0,15.033296378372908
69,69,1.0,30.066592756745816,5.0,6.0,7.0710678118654755,8.06225774829855,6.082762530298219,18.027756377319946,12.041594578792296,11.5,12.0,10.0,5.0,7.0,1.0,1.0,5.0,4.123105625617661,4.5,12.0,14.0,15.132745950421556
70,70,1.0,31.064449134018133,5.0,6.0,8.06225774829855,8.0,6.0,18.0,12.0,11.5,12.0,10.0,5.0,7.0,0.0,1.0,5.0,4.0,4.5,12.0,13.0,15.033296378372908
71,71,0.0,30.01666203960727,4.0,6.0,7.0710678118654755,7.0,7.0,17.0,11.0,11.0,12.0,11.0,4.5,5.5,0.5,1.5,5.0,4.0,4.5,13.0,13.0,14.035668847618199
72,72,1.0,31.016124838541646,5.0,5.0,8.0,9.0,6.082762530298219,16.0,11.0,11.0,11.0,12.0,5.5,4.5,0.5,1.5,5.0,5.0990195135927845,5.0,13.0,13.0,14.0
73,73,2.0,32.01562118716424,5.0,6.082762530298219,8.0,9.055385138137417,6.0,19.026297590440446,13.0,12.0,12.0,13.0,6.5,6.5,0.5,1.5,4.123105625617661,4.0,4.0,14.0,12.0,15.0
74,74,8.0,33.06055050963308,4.123105625617661,6.0,9.055385138137417,10.0,6.0,24.020824298928627,18.027756377319946,14.0,13.0,15.0,8.0,10.0,3.0,4.0,4.0,4.123105625617661,4.5,14.0,12.0,14.0
75,75,9.055385138137417,35.12833614050059,4.0,6.0,10.04987562112089,12.041594578792296,5.0990195135927845,24.08318915758459,18.110770276274835,13.5,12.0,15.0,8.5,10.5,3.5,4.5,4.123105625617661,4.0,4.0,15.0,11.0,15.033296378372908
76,76,9.0,34.23448553724738,4.123105625617661,6.082762530298219,10.04987562112089,12.041594578792296,5.0,24.08318915758459,18.027756377319946,13.5,11.0,15.0,8.0,11.0,4.0,4.0,4.123105625617661,5.0,4.5,15.0,11.0,14.142135623730951
77,77,9.0,34.23448553724738,3.0,5.0990195135927845,10.198039027185569,11.045361017187261,6.082762530298219,23.08679276123039,18.027756377319946,13.5,11.0,15.0,7.0,10.0,4.0,3.0,4.123105625617661,4.123105625617661,4.0,16.0,11.0,15.132745950421556
78,78,7.0710678118654755,32.38826948140329,4.0,6.0,9.055385138137417,10.04987562112089,5.0990195135927845,22.090722034374522,16.1245154965971,12.5,10.0,15.0,7.5,9.5,2.5,3.5,5.0990195135927845,4.0,4.0,16.0,10.0,14.142135623730951
79,79,5.0990195135927845,32.38826948140329,4.0,7.0710678118654755,8.06225774829855,10.198039027185569,6.082762530298219,22.20360331117452,15.132745950421556,12.5,10.0,15.0,6.5,9.5,1.5,2.5,3.1622776601683795,3.0,3.0,16.0,9.0,15.132745950421556
80,80,4.123105625617661,31.400636936215164,5.0,7.0710678118654755,9.055385138137417,9.219544457292887,6.082762530298219,22.20360331117452,15.132745950421556,13.0,10.0,15.0,6.5,9.5,1.5,1.5,2.23606797749979,2.23606797749979,2.0,17.0,9.0,14.317821063276353
81,81,3.1622776601683795,30.805843601498726,4.123105625617661,6.082762530298219,8.246211251235321,8.246211251235321,6.324555320336759,19.6468827043885,13.601470508735444,11.5,8.0,15.0,5.5,7.5,0.5,0.5,1.4142135623730951,2.23606797749979,2.0,18.0,9.0,13.341664064126334
82,82,1.0,31.04834939252005,5.0990195135927845,5.0990195135927845,8.06225774829855,9.219544457292887,6.324555320336759,17.46424919657298,12.36931687685298,11.5,7.0,15.0,5.0,6.0,1.0,0.0,2.23606797749979,3.605551275463989,2.5,19.0,8.0,15.297058540778355
83,83,1.4142135623730951,30.805843601498726,4.0,6.082762530298219,8.246211251235321,9.219544457292887,6.324555320336759,17.46424919657298,11.40175425099138,10.5,7.0,14.0,4.5,6.5,0.5,0.5,2.23606797749979,3.1622776601683795,2.5,18.0,8.0,14.560219778561036
84,84,2.23606797749979,32.984845004941285,4.123105625617661,6.082762530298219,8.246211251235321,9.219544457292887,6.324555320336759,18.681541692269406,12.649110640673518,11.0,7.0,15.0,5.0,7.0,0.0,0.0,3.1622776601683795,3.1622776601683795,2.5,18.0,7.0,14.560219778561036
85,85,5.0990195135927845,32.01562118716424,4.123105625617661,5.0990195135927845,9.219544457292887,10.44030650891055,5.385164807134504,19.6468827043885,14.560219778561036,11.5,8.0,16.0,7.0,7.0,0.0,2.0,3.605551275463989,3.1622776601683795,3.0,19.0,8.0,15.524174696260024
86,86,5.0990195135927845,32.7566787083184,4.123105625617661,6.082762530298219,10.198039027185569,10.198039027185569,4.47213595499958,19.6468827043885,13.601470508735444,10.5,8.0,15.0,7.5,7.5,0.5,2.5,4.123105625617661,4.47213595499958,3.5,19.0,8.0,14.317821063276353
87,87,5.0990195135927845,32.55764119219941,4.0,6.082762530298219,9.219544457292887,11.180339887498949,4.47213595499958,19.4164878389476,13.341664064126334,10.5,9.0,15.0,8.0,7.0,0.0,3.0,4.47213595499958,4.123105625617661,4.0,17.0,7.0,14.317821063276353
88,88,6.0,32.7566787083184,3.1622776601683795,5.385164807134504,11.180339887498949,11.180339887498949,5.385164807134504,19.6468827043885,14.317821063276353,11.0,9.0,16.0,7.5,6.5,0.5,3.5,4.123105625617661,3.1622776601683795,3.5,18.0,8.0,13.341664064126334
89,89,6.082762530298219,32.7566787083184,4.123105625617661,6.082762530298219,10.198039027185569,10.198039027185569,4.123105625617661,20.396078054371138,14.317821063276353,11.0,9.0,16.0,8.5,7.5,0.5,3.5,4.123105625617661,4.123105625617661,3.5,18.0,9.0,14.317821063276353
90,90,6.082762530298219,32.55764119219941,4.123105625617661,6.082762530298219,10.198039027185569,10.198039027185569,4.123105625617661,20.396078054371138,14.317821063276353,11.0,9.0,15.0,8.0,8.0,0.0,3.0,4.123105625617661,4.123105625617661,4.0,17.0,9.0,14.317821063276353
91,91,6.0,31.400636936215164,5.0990195135927845,6.082762530298219,9.055385138137417,11.045361017187261,4.123105625617661,21.213203435596427,15.132745950421556,12.0,10.0,15.0,8.5,8.5,1.5,3.5,5.0990195135927845,4.123105625617661,4.0,17.0,9.0,15.297058540778355
92,92,6.0,31.400636936215164,4.123105625617661,6.082762530298219,10.04987562112089,11.045361017187261,4.123105625617661,20.223748416156685,14.142135623730951,11.0,9.0,14.0,7.5,8.5,1.5,3.5,4.123105625617661,4.0,4.5,17.0,10.0,15.132745950421556
93,93,5.0,30.265491900843113,5.0990195135927845,6.082762530298219,9.055385138137417,10.04987562112089,4.123105625617661,20.223748416156685,14.142135623730951,11.5,10.0,14.0,8.0,8.0,1.0,3.0,5.0990195135927845,5.0,4.5,16.0,10.0,15.132745950421556
94,94,4.123105625617661,29.274562336608895,4.0,6.0,8.06225774829855,9.055385138137417,5.0990195135927845,19.1049731745428,13.152946437965905,11.0,9.0,13.0,6.0,8.0,1.0,2.0,5.0990195135927845,5.0990195135927845,4.5,16.0,10.0,15.033296378372908
95,95,1.4142135623730951,29.274562336608895,4.0,6.0,9.055385138137417,9.055385138137417,5.0990195135927845,16.1245154965971,10.198039027185569,9.5,8.0,12.0,5.0,6.0,1.0,1.0,5.0990195135927845,4.0,4.5,16.0,10.0,14.142135623730951
96,96,0.0,28.284271247461902,5.0990195135927845,6.082762530298219,9.055385138137417,9.055385138137417,5.0,16.1245154965971,10.04987562112089,10.0,9.0,13.0,6.0,5.0,1.0,1.0,4.123105625617661,5.0,5.0,16.0,11.0,14.142135623730951
97,97,1.0,28.284271247461902,5.0990195135927845,6.082762530298219,9.055385138137417,9.055385138137417,5.0,17.11724276862369,11.045361017187261,10.5,9.0,13.0,6.0,6.0,1.0,1.0,5.0990195135927845,5.0,4.5,15.0,10.0,14.035668847618199
98,98,2.0,28.071337695236398,5.0,6.082762530298219,8.06225774829855,9.0,5.0990195135927845,18.110770276274835,12.041594578792296,11.0,10.0,12.0,6.0,7.0,0.0,0.0,5.0990195135927845,5.0990195135927845,5.0,16.0,11.0,15.033296378372908
99,99,0.0,30.14962686336267,5.0990195135927845,6.0,9.055385138137417,9.055385138137417,6.0,17.029386365926403,11.045361017187261,11.0,10.0,13.0,5.5,5.5,1.5,0.5,6.0,5.0,5.0,15.0,11.0,15.033296378372908
100,100,1.0,30.14962686336267,4.0,5.0,9.055385138137417,9.055385138137417,7.0710678118654755,17.029386365926403,12.041594578792296,11.5,10.0,13.0,4.5,5.5,0.5,0.5,5.0,5.0,5.0,15.0,11.0,15.132745950421556
101,101,1.0,31.144823004794873,5.0990195135927845,5.0,9.055385138137417,9.0,7.0,18.027756377319946,13.038404810405298,12.5,11.0,14.0,5.5,5.5,0.5,0.5,5.0,5.0,5.0,15.0,11.0,14.035668847618199
102,102,6.0,31.064449134018133,4.0,5.0990195135927845,9.055385138137417,10.04987562112089,7.0710678118654755,22.090722034374522,17.029386365926403,14.0,13.0,15.0,7.0,8.0,2.0,3.0,5.0990195135927845,6.0,5.5,15.0,11.0,14.035668847618199
103,103,7.0710678118654755,32.0624390837628,3.0,6.0,10.04987562112089,10.04987562112089,6.082762530298219,22.090722034374522,16.1245154965971,12.5,13.0,15.0,8.0,8.0,2.0,4.0,5.0,6.0,6.0,14.0,11.0,14.035668847618199
104,104,6.0,32.01562118716424,3.0,6.082762530298219,10.0,11.0,6.082762530298219,21.095023109728988,15.033296378372908,12.0,13.0,14.0,7.5,7.5,1.5,4.5,5.0,6.0,5.5,15.0,11.0,14.035668847618199
105,105,6.082762530298219,31.064449134018133,4.0,5.0,9.055385138137417,10.04987562112089,5.0990195135927845,20.09975124224178,15.132745950421556,12.0,12.0,14.0,8.0,7.0,1.0,4.0,5.0990195135927845,5.0,5.0,15.0,12.0,14.0
106,106,7.0,30.066592756745816,4.123105625617661,5.0,9.055385138137417,10.04987562112089,5.0,21.02379604162864,16.0312195418814,12.5,13.0,15.0,9.0,7.0,1.0,4.0,6.082762530298219,5.0,5.5,15.0,12.0,14.035668847618199
107,107,6.0,31.016124838541646,4.0,6.0,9.055385138137417,10.04987562112089,6.082762530298219,22.02271554554524,16.0312195418814,13.0,14.0,15.0,8.5,7.5,1.5,4.5,5.0990195135927845,5.0,5.5,14.0,12.0,14.0
108,108,8.0,29.068883707497267,5.0,6.082762530298219,10.04987562112089,10.0,5.0990195135927845,24.08318915758459,18.027756377319946,14.0,15.0,17.0,11.0,8.0,1.0,6.0,5.0,6.0,6.0,14.0,12.0,15.0
109,109,11.0,30.0,4.123105625617661,6.0,9.0,10.0,5.0990195135927845,26.076809620810597,20.09975124224178,14.5,16.0,16.0,11.0,10.0,3.0,7.0,5.0,5.0,4.5,14.0,12.0,15.0
110,110,10.0,29.017236257093817,4.0,6.082762530298219,9.055385138137417,10.0,7.0710678118654755,27.073972741361768,21.02379604162864,16.0,17.0,18.0,10.5,9.5,2.5,6.5,5.0,5.0,5.0,14.0,13.0,13.0
111,111,11.045361017187261,29.0,4.0,7.0,9.0,10.0,6.0,28.0178514522438,21.02379604162864,15.5,18.0,18.0,12.0,10.0,3.0,8.0,5.0990195135927845,4.0,4.5,13.0,12.0,15.0
112,112,11.0,30.01666203960727,4.0,6.0,9.0,10.04987562112089,7.0,28.0,22.0,16.5,19.0,18.0,11.5,9.5,2.5,7.5,5.0,5.0,5.0,12.0,12.0,13.0
113,113,11.045361017187261,29.0,4.0,6.0,9.0,9.055385138137417,7.0710678118654755,28.0,22.0,16.5,18.0,18.0,11.0,10.0,4.0,7.0,5.0,4.0,4.5,13.0,13.0,14.0
114,114,11.045361017187261,30.01666203960727,4.0,6.082762530298219,9.0,9.0,8.0,29.0,23.021728866442675,17.5,19.0,18.0,10.5,10.5,4.5,6.5,5.0,4.0,4.5,12.0,13.0,14.0
115,115,14.0,31.064449134018133,4.0,6.0,10.0,10.04987562112089,7.0710678118654755,31.016124838541646,25.019992006393608,18.0,21.0,19.0,13.0,11.0,5.0,9.0,5.0,5.0,5.0,11.0,12.0,14.0
116,116,13.038404810405298,31.0,4.0,6.0,9.0,9.055385138137417,8.0,31.016124838541646,25.019992006393608,18.5,20.0,20.0,12.0,11.0,5.0,8.0,4.0,5.0,5.0,12.0,12.0,13.038404810405298
117,117,12.0,31.0,4.0,6.0,9.0,10.0,9.0,31.0,25.0,19.0,20.0,20.0,11.0,11.0,5.0,7.0,4.0,5.0,5.0,12.0,12.0,13.0
118,118,10.0,31.064449134018133,4.0,5.0,9.0,9.0,11.0,30.0,25.0,20.0,21.0,19.0,9.0,10.0,4.0,5.0,5.0,4.0,4.5,12.0,13.0,14.035668847618199
119,119,15.033296378372908,32.0,4.0,5.0990195135927845,10.0,11.0,7.0,31.0,26.019223662515376,18.5,20.0,20.0,13.0,11.0,5.0,9.0,4.0,5.0,5.0,12.0,12.0,15.0
120,120,15.0,32.01562118716424,5.0,6.0,10.0,11.045361017187261,6.0,32.0,26.0,18.5,21.0,20.0,14.5,11.5,5.5,9.5,5.0,4.0,4.5,12.0,13.0,14.0
121,121,13.0,32.0,4.123105625617661,6.0,9.0,10.0,7.0,30.01666203960727,24.020824298928627,17.5,19.0,19.0,12.0,11.0,5.0,8.0,4.0,4.0,4.0,12.0,12.0,13.0
122,122,12.041594578792296,32.0,5.0,6.082762530298219,10.0,11.0,7.0,30.0,24.020824298928627,18.0,19.0,19.0,12.0,11.0,5.0,7.0,4.0,5.0,4.5,12.0,12.0,14.0
123,123,9.0,31.0,3.0,5.0,8.0,10.0,11.0,28.0,23.0,18.5,19.0,19.0,8.0,9.0,3.0,5.0,5.0,5.0,5.0,13.0,13.0,15.033296378372908
124,124,11.045361017187261,33.015148038438355,4.0,5.0,9.0,11.0,8.0,28.0178514522438,23.021728866442675,17.5,18.0,17.0,9.5,10.5,5.5,5.5,5.0,5.0,5.0,12.0,13.0,15.0
125,125,9.0,33.015148038438355,4.0,6.0,10.0,10.0,9.0,28.0,22.0,17.5,18.0,17.0,8.5,10.5,4.5,4.5,5.0,4.0,4.0,12.0,14.0,15.033296378372908
126,126,10.0,33.015148038438355,4.0,6.0,10.04987562112089,10.04987562112089,6.0,26.0,20.0,15.0,17.0,16.0,10.5,9.5,3.5,7.5,5.0,5.0,5.0,13.0,14.0,15.033296378372908
127,127,10.0,34.058772731852805,4.0,5.0,10.0,10.0,5.0,24.0,19.0,14.0,16.0,14.0,10.0,9.0,3.0,6.0,3.0,3.0,3.0,14.0,15.0,14.0
128,128,8.0,35.12833614050059,4.0,6.0,10.04987562112089,11.045361017187261,5.0990195135927845,23.021728866442675,17.029386365926403,13.0,16.0,13.0,9.5,8.5,2.5,5.5,2.0,2.0,2.0,14.0,15.0,15.0
129,129,7.0,35.05709628591621,4.0,5.0,10.04987562112089,11.045361017187261,5.0990195135927845,21.02379604162864,16.0312195418814,12.5,14.0,12.0,8.0,8.0,3.0,5.0,2.0,3.0,2.0,15.0,16.0,15.033296378372908
130,130,7.0,34.132096331752024,4.0,5.0990195135927845,10.0,11.045361017187261,5.0990195135927845,21.095023109728988,16.0312195418814,12.5,15.0,12.0,8.5,7.5,2.5,4.5,3.1622776601683795,2.0,2.0,15.0,17.0,16.0312195418814
131,131,8.0,35.12833614050059,4.0,5.0990195135927845,10.04987562112089,11.045361017187261,6.082762530298219,23.08679276123039,18.027756377319946,14.0,16.0,13.0,8.5,8.5,3.5,5.5,2.23606797749979,2.0,2.0,15.0,17.0,17.029386365926403
132,132,11.0,33.13608305156178,4.0,6.0,10.04987562112089,11.180339887498949,5.0990195135927845,26.019223662515376,20.024984394500787,14.5,17.0,14.0,10.5,10.5,4.5,6.5,2.23606797749979,3.0,3.0,14.0,18.0,17.0
133,133,9.0,32.14031735997639,5.0,7.0710678118654755,9.055385138137417,10.04987562112089,6.082762530298219,27.073972741361768,20.024984394500787,15.5,18.0,15.0,10.5,10.5,4.5,6.5,3.1622776601683795,3.1622776601683795,3.0,14.0,18.0,17.11724276862369
134,134,6.0,30.265491900843113,5.0,6.082762530298219,8.06225774829855,9.055385138137417,7.0710678118654755,24.08318915758459,18.027756377319946,15.0,17.0,13.0,8.0,9.0,3.0,4.0,3.0,3.0,3.0,14.0,19.0,17.11724276862369
135,135,1.0,29.274562336608895,5.0990195135927845,6.082762530298219,7.0710678118654755,8.06225774829855,7.0,19.1049731745428,13.038404810405298,12.5,16.0,12.0,7.0,5.0,1.0,3.0,4.0,4.123105625617661,3.5,13.0,18.0,17.11724276862369
136,136,1.0,30.4138126514911,5.0990195135927845,6.082762530298219,8.06225774829855,9.055385138137417,6.082762530298219,18.24828759089466,12.165525060596439,11.5,15.0,10.0,6.5,5.5,0.5,1.5,3.0,3.1622776601683795,3.0,12.0,18.0,18.027756377319946
137,137,1.4142135623730951,29.427877939124322,5.0,6.082762530298219,7.0710678118654755,9.055385138137417,7.0710678118654755,19.235384061671343,13.152946437965905,12.5,16.0,11.0,6.5,5.5,0.5,2.5,3.0,3.0,3.5,12.0,19.0,17.11724276862369
138,138,5.0,27.294688127912362,5.0990195135927845,7.0710678118654755,7.0710678118654755,9.055385138137417,6.082762530298219,23.194827009486403,16.1245154965971,13.5,17.0,13.0,9.0,8.0,1.0,4.0,4.123105625617661,3.1622776601683795,3.5,12.0,19.0,16.1245154965971
139,139,7.0,27.294688127912362,5.0990195135927845,7.0710678118654755,8.06225774829855,9.055385138137417,5.0990195135927845,24.186773244895647,17.11724276862369,13.5,17.0,13.0,10.0,9.0,2.0,5.0,4.0,4.123105625617661,3.5,11.0,18.0,16.278820596099706
140,140,7.0,28.284271247461902,5.0,7.0710678118654755,8.06225774829855,9.055385138137417,5.0990195135927845,24.08318915758459,17.029386365926403,13.5,17.0,13.0,10.0,9.0,2.0,5.0,4.123105625617661,4.123105625617661,3.5,11.0,18.0,17.11724276862369
141,141,6.0,27.294688127912362,7.0,8.06225774829855,7.0710678118654755,8.246211251235321,3.1622776601683795,24.08318915758459,16.0312195418814,13.0,17.0,13.0,12.0,9.0,1.0,6.0,4.0,4.0,4.0,12.0,18.0,16.1245154965971
142,142,6.0,28.160255680657446,6.082762530298219,8.06225774829855,8.06225774829855,9.055385138137417,4.0,24.08318915758459,16.0312195418814,13.0,17.0,14.0,11.5,8.5,0.5,5.5,4.123105625617661,4.0,4.0,12.0,18.0,16.278820596099706
143,143,6.0,26.076809620810597,6.0,7.0710678118654755,8.06225774829855,9.055385138137417,3.1622776601683795,22.090722034374522,15.033296378372908,12.0,15.0,13.0,11.0,8.0,1.0,5.0,4.0,4.123105625617661,4.0,12.0,17.0,16.0312195418814
144,144,5.0,28.071337695236398,6.0,7.0,8.0,9.0,4.123105625617661,22.02271554554524,15.033296378372908,12.5,15.0,13.0,10.0,8.0,1.0,4.0,4.0,4.0,4.0,12.0,17.0,16.0312195418814
145,145,4.0,27.073972741361768,6.0,7.0710678118654755,8.0,9.0,3.0,20.024984394500787,13.0,11.0,14.0,12.0,10.0,7.0,0.0,4.0,4.0,4.0,4.0,13.0,17.0,17.029386365926403
146,146,3.0,29.068883707497267,6.0,7.0710678118654755,9.0,10.04987562112089,3.0,19.026297590440446,12.0,10.5,14.0,12.0,10.0,6.0,1.0,4.0,4.0,4.0,4.0,13.0,17.0,15.033296378372908
147,147,3.0,30.01666203960727,6.0,7.0,8.06225774829855,10.0,3.1622776601683795,19.026297590440446,12.041594578792296,10.5,14.0,13.0,10.5,5.5,1.5,4.5,4.0,4.0,4.0,14.0,16.0,15.033296378372908
148,148,2.0,30.01666203960727,6.0,7.0,8.06225774829855,10.04987562112089,4.123105625617661,19.026297590440446,12.041594578792296,11.0,14.0,13.0,9.5,5.5,1.5,4.5,4.0,4.0,4.0,13.0,16.0,15.033296378372908
149,149,2.0,31.016124838541646,7.0,7.0,9.055385138137417,9.055385138137417,3.0,19.0,12.0,11.0,14.0,13.0,10.5,5.5,1.5,4.5,4.0,4.0,4.0,14.0,16.0,16.0312195418814
150,150,1.0,31.016124838541646,6.0,6.0,9.0,9.0,3.0,16.0,10.0,9.5,13.0,12.0,9.5,3.5,2.5,3.5,4.0,4.123105625617661,4.0,13.0,15.0,16.0312195418814
151,151,1.0,32.0,6.0,7.0,9.0,9.0,3.1622776601683795,17.029386365926403,10.04987562112089,9.5,13.0,13.0,10.0,4.0,3.0,4.0,4.0,4.0,4.0,14.0,16.0,16.0312195418814
152,152,1.0,31.0,7.0710678118654755,7.0,9.055385138137417,9.0,3.0,17.0,10.0,10.0,13.0,13.0,10.0,4.0,3.0,4.0,4.0,4.0,3.5,14.0,16.0,15.0
153,153,3.0,31.016124838541646,6.0,7.0,9.0,9.0,4.0,20.0,13.0,11.5,15.0,14.0,10.5,5.5,1.5,4.5,4.123105625617661,4.0,4.0,14.0,16.0,17.0
154,154,5.0,30.0,6.0,7.0,8.0,9.0,4.0,22.0,15.0,12.5,15.0,15.0,11.0,7.0,0.0,5.0,4.0,4.123105625617661,4.0,14.0,16.0,16.0312195418814
155,155,2.0,29.0,6.0,7.0,7.0710678118654755,8.0,6.082762530298219,21.02379604162864,14.035668847618199,13.0,15.0,15.0,9.0,6.0,1.0,4.0,4.0,5.0,4.5,14.0,15.0,16.0
156,156,1.0,27.0,5.0,7.0,8.0,8.0,7.0,20.0,13.0,12.5,15.0,15.0,8.0,5.0,2.0,3.0,4.0,5.0,5.0,14.0,15.0,15.0
157,157,1.4142135623730951,29.0,5.0990195135927845,7.0,7.0,9.0,7.0710678118654755,20.024984394500787,13.038404810405298,12.5,15.0,15.0,8.0,5.0,2.0,3.0,4.0,4.123105625617661,4.5,14.0,15.0,15.0
158,158,3.0,29.017236257093817,6.0,7.0,7.0,8.06225774829855,7.0,23.0,16.0,14.5,16.0,17.0,9.5,6.5,0.5,3.5,4.0,5.0,4.5,15.0,15.0,15.033296378372908
159,159,2.0,28.0178514522438,6.082762530298219,7.0,7.0,8.06225774829855,6.0,21.02379604162864,14.035668847618199,13.0,15.0,16.0,9.5,5.5,1.5,3.5,3.0,4.123105625617661,3.5,15.0,15.0,16.0
160,160,1.0,30.01666203960727,6.082762530298219,7.0,7.0,8.06225774829855,6.0,20.024984394500787,13.038404810405298,12.5,14.0,15.0,8.5,5.5,2.5,2.5,2.0,3.0,2.5,15.0,15.0,14.035668847618199
161,161,2.0,30.066592756745816,6.082762530298219,6.0,8.0,8.0,5.0,19.026297590440446,13.038404810405298,12.0,13.0,15.0,9.0,5.0,2.0,3.0,2.23606797749979,2.23606797749979,1.5,17.0,15.0,14.035668847618199
162,162,6.082762530298219,31.064449134018133,5.0,6.0,9.055385138137417,10.0,5.0,22.02271554554524,16.0312195418814,13.0,13.0,15.0,9.0,8.0,1.0,4.0,3.1622776601683795,3.0,3.0,18.0,16.0,16.0
163,163,3.1622776601683795,30.066592756745816,4.0,5.0,8.06225774829855,9.055385138137417,8.06225774829855,20.09975124224178,15.132745950421556,13.5,12.0,14.0,5.0,7.0,1.0,1.0,3.0,3.0,3.0,18.0,16.0,18.027756377319946
164,164,1.0,30.066592756745816,4.0,5.0990195135927845,8.06225774829855,8.06225774829855,10.04987562112089,20.09975124224178,15.033296378372908,14.5,11.0,13.0,2.0,8.0,2.0,2.0,4.0,4.0,4.0,18.0,16.0,18.027756377319946
165,165,5.0,32.14031735997639,4.123105625617661,6.082762530298219,9.055385138137417,10.04987562112089,5.0,20.09975124224178,14.035668847618199,11.5,9.0,12.0,5.5,9.5,2.5,1.5,5.0990195135927845,5.0,5.0,18.0,15.0,17.0
166,166,5.0,32.0624390837628,3.0,6.082762530298219,9.055385138137417,10.04987562112089,6.082762530298219,20.09975124224178,14.035668847618199,11.5,9.0,11.0,4.0,10.0,3.0,1.0,5.0990195135927845,5.0,5.0,18.0,15.0,16.0312195418814
167,167,4.0,33.13608305156178,3.0,6.082762530298219,10.04987562112089,10.04987562112089,6.082762530298219,19.1049731745428,13.038404810405298,11.0,8.0,11.0,3.5,9.5,2.5,0.5,5.0990195135927845,5.0,5.0,18.0,15.0,17.029386365926403
168,168,2.0,31.064449134018133,4.123105625617661,6.0,8.06225774829855,9.055385138137417,6.0,18.027756377319946,12.041594578792296,11.0,8.0,10.0,3.0,9.0,2.0,1.0,5.0990195135927845,5.0,5.0,17.0,15.0,16.0
169,169,2.0,32.01562118716424,4.123105625617661,5.0,7.0710678118654755,8.06225774829855,7.0,18.027756377319946,13.038404810405298,12.0,8.0,9.0,1.5,9.5,3.5,2.5,6.082762530298219,5.0,5.5,16.0,15.0,18.0
170,170,0.0,32.01562118716424,5.0,5.0,8.06225774829855,8.0,6.082762530298219,16.0312195418814,11.045361017187261,11.0,8.0,9.0,2.5,7.5,1.5,2.5,6.082762530298219,6.082762530298219,6.0,16.0,15.0,18.0
171,171,0.0,29.017236257093817,4.0,6.0,8.0,8.06225774829855,7.0,17.0,11.0,11.0,10.0,11.0,3.5,6.5,0.5,0.5,6.082762530298219,6.0,6.5,15.0,14.0,16.0
172,172,0.0,28.071337695236398,5.0,6.082762530298219,7.0,7.0,8.06225774829855,19.1049731745428,13.038404810405298,13.0,11.0,13.0,4.0,7.0,0.0,0.0,6.324555320336759,5.0990195135927845,5.5,16.0,15.0,17.029386365926403
173,173,2.0,25.019992006393608,6.0,6.082762530298219,6.082762530298219,7.0710678118654755,6.082762530298219,20.09975124224178,14.035668847618199,13.0,12.0,13.0,6.5,7.5,0.5,0.5,6.082762530298219,7.0710678118654755,7.0,15.0,14.0,17.0
174,174,2.0,26.019223662515376,5.0,6.082762530298219,7.0,8.06225774829855,6.082762530298219,19.1049731745428,13.038404810405298,12.0,11.0,12.0,5.5,7.5,0.5,0.5,6.082762530298219,6.0,6.0,16.0,15.0,17.0
175,175,2.0,27.073972741361768,5.0990195135927845,6.082762530298219,7.0,8.0,6.0,19.1049731745428,13.038404810405298,12.0,11.0,13.0,6.0,7.0,0.0,1.0,6.082762530298219,6.0,6.5,16.0,14.0,16.0312195418814
176,176,3.0,30.066592756745816,5.0990195135927845,7.0710678118654755,8.0,8.06225774829855,5.0,20.09975124224178,13.038404810405298,11.5,10.0,12.0,6.0,9.0,1.0,1.0,6.082762530298219,6.0,6.5,17.0,15.0,16.0312195418814
177,177,4.0,30.01666203960727,4.0,7.0710678118654755,9.0,10.0,5.0990195135927845,20.09975124224178,13.038404810405298,11.0,10.0,11.0,5.5,9.5,2.5,1.5,6.082762530298219,6.0,6.0,17.0,15.0,16.0312195418814
178,178,5.0,30.066592756745816,3.0,7.0710678118654755,8.0,8.0,6.0,21.02379604162864,14.0,11.5,10.0,12.0,5.0,10.0,3.0,2.0,6.082762530298219,6.0,6.0,16.0,14.0,16.0312195418814
179,179,6.0,30.066592756745816,4.0,6.082762530298219,8.06225774829855,9.0,5.0990195135927845,21.095023109728988,15.033296378372908,12.0,9.0,11.0,5.0,11.0,4.0,1.0,6.082762530298219,6.0,6.0,16.0,14.0,16.0312195418814
180,180,6.082762530298219,30.066592756745816,3.0,6.0,8.06225774829855,9.0,6.0,21.02379604162864,15.033296378372908,12.0,9.0,11.0,4.0,11.0,4.0,1.0,6.082762530298219,5.0,5.5,16.0,14.0,16.0312195418814
181,181,6.0,30.01666203960727,4.0,6.082762530298219,8.06225774829855,8.0,5.0,21.02379604162864,15.0,12.0,10.0,11.0,5.5,10.5,3.5,1.5,6.082762530298219,6.0,6.0,17.0,14.0,16.0312195418814
182,182,4.0,30.066592756745816,4.123105625617661,6.0,7.0,8.0,5.0,19.026297590440446,13.038404810405298,11.0,9.0,11.0,5.0,9.0,2.0,1.0,6.082762530298219,6.0,6.0,16.0,14.0,16.0312195418814
183,183,2.23606797749979,28.071337695236398,4.0,6.0,7.0,8.06225774829855,6.0,18.027756377319946,12.041594578792296,11.0,9.0,11.0,4.0,8.0,1.0,0.0,6.082762530298219,6.0,6.0,17.0,14.0,16.0312195418814
184,184,1.0,29.154759474226502,4.123105625617661,6.082762530298219,8.06225774829855,8.06225774829855,6.0,17.11724276862369,11.045361017187261,10.5,8.0,11.0,3.5,7.5,0.5,0.5,6.082762530298219,6.0,6.5,16.0,14.0,16.0312195418814
185,185,2.0,30.066592756745816,4.0,6.082762530298219,8.06225774829855,8.06225774829855,6.082762530298219,18.110770276274835,12.041594578792296,11.0,9.0,11.0,4.0,8.0,1.0,1.0,6.082762530298219,6.0,6.0,16.0,13.0,17.029386365926403
186,186,2.23606797749979,30.066592756745816,5.0,6.0,9.0,9.055385138137417,5.0990195135927845,18.110770276274835,12.165525060596439,11.0,9.0,11.0,5.0,8.0,1.0,0.0,6.082762530298219,6.0,6.0,16.0,13.0,16.1245154965971
187,187,3.0,30.265491900843113,4.123105625617661,6.082762530298219,7.0710678118654755,9.0,6.0,19.1049731745428,13.038404810405298,11.5,8.0,12.0,4.0,9.0,2.0,1.0,6.324555320336759,6.0,6.5,17.0,13.0,17.029386365926403
188,188,1.0,30.14962686336267,5.0990195135927845,5.0990195135927845,7.0710678118654755,8.06225774829855,7.0710678118654755,18.24828759089466,13.152946437965905,12.5,9.0,12.0,3.5,7.5,1.5,1.5,6.082762530298219,6.0,6.5,16.0,13.0,17.11724276862369
189,189,0.0,30.14962686336267,4.123105625617661,5.0990195135927845,7.0710678118654755,8.06225774829855,7.0,16.1245154965971,11.045361017187261,11.0,8.0,11.0,2.5,6.5,0.5,1.5,6.082762530298219,6.0,6.5,16.0,12.0,17.029386365926403
190,190,0.0,30.14962686336267,4.0,5.0990195135927845,8.06225774829855,8.06225774829855,7.0710678118654755,16.1245154965971,11.045361017187261,11.0,8.0,11.0,2.5,6.5,0.5,1.5,6.082762530298219,6.082762530298219,6.0,17.0,13.0,17.029386365926403
191,191,1.0,30.265491900843113,4.0,5.0,8.06225774829855,9.055385138137417,7.0710678118654755,16.1245154965971,11.180339887498949,11.0,7.0,11.0,2.0,7.0,0.0,2.0,2.23606797749979,2.0,2.5,17.0,13.0,17.11724276862369
192,192,0.0,30.265491900843113,4.0,6.082762530298219,8.06225774829855,8.246211251235321,7.0710678118654755,17.11724276862369,11.045361017187261,11.0,7.0,11.0,2.0,8.0,1.0,2.0,2.23606797749979,2.23606797749979,2.0,17.0,14.0,17.029386365926403
193,193,4.123105625617661,31.144823004794873,3.0,6.0,10.04987562112089,10.198039027185569,6.082762530298219,19.1049731745428,13.152946437965905,11.0,8.0,11.0,3.5,9.5,2.5,0.5,2.23606797749979,2.23606797749979,2.0,17.0,13.0,18.027756377319946
194,194,5.0990195135927845,32.14031735997639,3.0,5.0,10.04987562112089,10.04987562112089,5.0990195135927845,18.110770276274835,13.152946437965905,10.5,7.0,10.0,3.5,9.5,3.5,0.5,3.1622776601683795,2.0,2.5,16.0,12.0,18.110770276274835
195,195,4.123105625617661,32.14031735997639,3.0,6.0,8.06225774829855,10.04987562112089,6.082762530298219,19.1049731745428,13.152946437965905,11.0,8.0,11.0,3.5,9.5,2.5,0.5,3.0,3.0,3.0,16.0,13.0,17.029386365926403
196,196,4.123105625617661,32.0624390837628,3.0,6.0,9.055385138137417,9.055385138137417,6.0,19.026297590440446,13.038404810405298,11.0,8.0,10.0,3.0,10.0,3.0,0.0,5.0990195135927845,5.0,5.0,17.0,13.0,17.029386365926403
197,197,3.0,32.0624390837628,4.0,6.082762530298219,9.055385138137417,10.04987562112089,6.082762530298219,19.1049731745428,13.038404810405298,11.5,9.0,11.0,4.0,9.0,2.0,0.0,5.0990195135927845,5.0,5.0,17.0,14.0,16.0312195418814
198,198,3.0,31.064449134018133,4.0,6.082762530298219,8.06225774829855,9.055385138137417,6.082762530298219,19.1049731745428,13.038404810405298,11.5,9.0,11.0,4.0,9.0,2.0,0.0,6.082762530298219,6.0,6.0,16.0,13.0,16.1245154965971
199,199,1.0,30.14962686336267,4.0,6.082762530298219,8.06225774829855,9.0,7.0710678118654755,18.110770276274835,12.041594578792296,11.5,8.0,11.0,2.5,8.5,1.5,1.5,6.082762530298219,5.0,5.5,16.0,13.0,16.0312195418814
200,200,0.0,31.144823004794873,4.0,6.082762530298219,8.06225774829855,9.055385138137417,7.0710678118654755,17.11724276862369,11.045361017187261,11.0,8.0,11.0,2.5,7.5,0.5,1.5,6.082762530298219,6.0,5.5,16.0,13.0,16.1245154965971
201,201,1.0,30.066592756745816,4.123105625617661,5.0,8.06225774829855,9.055385138137417,7.0,17.029386365926403,12.041594578792296,11.5,9.0,11.0,3.0,7.0,1.0,1.0,6.082762530298219,6.082762530298219,6.0,16.0,13.0,16.0312195418814
202,202,1.4142135623730951,31.064449134018133,4.0,6.0,8.06225774829855,8.0,7.0,18.027756377319946,12.041594578792296,11.5,9.0,11.0,3.0,8.0,1.0,1.0,5.0990195135927845,5.0,5.5,16.0,12.0,17.029386365926403
203,203,4.123105625617661,32.01562118716424,4.0,6.0,9.055385138137417,9.0,6.0,20.024984394500787,14.035668847618199,12.0,10.0,11.0,4.5,9.5,2.5,0.5,6.324555320336759,6.0,6.0,16.0,12.0,17.029386365926403
204,204,4.123105625617661,32.0624390837628,4.0,6.0,9.055385138137417,9.055385138137417,6.0,20.024984394500787,14.035668847618199,12.0,10.0,12.0,5.0,9.0,2.0,1.0,5.385164807134504,5.0,5.5,17.0,13.0,16.0312195418814
205,205,4.0,32.0624390837628,4.123105625617661,6.0,9.0,9.0,6.0,20.024984394500787,14.035668847618199,12.0,9.0,11.0,4.0,10.0,3.0,0.0,6.082762530298219,5.0,5.0,16.0,12.0,16.0312195418814
206,206,5.0,31.064449134018133,4.0,6.082762530298219,8.06225774829855,9.0,6.082762530298219,21.095023109728988,15.033296378372908,12.5,10.0,12.0,5.0,10.0,3.0,1.0,6.082762530298219,6.0,6.0,16.0,13.0,15.033296378372908
207,207,6.0,31.016124838541646,3.0,6.0,8.0,9.055385138137417,6.0,21.0,15.0,12.0,11.0,12.0,5.5,9.5,2.5,2.5,6.324555320336759,6.0,6.0,15.0,12.0,16.0312195418814
208,208,5.0,32.01562118716424,4.123105625617661,6.0,9.0,10.0,6.082762530298219,21.0,15.0,12.5,12.0,13.0,6.5,8.5,1.5,2.5,6.082762530298219,6.0,6.0,15.0,14.0,16.0312195418814
209,209,5.0,31.016124838541646,5.0,6.0,9.0,10.04987562112089,5.0,21.0,15.0,12.5,13.0,12.0,7.5,8.5,1.5,3.5,5.0,5.0,5.0,13.0,13.0,16.0
210,210,5.0,32.0624390837628,5.0,6.0,9.055385138137417,9.055385138137417,5.0,21.0,15.0,12.5,14.0,12.0,8.0,8.0,2.0,4.0,5.0990195135927845,5.0,5.0,12.0,14.0,17.029386365926403
211,211,6.0,32.2490309931942,4.0,6.082762530298219,10.0,10.04987562112089,5.0990195135927845,21.095023109728988,15.033296378372908,12.0,15.0,11.0,8.0,8.0,2.0,4.0,5.0990195135927845,5.0990195135927845,4.5,11.0,16.0,15.132745950421556
212,212,6.0,32.38826948140329,4.123105625617661,6.082762530298219,9.219544457292887,10.198039027185569,5.0990195135927845,21.213203435596427,15.132745950421556,12.0,15.0,10.0,7.5,8.5,2.5,4.5,5.0990195135927845,4.123105625617661,4.5,10.0,17.0,16.278820596099706
213,213,7.0710678118654755,31.575306807693888,4.0,6.082762530298219,9.055385138137417,10.198039027185569,5.0990195135927845,22.20360331117452,16.1245154965971,12.5,17.0,11.0,9.0,8.0,3.0,5.0,4.0,5.0990195135927845,5.0,10.0,18.0,15.297058540778355
214,214,7.0,31.78049716414141,4.123105625617661,6.082762530298219,8.246211251235321,9.219544457292887,6.082762530298219,23.194827009486403,17.11724276862369,13.5,17.0,10.0,7.5,9.5,4.5,4.5,3.1622776601683795,3.1622776601683795,3.0,10.0,19.0,16.278820596099706
215,215,7.0,29.614185789921695,4.123105625617661,6.324555320336759,8.246211251235321,9.219544457292887,6.082762530298219,23.345235059857504,17.11724276862369,13.5,16.0,10.0,7.0,10.0,4.0,4.0,3.1622776601683795,2.23606797749979,2.5,9.0,19.0,16.278820596099706
216,216,4.123105625617661,28.635642126552707,4.0,5.0990195135927845,7.0710678118654755,8.246211251235321,7.280109889280518,20.396078054371138,15.297058540778355,13.0,15.0,9.0,5.0,8.0,3.0,2.0,2.23606797749979,2.23606797749979,2.5,10.0,20.0,14.317821063276353
217,217,1.0,28.635642126552707,4.123105625617661,5.0990195135927845,7.0710678118654755,8.06225774829855,7.0710678118654755,17.26267650163207,12.165525060596439,11.5,14.0,8.0,4.0,6.0,2.0,1.0,2.0,2.23606797749979,2.0,9.0,19.0,16.492422502470642
218,218,0.0,28.442925306655784,4.123105625617661,5.0990195135927845,7.0710678118654755,8.06225774829855,7.0710678118654755,16.278820596099706,11.180339887498949,11.0,12.0,7.0,2.5,6.5,1.5,0.5,3.1622776601683795,2.23606797749979,2.0,10.0,19.0,17.26267650163207
219,219,1.4142135623730951,28.284271247461902,3.0,5.0,7.0710678118654755,7.0710678118654755,7.0710678118654755,16.1245154965971,11.180339887498949,10.5,11.0,7.0,2.0,7.0,2.0,0.0,4.0,4.47213595499958,4.0,11.0,18.0,16.1245154965971
220,220,1.0,28.284271247461902,4.0,5.0990195135927845,7.0710678118654755,8.06225774829855,7.0710678118654755,17.11724276862369,12.041594578792296,11.5,12.0,8.0,3.0,7.0,1.0,0.0,5.0,5.385164807134504,5.0,12.0,17.0,16.1245154965971
221,221,1.0,29.068883707497267,5.0,7.0,8.06225774829855,9.055385138137417,6.082762530298219,19.026297590440446,12.041594578792296,11.5,10.0,8.0,3.0,10.0,3.0,1.0,5.0,4.123105625617661,4.5,12.0,15.0,17.029386365926403
222,222,3.0,31.064449134018133,4.0,6.0,8.06225774829855,9.055385138137417,6.0,19.0,13.0,11.5,10.0,8.0,3.0,10.0,3.0,0.0,5.0990195135927845,5.0990195135927845,5.0,12.0,15.0,16.0312195418814
223,223,3.1622776601683795,30.066592756745816,4.0,6.0,7.0710678118654755,8.06225774829855,6.0,19.026297590440446,13.038404810405298,11.5,10.0,8.0,3.0,10.0,4.0,0.0,6.082762530298219,5.0,5.5,13.0,15.0,16.0
224,224,2.0,30.066592756745816,4.0,7.0,8.0,9.055385138137417,6.0,19.0,12.0,11.0,10.0,8.0,3.0,10.0,3.0,1.0,5.0990195135927845,5.0990195135927845,5.0,12.0,15.0,16.0312195418814
225,225,1.0,29.068883707497267,4.0,7.0,8.0,8.0,7.0710678118654755,19.026297590440446,12.041594578792296,11.5,10.0,8.0,2.0,10.0,3.0,1.0,5.0990195135927845,5.0990195135927845,5.0,13.0,15.0,17.029386365926403
226,226,2.23606797749979,29.017236257093817,4.123105625617661,6.082762530298219,8.06225774829855,9.055385138137417,6.0,18.027756377319946,12.0,11.0,9.0,8.0,2.5,9.5,3.5,0.5,6.082762530298219,6.082762530298219,5.5,12.0,14.0,17.029386365926403
227,227,2.0,29.068883707497267,4.0,7.0,8.06225774829855,8.06225774829855,6.0,19.0,12.0,11.0,10.0,8.0,3.0,10.0,3.0,0.0,6.0,6.082762530298219,5.5,13.0,15.0,16.0312195418814
228,228,1.0,28.0178514522438,4.0,7.0,8.06225774829855,9.055385138137417,7.0710678118654755,19.026297590440446,12.041594578792296,11.5,10.0,9.0,2.5,9.5,2.5,0.5,6.0,6.082762530298219,6.0,13.0,15.0,17.029386365926403
229,229,2.0,28.0178514522438,4.0,6.0,8.06225774829855,8.06225774829855,7.0,19.0,13.0,12.0,10.0,9.0,2.5,9.5,2.5,0.5,6.082762530298219,5.0990195135927845,5.5,14.0,15.0,17.0
230,230,1.0,27.018512172212592,4.0,6.082762530298219,7.0,7.0,8.0,19.026297590440446,13.0,12.5,11.0,10.0,2.5,8.5,2.5,0.5,6.082762530298219,5.0990195135927845,5.5,14.0,15.0,16.0
231,231,3.0,29.068883707497267,4.0,6.0,8.0,8.0,7.0,20.0,14.0,12.5,11.0,9.0,3.0,10.0,3.0,1.0,7.0,6.082762530298219,6.0,13.0,15.0,17.0
232,232,3.0,31.016124838541646,4.0,5.0,8.0,9.055385138137417,7.0,19.0,14.0,12.5,10.0,9.0,2.5,9.5,3.5,0.5,7.0710678118654755,6.082762530298219,6.0,13.0,15.0,15.0
233,233,4.0,32.0,4.0,6.0,8.0,8.0,6.0,20.0,14.0,12.0,10.0,10.0,4.0,10.0,4.0,1.0,7.0,7.0710678118654755,7.0,13.0,15.0,17.029386365926403
234,234,5.0,33.015148038438355,4.0,6.0,8.0,10.04987562112089,6.0,21.0,15.0,12.5,12.0,11.0,5.5,9.5,3.5,2.5,7.0,6.082762530298219,6.0,13.0,15.0,16.0312195418814
235,235,7.0,33.015148038438355,4.0,6.0,9.0,11.0,6.0,23.0,17.0,13.5,13.0,12.0,6.5,10.5,3.5,2.5,6.082762530298219,6.082762530298219,6.5,13.0,16.0,13.038404810405298
236,236,4.0,34.0147027033899,4.0,6.0,10.0,10.0,9.0,23.0,17.0,15.0,14.0,13.0,4.5,9.5,3.5,0.5,6.0,6.082762530298219,6.5,12.0,15.0,14.035668847618199
237,237,9.055385138137417,35.014282800023196,4.0,6.082762530298219,10.04987562112089,11.045361017187261,7.0710678118654755,26.019223662515376,20.0,15.5,16.0,15.0,8.5,10.5,4.5,5.5,6.0,6.0,5.5,11.0,14.0,13.152946437965905
238,238,11.0,34.132096331752024,4.0,6.082762530298219,10.0,11.045361017187261,6.082762530298219,27.073972741361768,21.02379604162864,15.5,18.0,15.0,10.5,10.5,4.5,6.5,5.0,5.0,5.0,11.0,15.0,14.142135623730951
239,239,12.0,34.132096331752024,5.0990195135927845,6.0,9.055385138137417,10.198039027185569,6.0,29.017236257093817,23.021728866442675,17.0,19.0,16.0,11.5,11.5,5.5,7.5,5.0,5.0990195135927845,5.0,10.0,15.0,14.142135623730951
240,240,13.0,34.132096331752024,5.0,5.0990195135927845,10.04987562112089,11.045361017187261,6.082762530298219,29.068883707497267,24.020824298928627,17.5,20.0,17.0,12.5,10.5,5.5,8.5,5.0990195135927845,5.0990195135927845,4.5,10.0,15.0,14.142135623730951
241,241,14.0,35.22782990761707,5.0,5.0990195135927845,10.04987562112089,11.180339887498949,6.082762530298219,30.066592756745816,25.019992006393608,18.0,21.0,17.0,13.0,11.0,6.0,9.0,5.0990195135927845,4.0,4.5,10.0,15.0,14.142135623730951
242,242,15.0,33.13608305156178,4.0,5.0990195135927845,10.04987562112089,11.045361017187261,6.082762530298219,30.066592756745816,25.019992006393608,17.5,21.0,18.0,13.5,10.5,5.5,9.5,5.0990195135927845,4.0,4.5,9.0,15.0,15.132745950421556
243,243,14.0,34.132096331752024,4.0,6.0,10.04987562112089,11.045361017187261,7.0710678118654755,31.016124838541646,25.019992006393608,18.0,22.0,19.0,13.5,10.5,5.5,9.5,5.0,5.0,5.0,10.0,15.0,15.132745950421556
244,244,14.0,34.132096331752024,4.0,6.082762530298219,9.055385138137417,10.04987562112089,7.0,31.016124838541646,25.0,18.0,22.0,19.0,13.5,10.5,5.5,9.5,5.0990195135927845,5.0990195135927845,5.0,10.0,15.0,14.035668847618199
245,245,15.0,34.058772731852805,5.0990195135927845,6.0,10.0,11.045361017187261,6.0,32.01562118716424,26.019223662515376,18.5,22.0,20.0,15.0,11.0,5.0,10.0,5.0,4.123105625617661,4.0,10.0,14.0,15.033296378372908
246,246,11.0,33.06055050963308,6.0,6.0,10.0,10.04987562112089,8.0,31.0,25.0,19.5,22.0,20.0,13.0,10.0,4.0,7.0,4.123105625617661,4.123105625617661,4.0,10.0,13.0,15.132745950421556
247,247,11.0,33.06055050963308,5.0,5.0,9.0,10.0,10.0,31.0,26.0,20.5,23.0,21.0,12.0,9.0,4.0,7.0,5.0,4.0,4.0,10.0,13.0,15.033296378372908
248,248,10.0,32.01562118716424,4.0,5.0,9.055385138137417,9.055385138137417,11.045361017187261,30.01666203960727,25.019992006393608,20.0,21.0,20.0,9.5,9.5,4.5,6.5,5.0,5.0,5.0,11.0,13.0,15.033296378372908
249,249,11.0,32.01562118716424,5.0,5.0,8.0,10.04987562112089,10.0,31.0,26.0,20.5,22.0,21.0,11.5,9.5,4.5,6.5,5.0,5.0,5.0,11.0,13.0,14.035668847618199
250,250,12.0,33.015148038438355,4.0,6.0,9.0,10.0,10.04987562112089,32.01562118716424,26.019223662515376,20.0,22.0,21.0,11.5,10.5,4.5,6.5,5.0,6.0,6.0,11.0,12.0,14.035668847618199
251,251,12.041594578792296,32.01562118716424,5.0,6.0,9.0,10.0,9.0,32.01562118716424,26.019223662515376,20.0,22.0,21.0,12.5,10.5,4.5,7.5,5.0990195135927845,5.0,5.0,11.0,13.0,14.035668847618199
252,252,11.0,31.016124838541646,4.0,5.0,9.055385138137417,10.04987562112089,10.04987562112089,30.01666203960727,25.019992006393608,19.5,21.0,20.0,10.5,9.5,4.5,6.5,6.0,5.0,5.5,11.0,13.0,15.0
253,253,11.0,32.0,4.0,5.0,9.0,10.0,10.0,30.0,25.0,19.5,21.0,21.0,11.0,9.0,4.0,6.0,6.0,5.0,6.0,12.0,13.0,14.0
254,254,10.0,32.0,4.0,5.0,9.0,9.055385138137417,10.04987562112089,29.017236257093817,24.020824298928627,19.0,20.0,20.0,10.0,9.0,4.0,6.0,6.0,6.0,6.0,11.0,12.0,14.035668847618199
255,255,11.045361017187261,32.0,4.0,4.0,9.0,10.0,8.0,27.018512172212592,23.021728866442675,17.5,20.0,20.0,12.0,7.0,3.0,8.0,5.0,6.082762530298219,6.5,11.0,13.0,15.033296378372908
256,256,8.06225774829855,33.0,3.0,5.0,8.06225774829855,9.0,8.0,24.020824298928627,19.026297590440446,15.0,17.0,17.0,9.0,7.0,2.0,5.0,6.0,6.0,6.0,10.0,12.0,13.0
257,257,8.06225774829855,31.016124838541646,5.0,5.0990195135927845,10.0,11.045361017187261,5.0,23.0,18.027756377319946,14.0,18.0,17.0,12.5,5.5,0.5,7.5,6.0,6.0,6.0,10.0,11.0,14.035668847618199
258,258,8.06225774829855,29.017236257093817,5.0,5.0,9.055385138137417,11.0,4.0,22.02271554554524,17.029386365926403,13.0,17.0,16.0,12.5,5.5,0.5,7.5,6.0,6.082762530298219,6.0,11.0,13.0,14.0
259,259,7.0710678118654755,31.016124838541646,5.0,5.0990195135927845,9.0,11.0,5.0,22.0,17.029386365926403,13.5,17.0,16.0,11.5,5.5,0.5,6.5,7.0,6.0,6.5,11.0,12.0,12.041594578792296
260,260,7.0,30.01666203960727,5.0,6.0,10.0,10.04987562112089,4.0,22.0,16.0,12.5,16.0,15.0,11.5,6.5,0.5,6.5,7.0,7.0,7.0,10.0,12.0,14.035668847618199
261,261,7.0710678118654755,29.068883707497267,5.0990195135927845,6.082762530298219,9.0,11.045361017187261,4.0,22.02271554554524,16.0,12.5,17.0,15.0,12.0,6.0,0.0,7.0,6.0,6.0,6.5,10.0,12.0,13.038404810405298
262,262,7.0710678118654755,29.068883707497267,5.0,6.082762530298219,9.0,10.04987562112089,4.123105625617661,22.02271554554524,16.0,12.5,17.0,15.0,12.0,6.0,0.0,7.0,6.0,6.0,6.0,11.0,13.0,13.038404810405298
263,263,7.0,30.066592756745816,5.0,5.0,10.0,10.0,5.0990195135927845,22.02271554554524,17.029386365926403,13.5,18.0,16.0,12.0,5.0,0.0,7.0,6.082762530298219,6.0,6.0,10.0,12.0,13.038404810405298
264,264,7.0,30.066592756745816,5.0,5.0,10.04987562112089,11.0,4.0,21.0,16.0,12.5,17.0,15.0,12.0,5.0,0.0,7.0,6.0,6.0,6.0,11.0,13.0,12.041594578792296
265,265,7.0,29.017236257093817,5.0,5.0,9.0,10.04987562112089,4.123105625617661,21.02379604162864,16.0312195418814,12.5,16.0,15.0,11.5,5.5,0.5,6.5,6.0,7.0,7.0,11.0,13.0,14.0
266,266,6.082762530298219,30.066592756745816,5.0990195135927845,5.0990195135927845,9.0,10.04987562112089,5.0,21.02379604162864,16.0,13.0,17.0,15.0,11.0,5.0,0.0,6.0,6.0,6.082762530298219,6.0,10.0,12.0,13.038404810405298
267,267,6.0,29.068883707497267,5.0990195135927845,6.0,9.0,10.04987562112089,4.0,21.02379604162864,15.033296378372908,12.0,16.0,14.0,11.0,6.0,0.0,6.0,6.082762530298219,7.0710678118654755,7.0,11.0,13.0,13.038404810405298
268,268,6.0,30.066592756745816,4.123105625617661,6.0,9.055385138137417,10.04987562112089,5.0,21.02379604162864,15.033296378372908,12.0,17.0,15.0,11.0,5.0,0.0,7.0,7.0,7.0,7.0,10.0,13.0,14.0
269,269,6.0,30.066592756745816,5.0,6.082762530298219,9.0,9.055385138137417,5.0990195135927845,22.090722034374522,16.0312195418814,13.0,17.0,15.0,11.0,6.0,0.0,6.0,6.0,6.0,6.0,10.0,12.0,12.041594578792296
270,270,6.082762530298219,29.068883707497267,5.0,6.0,9.055385138137417,10.04987562112089,4.0,21.02379604162864,15.033296378372908,12.0,17.0,15.0,12.0,5.0,1.0,7.0,6.082762530298219,6.082762530298219,6.0,10.0,13.0,13.038404810405298
271,271,6.0,29.154759474226502,4.123105625617661,6.082762530298219,9.055385138137417,10.04987562112089,5.0,21.095023109728988,15.033296378372908,12.0,17.0,14.0,10.5,5.5,0.5,6.5,5.0,5.0990195135927845,5.0,10.0,13.0,13.038404810405298
272,272,5.0,30.265491900843113,5.0,6.082762530298219,9.055385138137417,10.04987562112089,5.0990195135927845,21.095023109728988,15.033296378372908,12.5,18.0,14.0,11.0,5.0,1.0,6.0,3.0,3.1622776601683795,3.0,11.0,14.0,13.038404810405298
273,273,6.082762530298219,30.265491900843113,4.0,6.0,9.055385138137417,10.04987562112089,5.0,21.02379604162864,15.033296378372908,12.0,17.0,13.0,10.0,6.0,0.0,6.0,3.1622776601683795,3.0,3.0,11.0,14.0,12.041594578792296
274,274,5.0,30.265491900843113,5.0,6.082762530298219,9.055385138137417,10.04987562112089,5.0990195135927845,21.095023109728988,15.033296378372908,12.5,18.0,14.0,11.0,5.0,0.0,6.0,3.0,2.0,2.0,10.0,14.0,12.041594578792296
275,275,5.0990195135927845,30.265491900843113,5.0,6.0,9.219544457292887,10.198039027185569,5.0,21.02379604162864,15.033296378372908,12.5,18.0,14.0,11.0,5.0,0.0,7.0,3.1622776601683795,3.0,3.0,10.0,14.0,12.165525060596439
276,276,10.0,30.4138126514911,5.0990195135927845,6.082762530298219,10.04987562112089,11.180339887498949,4.0,25.079872407968907,19.026297590440446,14.0,20.0,15.0,13.5,7.5,1.5,8.5,3.1622776601683795,3.1622776601683795,3.0,9.0,14.0,13.038404810405298
277,277,12.0,32.2490309931942,4.123105625617661,6.0,10.198039027185569,11.180339887498949,6.0,28.0178514522438,22.02271554554524,16.0,21.0,17.0,13.0,9.0,4.0,10.0,3.1622776601683795,4.123105625617661,4.0,8.0,13.0,12.041594578792296
278,278,13.0,31.575306807693888,4.123105625617661,5.0,9.219544457292887,11.180339887498949,6.0,28.0178514522438,23.021728866442675,16.5,22.0,16.0,13.0,9.0,4.0,10.0,5.0,4.123105625617661,4.0,7.0,13.0,11.045361017187261
279,279,9.0,31.400636936215164,4.123105625617661,5.0,9.055385138137417,11.180339887498949,6.0,24.020824298928627,19.026297590440446,14.5,20.0,15.0,11.5,6.5,2.5,8.5,4.123105625617661,4.0,4.0,8.0,13.0,10.198039027185569
280,280,3.0,31.400636936215164,5.0990195135927845,6.082762530298219,9.055385138137417,10.198039027185569,6.0,20.09975124224178,14.035668847618199,12.5,18.0,13.0,9.5,4.5,0.5,5.5,4.0,4.123105625617661,3.5,7.0,13.0,10.04987562112089
281,281,0.0,31.25699921617557,6.082762530298219,6.0,8.06225774829855,9.055385138137417,5.0,17.029386365926403,11.045361017187261,11.0,16.0,12.0,9.0,3.0,2.0,4.0,4.123105625617661,4.123105625617661,4.0,7.0,13.0,9.219544457292887
282,282,1.0,31.25699921617557,5.0,5.0990195135927845,8.06225774829855,9.055385138137417,6.082762530298219,17.11724276862369,12.041594578792296,11.5,16.0,12.0,8.0,3.0,2.0,3.0,4.123105625617661,3.1622776601683795,3.5,7.0,12.0,10.04987562112089
283,283,1.4142135623730951,31.25699921617557,6.0,6.0,9.055385138137417,9.055385138137417,7.0,20.024984394500787,14.035668847618199,13.5,17.0,13.0,8.0,5.0,1.0,3.0,4.123105625617661,4.0,3.5,7.0,12.0,10.04987562112089
284,284,7.0,31.25699921617557,4.0,5.0990195135927845,10.04987562112089,10.04987562112089,6.082762530298219,22.090722034374522,17.029386365926403,13.5,18.0,14.0,10.0,6.0,1.0,6.0,4.123105625617661,3.0,3.5,7.0,12.0,10.04987562112089
285,285,7.0,31.144823004794873,5.0,6.082762530298219,10.04987562112089,11.045361017187261,6.082762530298219,24.08318915758459,18.027756377319946,14.5,19.0,16.0,11.5,6.5,1.5,7.5,3.0,4.0,4.0,7.0,12.0,10.04987562112089
286,286,9.0,32.14031735997639,5.0,6.082762530298219,10.04987562112089,11.045361017187261,5.0990195135927845,25.079872407968907,19.026297590440446,14.5,20.0,17.0,13.5,6.5,0.5,8.5,3.0,3.0,3.0,7.0,11.0,9.055385138137417
287,287,9.0,32.0624390837628,4.0,6.0,10.04987562112089,11.045361017187261,5.0990195135927845,24.020824298928627,18.027756377319946,13.5,18.0,16.0,12.0,7.0,2.0,8.0,4.0,3.0,3.0,8.0,10.0,9.0
288,288,8.0,32.0624390837628,5.0,6.082762530298219,10.0,11.045361017187261,5.0990195135927845,24.0,18.027756377319946,14.0,18.0,16.0,12.0,7.0,1.0,7.0,3.0,3.0,3.0,8.0,10.0,9.055385138137417
289,289,3.0,32.01562118716424,5.0990195135927845,6.0,9.0,9.055385138137417,6.082762530298219,20.0,14.0,12.5,16.0,15.0,9.5,4.5,1.5,4.5,3.0,2.0,2.5,10.0,10.0,8.0
290,290,1.0,32.0,6.0,7.0710678118654755,10.0,10.0,5.0,19.026297590440446,12.0,11.5,14.0,14.0,9.0,5.0,2.0,3.0,2.0,3.0,2.5,11.0,11.0,8.0
291,291,4.0,32.0,5.0,6.0,9.0,10.0,6.0,21.0,15.0,13.0,15.0,15.0,9.0,6.0,1.0,4.0,2.0,3.1622776601683795,2.5,12.0,11.0,9.055385138137417
292,292,8.0,32.01562118716424,4.0,5.0,10.0,11.0,5.0,22.0,17.0,13.0,13.0,14.0,8.5,8.5,2.5,4.5,2.0,2.23606797749979,2.0,13.0,12.0,10.04987562112089
293,293,8.0,32.0624390837628,4.0,7.0,9.055385138137417,10.0,6.0,25.0,18.0,14.0,14.0,16.0,9.0,10.0,2.0,5.0,2.0,3.0,2.5,13.0,11.0,10.04987562112089
294,294,8.0,33.13608305156178,3.0,6.082762530298219,9.055385138137417,10.04987562112089,6.0,23.021728866442675,17.0,13.0,12.0,15.0,7.5,9.5,3.5,4.5,3.1622776601683795,3.0,2.5,13.0,10.0,10.198039027185569
295,295,5.0,31.064449134018133,2.23606797749979,5.0,8.06225774829855,9.055385138137417,10.0,22.02271554554524,17.029386365926403,14.5,13.0,15.0,4.0,8.0,2.0,1.0,4.123105625617661,4.123105625617661,4.0,12.0,9.0,10.04987562112089
296,296,5.0,32.14031735997639,3.0,6.082762530298219,9.055385138137417,9.055385138137417,9.0,23.021728866442675,17.0,14.5,12.0,15.0,4.5,9.5,2.5,1.5,4.123105625617661,4.123105625617661,4.0,12.0,8.0,10.04987562112089
297,297,2.0,31.25699921617557,3.0,6.082762530298219,8.06225774829855,8.06225774829855,11.045361017187261,22.090722034374522,16.0312195418814,15.0,12.0,16.0,3.0,8.0,1.0,0.0,4.123105625617661,4.0,4.0,14.0,9.0,11.180339887498949
298,298,8.06225774829855,31.25699921617557,3.0,6.0,8.06225774829855,9.055385138137417,9.055385138137417,26.076809620810597,20.09975124224178,16.0,14.0,18.0,7.0,10.0,3.0,3.0,4.123105625617661,5.0,5.0,14.0,9.0,11.180339887498949
299,299,8.0,30.4138126514911,5.0990195135927845,7.0710678118654755,9.055385138137417,10.04987562112089,7.0710678118654755,27.16615541441225,20.09975124224178,16.0,13.0,18.0,8.5,11.5,3.5,3.5,4.123105625617661,5.0990195135927845,5.0,14.0,8.0,11.180339887498949
300,300,8.06225774829855,28.635642126552707,5.0,6.082762530298219,8.06225774829855,10.198039027185569,6.082762530298219,25.179356624028344,19.1049731745428,15.0,12.0,18.0,9.0,10.0,2.0,4.0,5.0990195135927845,5.0990195135927845,5.0,14.0,9.0,10.198039027185569
301,301,1.0,29.614185789921695,5.0990195135927845,6.082762530298219,7.0710678118654755,8.246211251235321,8.06225774829855,20.223748416156685,14.142135623730951,13.5,11.0,17.0,6.0,6.0,1.0,1.0,5.0990195135927845,5.0990195135927845,5.0,14.0,8.0,10.198039027185569
302,302,0.0,30.4138126514911,5.0990195135927845,5.0990195135927845,7.280109889280518,8.246211251235321,7.0710678118654755,17.26267650163207,12.165525060596439,12.0,10.0,15.0,5.5,4.5,1.5,0.5,5.0990195135927845,5.0,5.0,14.0,8.0,10.198039027185569
303,303,1.0,30.4138126514911,5.0,6.082762530298219,8.246211251235321,8.246211251235321,6.324555320336759,18.24828759089466,12.165525060596439,11.5,10.0,15.0,6.5,5.5,1.5,0.5,5.0990195135927845,5.0990195135927845,5.0,14.0,9.0,11.180339887498949
304,304,2.23606797749979,29.427877939124322,6.0,6.0,8.06225774829855,9.219544457292887,6.082762530298219,20.09975124224178,14.142135623730951,13.0,11.0,16.0,7.5,6.5,0.5,1.5,5.0990195135927845,5.0,5.0,13.0,8.0,11.180339887498949
305,305,3.0,29.274562336608895,5.0990195135927845,6.082762530298219,7.0710678118654755,8.06225774829855,7.0710678118654755,21.213203435596427,15.132745950421556,13.5,12.0,16.0,7.0,7.0,0.0,2.0,5.0990195135927845,5.0,5.0,14.0,9.0,11.180339887498949
306,306,1.0,29.274562336608895,6.0,6.082762530298219,8.06225774829855,8.06225774829855,7.0710678118654755,20.09975124224178,14.035668847618199,13.5,11.0,15.0,6.0,7.0,0.0,0.0,5.0990195135927845,5.0,5.0,13.0,8.0,12.165525060596439
307,307,1.0,30.14962686336267,5.0,5.0990195135927845,8.06225774829855,8.06225774829855,7.280109889280518,18.24828759089466,13.152946437965905,12.5,12.0,15.0,6.5,4.5,1.5,1.5,5.0990195135927845,5.0990195135927845,5.0,13.0,9.0,11.045361017187261
308,308,1.0,30.14962686336267,5.0,6.0,7.0710678118654755,9.055385138137417,7.0710678118654755,18.110770276274835,12.165525060596439,12.0,11.0,14.0,5.5,5.5,1.5,0.5,5.0990195135927845,5.0,5.5,12.0,9.0,12.165525060596439
309,309,2.23606797749979,29.154759474226502,5.0,5.0,8.06225774829855,8.06225774829855,7.0710678118654755,19.1049731745428,14.142135623730951,13.0,12.0,15.0,6.5,5.5,0.5,1.5,5.0,6.0,5.5,13.0,9.0,10.04987562112089
310,310,5.0990195135927845,30.066592756745816,4.0,5.0,8.06225774829855,9.055385138137417,6.0,20.024984394500787,15.033296378372908,12.5,12.0,14.0,7.0,7.0,1.0,2.0,5.0990195135927845,5.0,5.0,12.0,9.0,12.165525060596439
311,311,4.0,31.064449134018133,5.0990195135927845,6.0,9.0,9.055385138137417,5.0,20.024984394500787,14.035668847618199,12.0,12.0,14.0,8.0,7.0,1.0,3.0,5.0,5.0,5.0,12.0,9.0,11.180339887498949
312,312,4.0,32.14031735997639,5.0,6.0,9.055385138137417,10.04987562112089,5.0990195135927845,20.024984394500787,14.035668847618199,12.0,11.0,14.0,7.5,7.5,0.5,2.5,5.0,5.0,5.0,13.0,10.0,11.045361017187261
313,313,1.0,30.066592756745816,6.0,6.082762530298219,9.055385138137417,9.0,5.0,18.027756377319946,12.0,11.5,12.0,14.0,8.0,5.0,2.0,2.0,5.0,5.0,5.0,12.0,10.0,11.045361017187261
314,314,0.0,30.01666203960727,5.0,6.0,8.0,9.0,5.0,16.0,10.0,10.0,11.0,12.0,6.5,4.5,1.5,1.5,5.0990195135927845,5.0,5.0,11.0,10.0,11.045361017187261
315,315,1.0,29.068883707497267,6.0,5.0990195135927845,8.06225774829855,9.0,4.0,16.0312195418814,11.0,10.5,11.0,13.0,8.0,4.0,2.0,2.0,6.0,5.0,5.0,12.0,11.0,10.0
316,316,2.0,30.01666203960727,5.0,6.082762530298219,8.0,9.0,5.0,18.027756377319946,12.0,11.0,12.0,13.0,7.5,5.5,0.5,2.5,5.0,5.0,5.0,11.0,11.0,11.0
317,317,4.123105625617661,29.0,5.0,6.0,9.0,9.0,4.0,19.026297590440446,13.038404810405298,11.0,13.0,13.0,9.0,6.0,0.0,4.0,5.0990195135927845,5.0,5.0,11.0,11.0,11.0
318,318,5.0990195135927845,29.0,5.0,6.0,9.0,10.0,4.123105625617661,20.0,14.0,11.5,13.0,13.0,9.0,7.0,1.0,4.0,5.0,5.0,5.0,11.0,12.0,10.0
319,319,6.0,29.0,6.0,6.0,9.0,10.0,4.0,22.0,16.0,13.0,14.0,14.0,10.0,8.0,1.0,4.0,6.0,6.082762530298219,6.0,11.0,11.0,11.045361017187261
320,320,7.0,30.01666203960727,5.0,6.0,9.0,9.055385138137417,4.0,22.0,16.0,12.5,14.0,13.0,9.5,8.5,1.5,4.5,3.0,3.0,3.0,11.0,12.0,10.0
321,321,7.0710678118654755,30.01666203960727,4.123105625617661,7.0710678118654755,9.0,10.0,5.0,23.021728866442675,16.0,12.5,15.0,14.0,9.5,8.5,1.5,5.5,2.0,2.0,2.0,11.0,13.0,11.045361017187261
322,322,7.0,30.01666203960727,5.0,6.0,10.0,10.0,4.123105625617661,22.02271554554524,16.0312195418814,12.5,14.0,13.0,9.5,8.5,2.5,4.5,2.23606797749979,2.0,1.5,10.0,12.0,10.0
323,323,6.0,30.066592756745816,5.0,7.0710678118654755,9.055385138137417,11.0,4.0,22.02271554554524,15.0,12.0,14.0,12.0,9.0,9.0,2.0,5.0,3.1622776601683795,3.0,3.0,10.0,13.0,11.0
324,324,6.0,30.066592756745816,5.0,6.082762530298219,9.0,10.04987562112089,4.0,21.02379604162864,15.0,12.0,14.0,12.0,9.0,8.0,2.0,4.0,3.0,2.23606797749979,2.5,10.0,13.0,11.0
325,325,6.082762530298219,30.066592756745816,4.123105625617661,6.082762530298219,9.0,10.04987562112089,5.0,21.02379604162864,15.0,12.0,14.0,12.0,8.0,8.0,2.0,4.0,2.0,3.0,2.5,10.0,13.0,10.04987562112089
326,326,6.0,30.066592756745816,4.0,5.0,10.0,11.045361017187261,5.0,20.0,15.0,12.0,14.0,12.0,8.0,7.0,1.0,4.0,3.0,4.0,4.0,10.0,12.0,10.0
327,327,5.0,30.066592756745816,4.0,6.0,10.0,10.04987562112089,5.0990195135927845,20.024984394500787,14.035668847618199,11.5,13.0,11.0,7.0,8.0,2.0,3.0,4.0,4.0,4.0,10.0,13.0,10.04987562112089
328,328,3.0,30.14962686336267,5.0,6.0,9.055385138137417,10.04987562112089,5.0990195135927845,19.026297590440446,13.038404810405298,11.5,13.0,10.0,6.5,7.5,1.5,2.5,5.0,4.0,4.5,10.0,13.0,12.041594578792296
329,329,3.0,30.14962686336267,4.123105625617661,5.0,9.055385138137417,10.04987562112089,5.0990195135927845,17.11724276862369,12.165525060596439,10.5,12.0,9.0,5.5,6.5,1.5,2.5,5.0,5.0,5.0,10.0,13.0,12.041594578792296
330,330,3.0,30.066592756745816,4.123105625617661,6.0,9.0,10.0,5.0,18.027756377319946,12.041594578792296,10.5,12.0,10.0,6.0,7.0,1.0,2.0,5.0,5.0990195135927845,5.0,11.0,14.0,11.045361017187261
331,331,0.0,30.14962686336267,5.0990195135927845,7.0,9.055385138137417,10.04987562112089,5.0,17.029386365926403,10.04987562112089,10.0,13.0,10.0,6.5,5.5,1.5,2.5,5.0,5.0990195135927845,5.0,10.0,13.0,13.038404810405298
332,332,1.0,31.064449134018133,4.0,6.0,8.0,9.055385138137417,6.082762530298219,17.029386365926403,11.045361017187261,10.5,12.0,10.0,5.0,6.0,0.0,1.0,5.0,6.082762530298219,5.5,11.0,14.0,13.038404810405298
333,333,1.0,29.068883707497267,4.0,6.0,8.0,9.055385138137417,5.0990195135927845,16.0312195418814,10.04987562112089,9.5,11.0,9.0,5.0,6.0,0.0,1.0,5.0,5.0,5.5,11.0,14.0,14.0
334,334,0.0,29.068883707497267,4.0,6.082762530298219,8.06225774829855,8.06225774829855,6.0,16.0312195418814,10.0,10.0,11.0,9.0,4.0,6.0,0.0,1.0,5.0990195135927845,5.0990195135927845,5.0,12.0,14.0,13.0
335,335,0.0,30.14962686336267,4.0,7.0,9.055385138137417,8.0,5.0990195135927845,16.0312195418814,9.055385138137417,9.0,11.0,8.0,4.5,6.5,0.5,1.5,6.082762530298219,5.0,5.5,12.0,13.0,14.0
336,336,1.0,30.01666203960727,4.0,6.0,9.055385138137417,9.0,6.082762530298219,17.029386365926403,11.045361017187261,10.5,11.0,10.0,4.5,6.5,0.5,1.5,5.0,5.0,5.5,12.0,12.0,13.0
337,337,1.0,29.017236257093817,4.0,6.0,8.06225774829855,9.055385138137417,6.0,17.0,11.0,10.5,11.0,10.0,4.5,6.5,0.5,1.5,5.0,5.0,5.0,13.0,12.0,14.0
338,338,2.0,28.0178514522438,4.0,6.0,8.0,9.055385138137417,6.0,18.0,12.0,11.0,11.0,10.0,4.5,7.5,1.5,0.5,6.082762530298219,5.0990195135927845,5.0,13.0,13.0,13.0
339,339,2.0,29.017236257093817,4.0,6.0,8.0,8.06225774829855,6.0,18.0,12.0,11.0,11.0,10.0,4.5,7.5,1.5,0.5,5.0990195135927845,5.0,5.5,12.0,12.0,14.0
340,340,3.0,29.017236257093817,4.0,6.0,7.0,9.055385138137417,6.0,19.0,13.0,11.5,12.0,11.0,5.5,7.5,1.5,1.5,5.0990195135927845,5.0990195135927845,5.0,12.0,12.0,13.0
341,341,3.0,29.017236257093817,5.0,6.0,8.06225774829855,10.04987562112089,5.0,19.0,13.0,11.5,12.0,11.0,6.5,7.5,1.5,2.5,6.0,6.0,5.5,12.0,13.0,13.0
342,342,5.0,31.064449134018133,4.0,6.0,9.0,9.0,6.0,21.0,15.0,12.5,13.0,11.0,6.0,9.0,2.0,2.0,6.082762530298219,6.082762530298219,6.0,12.0,13.0,14.0
343,343,5.0,32.01562118716424,5.0,6.0,9.0,9.055385138137417,5.0990195135927845,21.02379604162864,15.033296378372908,12.5,13.0,12.0,7.5,8.5,1.5,2.5,6.082762530298219,5.0990195135927845,5.5,12.0,13.0,13.0
344,344,6.0,32.01562118716424,4.0,6.0,9.0,10.04987562112089,5.0990195135927845,21.02379604162864,15.033296378372908,12.0,13.0,12.0,7.5,8.5,2.5,3.5,6.082762530298219,5.0990195135927845,5.5,12.0,13.0,13.038404810405298
345,345,6.0,31.064449134018133,4.0,6.0,10.0,10.04987562112089,5.0,21.0,15.0,12.0,14.0,12.0,8.0,8.0,2.0,4.0,6.0,5.0,5.5,12.0,13.0,13.0
346,346,5.0,31.016124838541646,4.0,7.0,10.04987562112089,10.0,6.0,22.0,15.0,12.5,14.0,13.0,7.5,8.5,1.5,4.5,6.0,6.0,6.0,13.0,13.0,13.0
347,347,6.0,32.0624390837628,4.0,6.0,9.0,10.04987562112089,5.0,21.0,15.0,12.0,14.0,12.0,8.0,8.0,2.0,4.0,6.0,6.0,5.5,12.0,13.0,13.038404810405298
348,348,6.0,31.016124838541646,3.0,6.0,9.0,10.04987562112089,6.0,21.0,15.0,12.0,14.0,13.0,7.5,7.5,1.5,4.5,6.082762530298219,5.0990195135927845,5.0,12.0,12.0,13.0
349,349,4.0,32.01562118716424,4.0,7.0,10.0,10.0,6.0,21.0,14.0,12.0,13.0,12.0,6.5,8.5,1.5,2.5,6.0,6.082762530298219,5.5,11.0,13.0,14.035668847618199
350,350,5.0990195135927845,31.016124838541646,4.0,6.0,9.0,9.055385138137417,5.0990195135927845,20.0,14.0,11.5,13.0,12.0,7.5,7.5,1.5,3.5,5.0,4.123105625617661,4.0,12.0,13.0,14.0
351,351,4.123105625617661,32.0,4.0,6.0,9.0,10.0,6.0,20.024984394500787,14.035668847618199,12.0,13.0,13.0,7.0,7.0,1.0,3.0,2.23606797749979,2.0,2.0,12.0,13.0,14.0
352,352,5.0,32.0,4.0,6.0,9.0,9.0,6.0,21.0,15.0,12.5,13.0,13.0,7.0,8.0,1.0,3.0,3.0,3.0,2.5,12.0,12.0,13.0
353,353,7.0,32.01562118716424,4.0,7.0,9.0,9.0,6.0,24.0,17.0,13.5,15.0,14.0,8.5,9.5,2.5,4.5,2.0,3.0,3.0,13.0,13.0,13.0
354,354,10.0,31.0,4.0,7.0,10.0,11.0,6.0,27.0,20.0,15.0,16.0,16.0,10.0,11.0,4.0,6.0,2.0,2.0,2.0,12.0,12.0,13.038404810405298
355,355,11.045361017187261,31.0,4.0,7.0,9.0,11.045361017187261,6.0,28.0178514522438,21.02379604162864,15.5,17.0,17.0,11.0,11.0,4.0,7.0,3.0,3.1622776601683795,3.0,13.0,12.0,13.038404810405298
356,356,9.0,29.0,5.0990195135927845,6.0,9.0,10.0,6.0,26.019223662515376,20.024984394500787,15.5,17.0,17.0,11.0,9.0,2.0,6.0,3.0,3.0,3.0,12.0,12.0,13.038404810405298
357,357,4.123105625617661,30.0,5.0,6.0,8.0,9.0,6.0,21.02379604162864,15.033296378372908,13.0,16.0,16.0,10.0,5.0,1.0,5.0,3.0,4.123105625617661,3.5,11.0,12.0,13.038404810405298
358,358,4.0,30.0,5.0,5.0,8.0,9.0,6.0,20.0,15.0,13.0,16.0,16.0,10.0,4.0,1.0,5.0,3.0,3.1622776601683795,3.0,11.0,13.0,14.035668847618199
359,359,6.0,31.016124838541646,5.0,6.0,8.06225774829855,9.0,6.082762530298219,23.021728866442675,17.029386365926403,14.0,17.0,16.0,10.5,6.5,0.5,5.5,3.1622776601683795,3.0,3.0,10.0,12.0,14.0
360,360,11.0,32.0624390837628,4.0,5.0,9.0,11.045361017187261,7.0,27.0,22.0,16.5,19.0,17.0,11.0,9.0,4.0,7.0,3.0,4.123105625617661,4.0,10.0,13.0,13.038404810405298
361,361,11.045361017187261,32.14031735997639,5.0990195135927845,5.0990195135927845,9.055385138137417,10.04987562112089,6.0,27.018512172212592,22.0,16.5,20.0,17.0,12.5,8.5,3.5,8.5,4.123105625617661,4.0,4.0,10.0,13.0,13.038404810405298
362,362,9.0,34.132096331752024,4.123105625617661,6.0,9.055385138137417,10.04987562112089,7.0,26.019223662515376,20.024984394500787,15.5,19.0,16.0,10.5,8.5,3.5,6.5,3.1622776601683795,4.0,4.0,9.0,13.0,13.038404810405298
363,363,6.0,34.23448553724738,5.0,5.0,10.04987562112089,11.180339887498949,6.082762530298219,22.02271554554524,17.029386365926403,14.0,18.0,14.0,10.0,6.0,1.0,6.0,4.123105625617661,4.0,3.5,9.0,14.0,14.035668847618199
364,364,4.0,33.24154027718932,5.0,6.082762530298219,9.055385138137417,10.04987562112089,6.0,21.02379604162864,15.0,13.0,17.0,13.0,9.0,6.0,1.0,5.0,4.123105625617661,4.123105625617661,4.0,8.0,14.0,13.152946437965905
365,365,5.0,34.36568055487916,5.0,5.0990195135927845,10.198039027185569,10.198039027185569,5.0990195135927845,20.09975124224178,15.033296378372908,12.5,17.0,12.0,9.5,5.5,0.5,5.5,4.123105625617661,4.0,4.0,9.0,15.0,13.038404810405298
366,366,5.0,32.38826948140329,5.0,6.082762530298219,9.055385138137417,10.04987562112089,5.0990195135927845,21.095023109728988,15.033296378372908,12.5,17.0,12.0,9.5,6.5,1.5,5.5,4.123105625617661,4.123105625617661,3.5,9.0,15.0,13.152946437965905
367,367,8.0,31.400636936215164,5.0,6.082762530298219,9.219544457292887,10.198039027185569,5.0990195135927845,24.08318915758459,18.027756377319946,14.0,19.0,14.0,11.5,7.5,2.5,7.5,3.1622776601683795,3.0,3.5,9.0,15.0,12.165525060596439
368,368,10.0,31.400636936215164,4.123105625617661,6.082762530298219,10.04987562112089,10.198039027185569,5.0,25.079872407968907,19.026297590440446,14.0,19.0,14.0,11.5,8.5,3.5,7.5,4.0,4.0,3.5,9.0,15.0,14.142135623730951
369,369,8.06225774829855,32.2490309931942,5.0,6.0,9.055385138137417,11.180339887498949,5.0,24.020824298928627,18.027756377319946,14.0,18.0,14.0,11.0,8.0,2.0,7.0,4.123105625617661,4.123105625617661,4.0,10.0,15.0,14.142135623730951
370,370,4.0,31.25699921617557,5.0990195135927845,6.0,10.04987562112089,11.045361017187261,5.0,20.024984394500787,14.035668847618199,12.0,17.0,13.0,10.0,5.0,1.0,6.0,4.123105625617661,4.123105625617661,4.0,10.0,15.0,13.152946437965905
371,371,2.0,32.2490309931942,5.0,6.0,10.04987562112089,10.04987562112089,4.123105625617661,17.029386365926403,11.045361017187261,10.0,15.0,11.0,9.0,4.0,2.0,4.0,4.0,4.123105625617661,4.0,10.0,15.0,14.035668847618199
372,372,0.0,32.14031735997639,6.0,6.0,9.055385138137417,10.04987562112089,4.123105625617661,16.0312195418814,10.04987562112089,10.0,14.0,11.0,8.5,3.5,2.5,3.5,4.0,4.0,4.0,11.0,16.0,13.038404810405298
373,373,3.0,31.144823004794873,5.0,6.0,10.0,10.04987562112089,4.0,18.0,12.0,10.5,15.0,12.0,9.5,4.5,1.5,4.5,4.0,4.0,4.0,11.0,15.0,15.033296378372908
374,374,4.0,29.068883707497267,5.0,6.0,8.0,9.055385138137417,6.082762530298219,21.02379604162864,15.033296378372908,13.0,15.0,13.0,8.0,7.0,1.0,3.0,4.0,4.123105625617661,4.0,12.0,16.0,14.035668847618199
375,375,2.0,29.068883707497267,5.0,6.082762530298219,7.0,8.06225774829855,6.0,19.026297590440446,13.0,12.0,14.0,12.0,7.0,6.0,0.0,2.0,4.0,5.0,5.0,12.0,15.0,14.035668847618199
376,376,1.0,30.066592756745816,5.0,5.0,8.0,8.0,6.0,17.0,12.0,11.5,14.0,12.0,7.0,4.0,2.0,2.0,4.0,5.0,5.0,12.0,15.0,13.038404810405298
377,377,0.0,31.064449134018133,5.0990195135927845,5.0,7.0710678118654755,8.0,7.0,17.029386365926403,12.041594578792296,12.0,14.0,12.0,6.0,4.0,1.0,2.0,4.0,4.123105625617661,4.5,12.0,15.0,13.038404810405298
378,378,0.0,30.01666203960727,5.0,6.0,8.0,9.055385138137417,7.0,18.0,12.0,12.0,14.0,13.0,6.5,4.5,1.5,1.5,5.0,4.123105625617661,4.5,12.0,15.0,13.0
379,379,1.0,32.01562118716424,6.0,6.0,9.0,9.055385138137417,7.0,20.0,14.0,13.5,15.0,14.0,7.5,5.5,0.5,2.5,5.0,4.0,4.5,12.0,14.0,14.035668847618199
380,380,4.0,31.016124838541646,5.0,6.0,8.06225774829855,9.055385138137417,7.0,22.0,16.0,14.0,16.0,15.0,8.5,6.5,0.5,4.5,4.0,4.0,4.5,12.0,14.0,13.038404810405298
381,381,5.0,32.01562118716424,5.0,7.0,9.0,10.0,6.0,23.0,16.0,13.5,16.0,15.0,9.5,7.5,0.5,4.5,5.0,5.0,5.0,12.0,13.0,13.038404810405298
382,382,6.0,32.0624390837628,5.0,6.0,9.0,10.0,6.0,23.0,17.0,14.0,17.0,15.0,10.0,7.0,1.0,5.0,5.0,4.0,4.5,12.0,14.0,14.0
383,383,6.0,33.015148038438355,5.0,7.0,9.0,10.04987562112089,5.0,23.0,16.0,13.0,16.0,15.0,10.5,7.5,0.5,5.5,5.0,5.0,5.0,12.0,14.0,13.038404810405298
384,384,6.0,33.06055050963308,5.0,6.0,10.0,10.04987562112089,6.0,23.0,17.0,14.0,17.0,15.0,10.0,7.0,1.0,5.0,5.0,5.0,5.0,11.0,14.0,13.0
385,385,6.0,32.01562118716424,5.0,6.0,8.0,9.055385138137417,5.0,22.0,16.0,13.0,16.0,15.0,10.5,6.5,0.5,5.5,5.0990195135927845,5.0990195135927845,5.0,11.0,13.0,14.035668847618199
386,386,6.0,32.0624390837628,5.0,6.082762530298219,9.055385138137417,10.04987562112089,6.0,23.021728866442675,17.0,14.0,17.0,15.0,10.0,7.0,1.0,6.0,4.0,4.0,4.5,12.0,14.0,14.0
387,387,6.0,32.0624390837628,5.0,6.0,9.055385138137417,10.04987562112089,6.082762530298219,23.021728866442675,17.029386365926403,14.0,17.0,15.0,10.0,7.0,1.0,6.0,4.0,4.0,4.5,11.0,13.0,15.033296378372908
388,388,6.082762530298219,31.064449134018133,5.0,6.0,9.0,10.04987562112089,5.0,22.02271554554524,16.0312195418814,13.0,17.0,15.0,11.0,6.0,1.0,6.0,5.0,5.0,5.0,11.0,14.0,13.038404810405298
389,389,6.0,33.06055050963308,5.0,6.0,9.0,10.04987562112089,5.0,22.0,16.0,13.0,17.0,15.0,11.0,6.0,0.0,6.0,5.0,5.0,5.0,12.0,15.0,13.038404810405298
390,390,6.0,33.06055050963308,5.0,6.082762530298219,9.0,10.04987562112089,6.0,23.021728866442675,17.0,14.0,17.0,15.0,10.0,7.0,1.0,5.0,5.0,5.0,5.0,12.0,15.0,13.038404810405298
391,391,5.0,32.0624390837628,5.0,6.0,9.0,9.055385138137417,6.0,22.0,16.0,13.5,16.0,14.0,9.0,7.0,1.0,4.0,5.0,5.0,5.0,11.0,14.0,13.038404810405298
392,392,1.0,31.144823004794873,6.0,6.0,8.06225774829855,8.06225774829855,6.0,19.0,13.0,12.5,16.0,13.0,8.5,4.5,1.5,3.5,5.0,5.0,5.0,11.0,14.0,13.038404810405298
393,393,1.0,32.0624390837628,5.0,5.0,8.0,9.055385138137417,6.0,17.0,12.0,11.5,15.0,13.0,8.0,3.0,2.0,3.0,4.0,4.0,4.0,11.0,13.0,13.038404810405298
394,394,1.0,32.0624390837628,4.0,5.0,8.0,9.055385138137417,7.0,17.0,12.0,11.5,15.0,13.0,7.0,3.0,2.0,3.0,5.0,5.0,5.0,11.0,14.0,13.0
395,395,1.0,32.0624390837628,4.0,5.0,8.0,9.0,7.0710678118654755,17.029386365926403,12.041594578792296,11.5,16.0,14.0,8.0,2.0,3.0,4.0,5.0,5.0,5.0,11.0,14.0,13.0
396,396,2.0,31.064449134018133,5.0,6.0,8.0,9.055385138137417,7.0,20.0,14.0,13.0,17.0,15.0,9.0,4.0,2.0,4.0,4.0,4.123105625617661,4.0,11.0,14.0,13.0
397,397,10.0,30.01666203960727,5.0,5.0,9.055385138137417,9.0,6.0,26.0,21.0,16.0,19.0,18.0,12.5,7.5,1.5,7.5,3.1622776601683795,4.0,3.5,12.0,14.0,13.038404810405298
398,398,10.04987562112089,32.0624390837628,6.0,6.082762530298219,9.0,10.04987562112089,6.082762530298219,28.0178514522438,22.0,17.0,20.0,18.0,13.0,9.0,3.0,7.0,2.0,3.0,2.5,13.0,15.0,13.0
399,399,9.0,32.0624390837628,5.0,7.0,9.055385138137417,10.04987562112089,7.0,28.0,21.0,16.5,19.0,17.0,11.0,10.0,3.0,6.0,2.0,2.0,2.0,12.0,14.0,14.0
400,400,9.0,33.06055050963308,5.0990195135927845,7.0,9.0,10.04987562112089,6.0,27.018512172212592,20.024984394500787,15.5,18.0,16.0,11.0,10.0,3.0,6.0,2.23606797749979,3.0,3.0,12.0,14.0,13.0
401,401,9.0,32.01562118716424,5.0,6.0,10.04987562112089,10.04987562112089,6.0,26.0,20.0,15.5,17.0,16.0,10.5,9.5,3.5,6.5,3.0,2.0,2.0,12.0,14.0,13.0
402,402,8.0,33.015148038438355,5.0,6.0,10.0,11.045361017187261,6.082762530298219,25.019992006393608,19.026297590440446,15.0,16.0,15.0,9.5,9.5,3.5,4.5,3.0,2.23606797749979,2.0,12.0,15.0,13.038404810405298
403,403,7.0710678118654755,33.06055050963308,4.123105625617661,7.0710678118654755,9.0,10.0,7.0,25.019992006393608,18.0,14.5,16.0,14.0,8.0,10.0,3.0,4.0,2.0,3.1622776601683795,3.0,13.0,16.0,13.0
404,404,9.0,33.06055050963308,4.0,6.0,9.055385138137417,10.0,7.0710678118654755,26.019223662515376,20.024984394500787,15.5,17.0,15.0,9.0,10.0,3.0,5.0,3.0,3.1622776601683795,3.0,14.0,17.0,13.0
405,405,8.0,33.06055050963308,4.0,5.0,9.0,10.0,6.0,23.0,18.0,14.0,16.0,14.0,9.0,8.0,3.0,5.0,4.0,3.0,3.5,14.0,17.0,14.0
406,406,5.0,32.0,5.0,7.0,8.0,8.0,7.0,24.0,17.0,14.5,16.0,16.0,9.0,8.0,1.0,4.0,4.123105625617661,4.0,4.0,15.0,17.0,16.0
407,407,5.0,33.015148038438355,4.0,6.0,10.0,11.0,8.0,23.0,17.0,14.5,14.0,13.0,5.5,9.5,2.5,1.5,4.123105625617661,4.123105625617661,4.0,16.0,17.0,12.041594578792296
408,412,6.0,32.0,4.0,6.0,9.0,9.0,8.0,24.0,18.0,15.0,15.0,15.0,7.0,9.0,3.0,3.0,5.0,3.0,3.5,15.0,9.0,13.341664064126334
409,413,7.0,31.0,3.0,5.0,8.0,9.0,9.0,24.0,19.0,15.5,16.0,16.0,7.0,8.0,2.0,4.0,5.0,5.0,4.5,16.0,11.0,15.132745950421556
410,414,8.0,31.016124838541646,4.0,6.0,9.0,9.0,8.0,26.0,20.0,16.0,17.0,16.0,8.5,9.5,2.5,4.5,5.0,5.0990195135927845,5.5,14.0,13.0,17.0
411,415,5.0,30.01666203960727,5.0,7.0,8.0,9.055385138137417,9.0,26.0,19.0,16.5,17.0,16.0,7.5,9.5,2.5,2.5,6.0,6.0,6.0,14.0,15.0,18.027756377319946
412,416,5.0,31.0,5.0,7.0,9.0,10.0,9.0,26.0,19.0,16.5,16.0,16.0,7.0,10.0,3.0,2.0,3.0,4.0,4.0,14.0,16.0,17.0
413,417,5.0,31.0,5.0,6.0,8.0,10.0,9.0,25.0,19.0,16.5,16.0,16.0,7.0,9.0,2.0,2.0,3.1622776601683795,3.1622776601683795,3.0,14.0,16.0,15.033296378372908
414,418,4.123105625617661,31.0,5.0,7.0,9.0,9.0,7.0,23.021728866442675,16.0312195418814,14.0,15.0,15.0,8.0,8.0,1.0,3.0,2.23606797749979,2.23606797749979,2.0,14.0,16.0,16.0312195418814
415,419,3.1622776601683795,30.0,5.0,6.0,7.0,8.0,8.06225774829855,22.0,16.0,14.5,15.0,15.0,7.0,7.0,0.0,2.0,3.1622776601683795,3.0,3.0,14.0,15.0,14.035668847618199
416,420,4.0,30.0,5.0,6.0,9.055385138137417,9.0,7.0,22.0,16.0,14.0,15.0,15.0,8.0,7.0,1.0,3.0,4.0,4.123105625617661,4.0,13.0,15.0,15.0
417,421,5.0,31.016124838541646,4.0,6.0,9.0,9.0,7.0,22.0,16.0,13.5,15.0,14.0,7.5,7.5,0.5,3.5,4.123105625617661,4.0,4.0,13.0,15.0,15.033296378372908
418,422,2.0,31.016124838541646,5.0,7.0,8.0,10.0,8.0,22.0,15.0,14.0,15.0,14.0,6.5,7.5,0.5,1.5,5.0,5.0,5.0,13.0,15.0,15.0
419,423,4.0,31.016124838541646,5.0,7.0,9.0,9.0,6.0,22.0,15.0,13.0,15.0,14.0,8.5,7.5,0.5,3.5,5.0,5.0,5.5,14.0,15.0,14.0
420,424,5.0,31.0,5.0,6.0,8.0,9.0,6.082762530298219,22.02271554554524,16.0312195418814,13.5,15.0,15.0,9.0,7.0,0.0,4.0,5.0,6.082762530298219,5.5,14.0,15.0,14.0
421,425,5.0,31.016124838541646,5.0,7.0,8.0,10.0,6.0,23.0,16.0,13.5,15.0,14.0,8.5,8.5,1.5,3.5,6.082762530298219,5.0,5.0,13.0,14.0,13.038404810405298
422,426,4.123105625617661,30.01666203960727,5.0,6.0,9.0,9.0,9.0,24.020824298928627,18.027756377319946,16.0,16.0,15.0,6.5,8.5,1.5,2.5,5.0,6.0,6.0,14.0,15.0,14.0
423,427,6.082762530298219,29.0,4.0,7.0,9.0,10.04987562112089,8.0,25.019992006393608,18.027756377319946,15.0,16.0,16.0,8.0,9.0,2.0,4.0,6.0,6.0,6.0,13.0,14.0,14.0
424,428,5.0990195135927845,30.0,5.0,7.0,8.0,9.0,7.0,24.020824298928627,17.029386365926403,14.5,15.0,15.0,8.0,9.0,1.0,3.0,6.082762530298219,6.0,6.0,14.0,15.0,14.0
425,429,4.0,29.017236257093817,6.082762530298219,7.0,9.0,9.0,5.0990195135927845,22.0,15.0,13.0,15.0,16.0,10.5,6.5,0.5,4.5,6.0,6.082762530298219,6.0,14.0,14.0,15.0
426,430,4.123105625617661,28.071337695236398,6.0,7.0,7.0,8.06225774829855,4.0,21.02379604162864,14.035668847618199,12.0,13.0,15.0,10.0,7.0,0.0,4.0,6.082762530298219,6.0,5.5,15.0,13.0,15.033296378372908
427,431,2.0,28.160255680657446,6.082762530298219,7.0710678118654755,9.0,9.055385138137417,5.0,20.09975124224178,13.038404810405298,12.0,13.0,16.0,9.5,5.5,2.5,3.5,5.0,5.0,5.5,15.0,12.0,14.0
428,432,1.0,27.294688127912362,6.082762530298219,7.0710678118654755,7.0710678118654755,8.06225774829855,5.0990195135927845,19.235384061671343,12.165525060596439,11.5,12.0,16.0,9.0,5.0,2.0,2.0,5.0,6.0,6.0,16.0,12.0,14.142135623730951
429,433,1.0,27.459060435491963,6.082762530298219,6.082762530298219,7.0710678118654755,8.06225774829855,5.0990195135927845,18.24828759089466,12.165525060596439,11.5,11.0,16.0,8.5,4.5,2.5,2.5,5.0990195135927845,5.0990195135927845,5.0,16.0,10.0,14.142135623730951
430,434,2.0,28.635642126552707,6.082762530298219,6.082762530298219,7.0710678118654755,8.06225774829855,6.082762530298219,20.223748416156685,14.142135623730951,13.0,12.0,18.0,9.0,5.0,3.0,3.0,5.0990195135927845,6.0,6.0,17.0,10.0,13.341664064126334
431,435,5.0990195135927845,27.892651361962706,5.0,6.082762530298219,8.246211251235321,8.246211251235321,5.385164807134504,21.37755832643195,15.297058540778355,12.5,12.0,19.0,10.5,5.5,2.5,4.5,6.082762530298219,6.082762530298219,6.0,18.0,8.0,12.36931687685298
432,436,5.0,29.120439557122072,5.0990195135927845,6.324555320336759,7.280109889280518,8.54400374531753,6.324555320336759,22.561028345356956,16.278820596099706,13.5,12.0,20.0,10.0,6.0,2.0,4.0,6.082762530298219,5.0990195135927845,5.0,18.0,7.0,13.601470508735444
433,437,5.0990195135927845,29.120439557122072,5.0990195135927845,6.082762530298219,7.280109889280518,8.54400374531753,5.385164807134504,21.587033144922902,15.524174696260024,12.5,11.0,19.0,10.0,6.0,2.0,4.0,5.0990195135927845,5.0990195135927845,5.0,19.0,7.0,13.601470508735444
434,438,4.47213595499958,29.732137494637012,6.082762530298219,7.0710678118654755,8.246211251235321,8.54400374531753,4.47213595499958,21.840329667841555,14.866068747318506,12.0,10.0,20.0,11.0,6.0,2.0,4.0,4.123105625617661,5.0990195135927845,5.0,20.0,7.0,12.649110640673518
435,439,4.123105625617661,29.410882339705484,6.082762530298219,7.280109889280518,8.246211251235321,8.54400374531753,4.47213595499958,21.840329667841555,14.560219778561036,12.0,10.0,19.0,10.5,6.5,1.5,3.5,4.47213595499958,5.0990195135927845,4.5,19.0,6.0,13.601470508735444
436,440,4.123105625617661,29.732137494637012,6.082762530298219,6.324555320336759,7.615773105863909,8.54400374531753,5.385164807134504,21.840329667841555,15.524174696260024,13.0,10.0,20.0,10.0,6.0,2.0,3.0,3.1622776601683795,3.1622776601683795,3.0,19.0,7.0,13.601470508735444
437,441,3.0,29.410882339705484,5.0990195135927845,7.280109889280518,7.615773105863909,8.54400374531753,5.0,19.924858845171276,12.649110640673518,10.5,9.0,18.0,9.5,5.5,2.5,2.5,3.605551275463989,3.605551275463989,3.0,18.0,6.0,12.649110640673518
438,442,1.4142135623730951,29.410882339705484,5.0990195135927845,6.324555320336759,8.246211251235321,9.219544457292887,5.0990195135927845,17.72004514666935,11.40175425099138,10.5,9.0,18.0,8.5,3.5,3.5,2.5,3.1622776601683795,4.47213595499958,3.5,19.0,7.0,13.601470508735444
439,443,1.4142135623730951,29.120439557122072,5.0,6.082762530298219,8.246211251235321,9.219544457292887,5.385164807134504,17.46424919657298,11.40175425099138,10.5,10.0,18.0,9.0,3.0,5.0,3.0,2.23606797749979,3.605551275463989,2.5,18.0,7.0,12.649110640673518
440,444,1.0,29.614185789921695,5.0990195135927845,6.324555320336759,9.219544457292887,9.219544457292887,4.47213595499958,16.76305461424021,10.44030650891055,9.5,10.0,16.0,9.0,3.0,4.0,3.0,3.1622776601683795,4.123105625617661,3.5,17.0,8.0,14.142135623730951
441,445,1.4142135623730951,28.861739379323623,5.0990195135927845,7.0710678118654755,8.246211251235321,9.219544457292887,5.0990195135927845,18.439088914585774,11.40175425099138,10.5,10.0,17.0,8.5,4.5,3.5,2.5,4.123105625617661,3.1622776601683795,3.5,17.0,9.0,13.341664064126334
442,446,2.0,29.427877939124322,5.0990195135927845,7.0710678118654755,9.219544457292887,9.055385138137417,6.082762530298219,20.223748416156685,13.152946437965905,12.0,12.0,17.0,8.5,5.5,2.5,2.5,5.0990195135927845,4.123105625617661,4.0,16.0,9.0,13.152946437965905
443,447,3.0,27.459060435491963,5.0990195135927845,6.082762530298219,7.0710678118654755,8.06225774829855,6.082762530298219,20.223748416156685,14.142135623730951,12.5,12.0,17.0,8.5,5.5,1.5,2.5,5.0990195135927845,5.0990195135927845,5.0,15.0,10.0,13.152946437965905
444,448,1.4142135623730951,28.071337695236398,5.0,6.0,6.082762530298219,8.0,8.06225774829855,20.09975124224178,14.142135623730951,13.5,14.0,16.0,7.0,5.0,2.0,2.0,5.0990195135927845,5.0990195135927845,5.0,14.0,10.0,14.035668847618199
445,449,1.0,30.066592756745816,5.0990195135927845,5.0,7.0710678118654755,8.0,8.0,19.026297590440446,14.035668847618199,13.5,14.0,16.0,7.0,4.0,2.0,2.0,5.0990195135927845,5.0,4.5,14.0,11.0,14.035668847618199
446,450,5.0990195135927845,30.01666203960727,5.0,5.0,8.0,9.055385138137417,7.0,22.02271554554524,17.029386365926403,14.5,15.0,16.0,8.5,6.5,0.5,3.5,5.0990195135927845,5.0,5.0,14.0,12.0,13.038404810405298
447,451,6.0,32.0,5.0,7.0,8.0,10.04987562112089,6.0,24.0,17.0,14.0,16.0,16.0,10.0,8.0,1.0,5.0,5.0,5.0,5.0,13.0,12.0,14.0
448,452,6.0,31.0,5.0,6.0,9.0,10.0,5.0,22.0,16.0,13.0,15.0,15.0,10.0,7.0,0.0,5.0,5.0,5.0,5.0,13.0,13.0,13.0
449,453,5.0,32.01562118716424,5.0,6.0,9.0,10.04987562112089,5.0,21.0,15.0,12.5,14.0,13.0,8.5,7.5,1.5,3.5,5.0,5.0,5.0,12.0,13.0,12.0
450,454,5.0,30.0,5.0,6.0,9.0,10.04987562112089,5.0,21.0,15.0,12.5,14.0,14.0,9.0,7.0,0.0,4.0,5.0,5.0,5.0,12.0,13.0,12.0
451,455,5.0,31.0,5.0,7.0,8.0,10.0,5.0,22.0,15.0,12.5,14.0,14.0,9.0,8.0,0.0,4.0,6.0,5.0,5.0,13.0,13.0,13.038404810405298
452,456,6.0,31.016124838541646,5.0,7.0,9.0,10.0,5.0,23.0,16.0,13.0,15.0,14.0,9.5,8.5,1.5,4.5,5.0,5.0,5.0,13.0,13.0,13.038404810405298
453,457,5.0,31.0,5.0,6.0,8.0,9.0,5.0,21.0,15.0,12.5,14.0,14.0,9.0,7.0,1.0,4.0,5.0,4.0,4.0,13.0,13.0,13.0
454,458,5.0990195135927845,29.017236257093817,5.0,6.0,8.0,9.0,5.0,21.02379604162864,15.033296378372908,12.5,14.0,15.0,9.5,6.5,0.5,4.5,5.0,6.0,5.5,14.0,13.0,13.0
455,459,5.0990195135927845,29.0,6.0,7.0,8.0,9.0,4.0,22.02271554554524,15.033296378372908,12.5,14.0,14.0,10.0,8.0,1.0,4.0,5.0,5.0,5.0,14.0,13.0,13.0
456,460,6.0,28.0,6.082762530298219,6.0,7.0710678118654755,8.0,5.0,23.021728866442675,17.029386365926403,14.0,15.0,15.0,10.0,8.0,1.0,4.0,5.0,5.0,5.5,13.0,13.0,13.038404810405298
457,461,6.0,29.017236257093817,6.0,7.0710678118654755,8.0,9.0,5.0,24.020824298928627,17.0,14.0,15.0,16.0,10.5,8.5,1.5,4.5,6.0,5.0,5.0,14.0,13.0,13.0
458,462,8.06225774829855,29.017236257093817,5.0,6.0,8.0,9.055385138137417,6.0,25.019992006393608,19.026297590440446,15.0,16.0,17.0,10.5,8.5,1.5,5.5,6.082762530298219,5.0,5.5,14.0,13.0,13.0
459,463,6.0,29.017236257093817,6.082762530298219,6.0,9.0,10.0,6.082762530298219,24.0,18.0,15.0,15.0,16.0,9.5,8.5,1.5,4.5,5.0,6.0,5.5,15.0,13.0,14.035668847618199
460,464,6.0,30.01666203960727,5.0990195135927845,6.0,9.055385138137417,10.0,5.0990195135927845,22.0,16.0,13.0,14.0,15.0,9.5,7.5,0.5,5.5,6.082762530298219,6.0,6.0,15.0,13.0,14.035668847618199
461,465,5.0,30.0,5.0,6.082762530298219,8.0,9.0,5.0,21.02379604162864,15.0,12.5,14.0,14.0,9.0,7.0,1.0,4.0,6.0,5.0,5.5,15.0,13.0,14.035668847618199
462,466,3.1622776601683795,32.01562118716424,6.0,6.0,9.0,10.0,4.0,19.026297590440446,13.038404810405298,11.5,12.0,13.0,8.5,6.5,0.5,2.5,5.0,5.0,5.0,15.0,13.0,15.033296378372908
463,467,3.0,29.017236257093817,5.0,7.0710678118654755,9.0,10.0,4.123105625617661,19.0,12.041594578792296,10.5,11.0,12.0,7.5,7.5,0.5,2.5,4.123105625617661,5.0990195135927845,5.0,15.0,13.0,15.0
464,468,2.0,31.0,5.0,7.0710678118654755,10.0,10.0,5.0,19.026297590440446,12.0,11.0,12.0,12.0,7.0,7.0,0.0,3.0,3.0,3.0,2.5,15.0,13.0,14.035668847618199
465,469,2.23606797749979,30.01666203960727,5.0,6.0,10.04987562112089,10.04987562112089,4.123105625617661,17.0,11.0,10.0,10.0,11.0,6.5,6.5,0.5,1.5,2.0,1.0,1.5,15.0,13.0,14.0
466,470,1.4142135623730951,28.0178514522438,5.0,7.0,9.0,10.0,4.0,17.029386365926403,10.04987562112089,9.5,11.0,12.0,7.5,5.5,1.5,2.5,2.0,3.1622776601683795,2.5,14.0,13.0,14.035668847618199
467,471,1.0,30.066592756745816,5.0,6.0,9.055385138137417,10.04987562112089,4.0,16.0,10.0,9.5,10.0,12.0,7.0,5.0,1.0,2.0,2.0,3.0,2.5,14.0,13.0,15.033296378372908
468,472,2.0,28.071337695236398,5.0990195135927845,6.0,9.0,10.0,4.0,17.029386365926403,11.045361017187261,10.0,10.0,12.0,7.0,6.0,1.0,2.0,2.0,3.0,3.0,14.0,14.0,14.0
469,473,3.0,27.018512172212592,7.0,7.0710678118654755,8.06225774829855,9.055385138137417,5.0,22.02271554554524,15.0,13.5,14.0,15.0,9.5,7.5,0.5,2.5,4.0,4.0,4.0,15.0,14.0,15.033296378372908
470,474,6.0,25.019992006393608,6.0,7.0710678118654755,8.06225774829855,9.055385138137417,5.0,24.020824298928627,17.0,14.0,14.0,15.0,9.5,9.5,1.5,3.5,4.123105625617661,5.0,5.0,14.0,13.0,14.0
471,475,8.0,25.019992006393608,5.0,7.0710678118654755,8.0,9.0,6.082762530298219,26.076809620810597,19.026297590440446,15.0,15.0,16.0,9.5,10.5,2.5,4.5,5.0990195135927845,5.0,5.0,15.0,14.0,14.035668847618199
472,476,6.0,25.019992006393608,6.0,7.0710678118654755,7.0710678118654755,8.0,6.0,25.019992006393608,18.0,15.0,15.0,16.0,9.5,9.5,1.5,3.5,5.0990195135927845,6.0,5.5,15.0,14.0,15.0
473,477,2.23606797749979,26.019223662515376,6.0,6.0,7.0710678118654755,8.0,6.0,20.024984394500787,14.035668847618199,13.0,13.0,14.0,7.5,6.5,0.5,1.5,5.0,5.0,5.0,14.0,14.0,14.0
474,478,0.0,29.017236257093817,5.0,5.0,7.0710678118654755,8.0,7.0,17.0,12.0,12.0,12.0,13.0,5.5,4.5,1.5,0.5,6.082762530298219,5.0,5.0,14.0,13.0,14.0
475,479,1.0,29.017236257093817,4.0,5.0,7.0,8.0,7.0,17.0,12.0,11.5,12.0,13.0,5.5,4.5,1.5,1.5,6.0,5.0,5.0,14.0,13.0,14.0
476,480,0.0,29.017236257093817,5.0,6.0,8.0,8.0,7.0,18.0,12.0,12.0,12.0,13.0,5.5,5.5,0.5,0.5,6.0,6.082762530298219,6.0,15.0,14.0,15.033296378372908
477,481,2.0,30.0,5.0,6.0,8.0,9.0,7.0,20.0,14.0,13.0,13.0,13.0,6.0,7.0,0.0,2.0,6.082762530298219,5.0,5.5,14.0,13.0,15.033296378372908
478,482,4.0,30.0,4.0,5.0990195135927845,8.0,9.0,6.0,19.026297590440446,14.0,12.0,13.0,13.0,7.0,6.0,0.0,3.0,6.082762530298219,5.0990195135927845,5.0,14.0,13.0,14.035668847618199
479,483,4.123105625617661,32.0,4.0,6.0,8.0,9.0,6.0,20.024984394500787,14.035668847618199,12.0,13.0,13.0,7.0,7.0,0.0,3.0,6.0,6.0,6.0,14.0,13.0,15.0
480,484,4.0,32.01562118716424,5.0,6.0,9.0,10.0,6.0,21.0,15.0,13.0,13.0,14.0,7.5,7.5,0.5,2.5,6.0,6.0,6.0,14.0,13.0,16.0
481,485,4.0,32.0,5.0,6.082762530298219,9.0,9.0,6.0,21.02379604162864,15.0,13.0,13.0,13.0,7.0,8.0,1.0,2.0,6.0,6.0,6.0,13.0,13.0,15.0
482,486,4.123105625617661,32.0,5.0,6.0,9.0,10.0,6.0,21.02379604162864,15.033296378372908,13.0,14.0,14.0,8.0,7.0,1.0,3.0,6.082762530298219,6.0,6.0,12.0,13.0,15.033296378372908
483,487,4.0,32.01562118716424,5.0,5.0,8.06225774829855,10.0,7.0,21.0,16.0,14.0,15.0,14.0,7.5,6.5,0.5,3.5,6.0,5.0,5.0,12.0,14.0,15.033296378372908
484,488,0.0,31.064449134018133,6.0,6.082762530298219,8.06225774829855,9.0,7.0,19.026297590440446,13.0,13.0,15.0,13.0,7.0,5.0,1.0,2.0,5.0,5.0,5.0,11.0,15.0,13.038404810405298
485,489,0.0,32.14031735997639,5.0,5.0,8.06225774829855,9.055385138137417,7.0710678118654755,17.029386365926403,12.041594578792296,12.0,16.0,13.0,7.5,2.5,2.5,3.5,5.0990195135927845,5.0,5.0,10.0,15.0,13.152946437965905
486,490,0.0,31.400636936215164,5.0990195135927845,5.0990195135927845,8.06225774829855,9.219544457292887,7.0,17.11724276862369,12.041594578792296,12.0,17.0,12.0,7.5,2.5,2.5,3.5,5.0990195135927845,5.0,5.0,10.0,15.0,13.152946437965905
487,491,0.0,31.400636936215164,6.082762530298219,6.0,9.055385138137417,9.055385138137417,6.082762530298219,18.110770276274835,12.165525060596439,12.0,17.0,12.0,8.5,3.5,2.5,3.5,5.0990195135927845,4.0,4.5,9.0,15.0,13.152946437965905
488,492,4.0,30.265491900843113,6.082762530298219,5.0,9.055385138137417,9.219544457292887,6.082762530298219,21.095023109728988,16.1245154965971,14.0,18.0,14.0,10.0,5.0,0.0,5.0,5.0990195135927845,4.123105625617661,4.5,9.0,15.0,13.152946437965905
489,493,8.0,30.4138126514911,5.0990195135927845,6.082762530298219,9.055385138137417,10.04987562112089,6.082762530298219,25.179356624028344,19.1049731745428,15.0,20.0,15.0,11.5,7.5,1.5,7.5,5.0990195135927845,5.0990195135927845,5.0,8.0,15.0,13.152946437965905
490,494,9.0,30.265491900843113,4.123105625617661,6.082762530298219,9.055385138137417,11.180339887498949,6.082762530298219,25.179356624028344,19.1049731745428,14.5,20.0,16.0,12.0,7.0,2.0,8.0,5.0990195135927845,5.0,5.0,9.0,16.0,13.341664064126334
491,495,9.0,30.4138126514911,5.0990195135927845,6.082762530298219,9.055385138137417,11.180339887498949,6.082762530298219,26.1725046566048,20.09975124224178,15.5,20.0,15.0,11.5,8.5,2.5,7.5,5.0990195135927845,5.0,5.0,9.0,17.0,13.341664064126334
492,496,9.0,30.4138126514911,5.0990195135927845,6.0,9.219544457292887,9.219544457292887,6.082762530298219,26.076809620810597,20.09975124224178,15.5,20.0,15.0,11.5,8.5,2.5,7.5,5.0,4.123105625617661,4.5,9.0,17.0,13.341664064126334
493,497,5.0990195135927845,29.427877939124322,6.0,5.0,9.219544457292887,9.219544457292887,6.324555320336759,22.20360331117452,17.26267650163207,14.5,18.0,13.0,9.5,6.5,1.5,4.5,4.123105625617661,3.1622776601683795,3.5,9.0,17.0,14.317821063276353
494,498,0.0,29.614185789921695,6.0,6.082762530298219,8.06225774829855,9.055385138137417,6.324555320336759,18.24828759089466,12.165525060596439,12.0,16.0,10.0,7.0,5.0,0.0,2.0,2.23606797749979,2.23606797749979,2.0,10.0,18.0,13.341664064126334
495,499,1.0,29.614185789921695,4.0,6.082762530298219,8.246211251235321,8.246211251235321,7.0710678118654755,18.110770276274835,12.041594578792296,11.5,16.0,10.0,6.0,5.0,0.0,3.0,2.23606797749979,2.23606797749979,2.5,10.0,17.0,14.142135623730951
496,500,3.0,30.265491900843113,5.0,7.0710678118654755,8.06225774829855,9.0,7.0710678118654755,22.090722034374522,15.033296378372908,13.5,15.0,11.0,6.0,9.0,2.0,2.0,4.0,4.123105625617661,3.5,11.0,16.0,15.132745950421556
497,501,10.04987562112089,30.14962686336267,3.0,7.0,9.055385138137417,10.0,7.0710678118654755,27.073972741361768,20.09975124224178,15.0,16.0,13.0,7.5,12.5,5.5,4.5,3.0,4.0,4.0,12.0,17.0,14.142135623730951
498,502,11.045361017187261,32.0624390837628,4.0,7.0,10.0,11.045361017187261,5.0990195135927845,27.073972741361768,20.09975124224178,14.5,15.0,13.0,9.0,13.0,6.0,5.0,4.0,3.1622776601683795,3.5,12.0,16.0,15.033296378372908
499,503,9.0,32.14031735997639,4.0,6.082762530298219,10.04987562112089,11.0,5.0990195135927845,24.08318915758459,18.027756377319946,13.5,14.0,11.0,7.5,11.5,4.5,4.5,4.0,4.0,4.0,12.0,15.0,14.035668847618199
500,504,6.0,31.144823004794873,4.0,6.082762530298219,10.04987562112089,10.0,5.0990195135927845,21.095023109728988,15.033296378372908,12.0,13.0,10.0,6.5,9.5,3.5,3.5,6.082762530298219,5.0,5.0,13.0,15.0,15.033296378372908
501,505,4.0,30.066592756745816,4.0,6.0,9.055385138137417,10.04987562112089,5.385164807134504,19.1049731745428,13.152946437965905,11.0,12.0,10.0,6.0,8.0,2.0,3.0,6.0,5.0990195135927845,5.5,13.0,15.0,15.033296378372908
502,506,4.0,30.066592756745816,4.0,5.0990195135927845,10.0,9.055385138137417,5.0990195135927845,18.110770276274835,13.038404810405298,11.0,13.0,11.0,7.0,6.0,0.0,3.0,6.0,5.0,5.5,13.0,15.0,15.033296378372908
503,507,3.0,30.066592756745816,4.0,6.0,9.0,9.055385138137417,5.0990195135927845,18.027756377319946,12.041594578792296,10.5,13.0,11.0,7.0,6.0,0.0,3.0,5.0,5.0990195135927845,5.5,13.0,16.0,15.033296378372908
504,508,3.0,30.066592756745816,4.0,6.082762530298219,9.0,10.0,5.0990195135927845,18.110770276274835,12.041594578792296,10.5,13.0,11.0,7.0,6.0,0.0,3.0,6.0,6.0,5.5,13.0,16.0,15.033296378372908
505,509,3.0,30.066592756745816,4.0,6.082762530298219,9.0,9.0,5.0990195135927845,18.110770276274835,12.041594578792296,10.5,13.0,11.0,7.0,6.0,0.0,3.0,6.0,6.0,5.5,13.0,16.0,15.033296378372908
506,510,3.0,30.066592756745816,4.123105625617661,6.0,9.0,10.0,5.0,18.027756377319946,12.041594578792296,10.5,13.0,11.0,7.0,6.0,0.0,3.0,6.0,6.082762530298219,5.5,12.0,15.0,16.0312195418814
507,511,3.0,30.01666203960727,4.0,6.0,9.0,10.0,5.0990195135927845,18.027756377319946,12.041594578792296,10.5,12.0,11.0,6.5,6.5,0.5,2.5,6.082762530298219,5.0990195135927845,5.5,13.0,15.0,15.033296378372908
508,512,2.0,30.066592756745816,5.0,6.0,8.0,9.0,5.0990195135927845,18.027756377319946,12.041594578792296,11.0,13.0,11.0,7.0,6.0,0.0,2.0,6.0,5.0,5.5,13.0,15.0,16.0312195418814
509,513,3.0,30.066592756745816,4.0,6.0,9.0,10.0,5.0990195135927845,18.027756377319946,12.041594578792296,10.5,12.0,10.0,6.0,7.0,0.0,2.0,6.0,6.082762530298219,5.5,12.0,15.0,16.0312195418814
510,514,3.0,30.01666203960727,5.0,6.0,9.0,10.0,5.0990195135927845,19.026297590440446,13.038404810405298,11.5,12.0,11.0,6.5,7.5,0.5,1.5,6.0,5.0990195135927845,5.5,13.0,15.0,15.033296378372908
511,515,4.123105625617661,30.0,4.123105625617661,6.0,9.0,9.0,5.0,19.0,13.0,11.0,11.0,11.0,6.0,8.0,1.0,2.0,6.082762530298219,5.0990195135927845,5.0,13.0,14.0,15.033296378372908
512,516,1.0,30.0,5.0,6.0,9.0,9.0,5.0,17.0,11.0,10.5,11.0,11.0,6.0,6.0,1.0,1.0,6.0,6.0,6.0,13.0,14.0,15.0
513,517,0.0,29.0,5.0,6.0,8.06225774829855,9.0,5.0,16.0,10.0,10.0,11.0,11.0,6.0,5.0,1.0,1.0,6.082762530298219,5.0990195135927845,5.5,14.0,15.0,15.0
514,518,0.0,28.0,6.0,7.0,9.0,9.0,4.123105625617661,17.029386365926403,10.04987562112089,10.0,10.0,10.0,6.0,7.0,1.0,1.0,6.082762530298219,5.0,5.5,14.0,14.0,16.0
515,519,2.0,27.0,6.0,6.0,8.06225774829855,8.0,5.0,19.0,13.0,12.0,12.0,12.0,7.0,7.0,0.0,1.0,6.0,6.082762530298219,6.0,14.0,14.0,16.0
516,520,4.0,27.0,5.0,7.0,8.0,8.06225774829855,6.0,22.0,15.0,13.0,13.0,13.0,7.0,9.0,1.0,2.0,6.082762530298219,6.082762530298219,6.0,14.0,14.0,15.0
517,521,5.0,26.0,5.0,6.0,8.0,9.055385138137417,6.082762530298219,22.02271554554524,16.0312195418814,13.5,13.0,13.0,7.0,9.0,2.0,2.0,6.0,6.0,6.0,14.0,15.0,16.0
518,522,3.0,26.0,6.0,7.0,7.0710678118654755,8.06225774829855,5.0,21.0,14.0,12.5,12.0,12.0,7.0,9.0,1.0,1.0,6.082762530298219,6.082762530298219,6.5,15.0,15.0,16.0
519,523,0.0,28.0,5.0,6.0,8.06225774829855,8.06225774829855,7.0710678118654755,18.027756377319946,12.041594578792296,12.0,11.0,11.0,4.0,7.0,0.0,1.0,6.082762530298219,5.0,5.5,14.0,14.0,16.0
520,524,1.0,29.017236257093817,4.0,6.082762530298219,8.0,9.0,6.0,17.029386365926403,11.0,10.5,9.0,10.0,3.5,7.5,0.5,0.5,7.0710678118654755,6.082762530298219,6.5,14.0,14.0,16.0
521,525,0.0,29.0,4.0,6.0,8.0,8.06225774829855,7.0710678118654755,17.029386365926403,11.045361017187261,11.0,10.0,10.0,3.0,7.0,0.0,0.0,6.0,5.0990195135927845,5.5,14.0,13.0,16.0
522,526,1.4142135623730951,29.0,4.0,6.0,8.0,8.0,6.0,17.029386365926403,11.045361017187261,10.5,9.0,9.0,3.0,8.0,1.0,1.0,6.082762530298219,6.082762530298219,5.5,14.0,14.0,16.0
523,527,2.0,29.0,3.0,7.0,9.0,9.0,6.082762530298219,18.027756377319946,11.045361017187261,10.0,9.0,9.0,3.0,9.0,2.0,0.0,6.082762530298219,6.082762530298219,5.5,14.0,14.0,16.0
524,528,3.0,29.0,4.0,6.0,9.0,9.0,5.0,18.0,12.0,10.5,9.0,9.0,4.0,9.0,2.0,0.0,6.082762530298219,6.082762530298219,5.5,14.0,14.0,16.0
525,529,2.0,30.0,4.0,6.0,8.06225774829855,9.055385138137417,5.0990195135927845,17.029386365926403,11.045361017187261,10.0,8.0,8.0,3.0,9.0,2.0,1.0,6.082762530298219,5.0,5.5,14.0,14.0,16.0
526,530,2.0,30.0,4.0,6.0,9.0,9.0,5.0,17.0,11.0,10.0,8.0,8.0,3.0,9.0,3.0,1.0,6.082762530298219,6.082762530298219,6.0,14.0,13.0,16.0
527,531,2.0,30.01666203960727,4.0,6.0,9.0,9.0,5.0,17.0,11.0,10.0,8.0,9.0,3.5,8.5,2.5,0.5,5.0,6.082762530298219,6.0,14.0,13.0,16.0
528,532,2.0,31.0,4.0,6.0,8.06225774829855,9.0,5.0,17.0,11.0,10.0,8.0,8.0,3.0,9.0,2.0,1.0,6.082762530298219,6.0,6.0,13.0,13.0,18.0
529,533,3.0,31.0,4.0,6.0,9.055385138137417,9.0,5.0,18.0,12.0,10.5,9.0,9.0,4.0,9.0,2.0,0.0,6.082762530298219,6.082762530298219,6.0,14.0,13.0,16.0
530,534,4.123105625617661,31.0,3.0,6.0,9.0,10.04987562112089,6.082762530298219,19.0,13.0,11.0,10.0,10.0,4.0,9.0,2.0,1.0,6.0,6.082762530298219,6.5,14.0,14.0,17.0
531,535,4.0,31.0,4.0,6.0,9.0,9.0,6.0,20.0,14.0,12.0,11.0,11.0,5.0,9.0,2.0,1.0,6.082762530298219,6.082762530298219,6.5,14.0,14.0,15.0
532,536,3.0,30.0,4.0,5.0,8.0,9.0,6.082762530298219,18.027756377319946,13.038404810405298,11.5,10.0,10.0,4.0,8.0,2.0,0.0,7.0,6.082762530298219,6.0,13.0,13.0,15.0
533,537,1.0,30.01666203960727,4.0,6.0,7.0,8.0,7.0710678118654755,16.0312195418814,10.04987562112089,10.5,10.0,11.0,3.5,5.5,0.5,0.5,7.0710678118654755,7.0,6.5,13.0,13.0,16.0
534,538,0.0,31.0,4.0,5.0,8.0,8.0,7.0,16.0,11.0,11.0,11.0,11.0,4.0,5.0,1.0,0.0,6.082762530298219,6.0,6.0,14.0,14.0,16.0312195418814
535,539,1.0,31.016124838541646,4.0,5.0,9.0,9.0,6.0,16.0,11.0,10.5,12.0,11.0,5.5,4.5,1.5,1.5,4.0,4.0,4.0,13.0,14.0,15.0
536,540,0.0,30.01666203960727,5.0,6.0,9.0,10.0,6.082762530298219,17.029386365926403,11.045361017187261,11.0,12.0,11.0,5.5,5.5,0.5,1.5,1.0,2.0,2.0,13.0,14.0,14.0
537,541,2.0,31.016124838541646,6.0,6.0,9.0,9.0,6.082762530298219,20.024984394500787,14.035668847618199,13.0,14.0,13.0,7.5,6.5,0.5,1.5,2.0,2.0,2.0,13.0,15.0,15.0
538,542,9.0,32.01562118716424,4.0,7.0710678118654755,9.0,11.0,6.082762530298219,26.076809620810597,19.026297590440446,14.5,16.0,15.0,9.5,10.5,3.5,5.5,3.0,2.23606797749979,2.5,12.0,15.0,14.0
539,543,11.0,32.0624390837628,5.0990195135927845,7.0,10.04987562112089,11.045361017187261,5.0990195135927845,28.071337695236398,21.095023109728988,15.5,17.0,15.0,11.0,12.0,5.0,7.0,3.0,3.0,3.0,12.0,15.0,14.035668847618199
540,544,13.0,32.14031735997639,4.0,6.082762530298219,10.0,12.041594578792296,6.082762530298219,29.068883707497267,23.021728866442675,16.5,18.0,15.0,10.5,12.5,6.5,6.5,3.0,2.23606797749979,2.5,11.0,16.0,14.035668847618199
541,545,14.0,34.36568055487916,4.123105625617661,6.082762530298219,10.04987562112089,12.165525060596439,6.082762530298219,30.14962686336267,24.08318915758459,17.0,19.0,14.0,10.5,13.5,7.5,7.5,4.123105625617661,3.1622776601683795,3.5,11.0,16.0,15.033296378372908
542,546,14.0,33.37663853655727,4.123105625617661,5.0990195135927845,10.04987562112089,11.180339887498949,6.082762530298219,29.154759474226502,24.08318915758459,17.0,19.0,14.0,10.5,12.5,7.5,7.5,4.0,3.0,3.5,10.0,17.0,14.142135623730951
543,547,14.035668847618199,33.54101966249684,3.0,6.082762530298219,10.198039027185569,11.180339887498949,6.324555320336759,29.274562336608895,23.194827009486403,16.0,19.0,13.0,10.0,13.0,7.0,8.0,4.0,4.123105625617661,3.5,9.0,17.0,13.341664064126334
544,548,10.04987562112089,33.734255586866,4.0,6.082762530298219,10.198039027185569,11.180339887498949,5.385164807134504,25.317977802344327,19.235384061671343,14.0,17.0,10.0,8.5,11.5,6.5,5.5,4.123105625617661,3.1622776601683795,3.5,10.0,18.0,13.341664064126334
545,549,8.06225774829855,33.54101966249684,3.0,5.0990195135927845,10.198039027185569,11.180339887498949,6.324555320336759,22.360679774997898,17.26267650163207,13.0,16.0,10.0,7.0,9.0,4.0,5.0,5.0990195135927845,5.0990195135927845,5.0,9.0,19.0,14.317821063276353
546,550,6.0,32.55764119219941,4.123105625617661,5.0990195135927845,10.198039027185569,11.180339887498949,5.0990195135927845,20.223748416156685,15.132745950421556,12.0,15.0,9.0,7.0,8.0,4.0,4.0,5.0990195135927845,4.123105625617661,4.0,9.0,18.0,14.317821063276353
547,551,6.082762530298219,32.55764119219941,3.0,5.0990195135927845,10.04987562112089,10.198039027185569,6.324555320336759,20.396078054371138,15.297058540778355,12.0,14.0,8.0,5.0,9.0,4.0,3.0,5.0,5.0990195135927845,5.0,9.0,18.0,15.297058540778355
548,552,6.0,32.38826948140329,4.123105625617661,5.0990195135927845,9.055385138137417,10.198039027185569,5.385164807134504,20.396078054371138,15.297058540778355,12.0,14.0,9.0,6.5,8.5,3.5,3.5,5.0990195135927845,5.0990195135927845,5.0,9.0,18.0,14.317821063276353
549,553,9.0,32.55764119219941,3.1622776601683795,5.0990195135927845,11.180339887498949,11.045361017187261,5.0990195135927845,22.20360331117452,17.11724276862369,12.5,15.0,9.0,7.0,10.0,5.0,5.0,5.0990195135927845,5.0990195135927845,5.0,9.0,18.0,15.297058540778355
550,554,10.04987562112089,33.37663853655727,3.0,6.082762530298219,10.198039027185569,11.180339887498949,5.385164807134504,24.331050121192877,18.24828759089466,13.0,15.0,10.0,7.5,11.5,5.5,5.5,5.0990195135927845,5.0990195135927845,5.0,10.0,18.0,15.132745950421556
551,555,10.0,32.38826948140329,3.1622776601683795,5.0990195135927845,11.045361017187261,11.045361017187261,5.0990195135927845,23.194827009486403,18.110770276274835,13.0,15.0,10.0,7.5,10.5,5.5,5.5,5.0,5.0990195135927845,5.0,10.0,18.0,14.142135623730951
552,556,9.055385138137417,33.54101966249684,4.0,6.082762530298219,10.04987562112089,11.180339887498949,5.385164807134504,24.331050121192877,18.24828759089466,13.5,16.0,10.0,8.0,11.0,5.0,5.0,5.0,5.0990195135927845,5.0,10.0,18.0,14.142135623730951
553,557,8.06225774829855,31.575306807693888,4.0,6.0,10.198039027185569,11.180339887498949,5.0990195135927845,23.08679276123039,17.11724276862369,13.0,16.0,10.0,8.0,10.0,4.0,6.0,5.0990195135927845,5.0990195135927845,5.0,10.0,17.0,15.297058540778355
554,558,9.055385138137417,31.575306807693888,4.0,6.082762530298219,10.198039027185569,11.180339887498949,4.47213595499958,23.345235059857504,17.26267650163207,12.5,16.0,10.0,9.0,10.0,5.0,6.0,6.0,5.0990195135927845,5.0,9.0,17.0,15.132745950421556
555,559,10.04987562112089,29.427877939124322,4.0,6.082762530298219,10.04987562112089,11.180339887498949,4.47213595499958,24.331050121192877,18.24828759089466,13.0,16.0,11.0,9.5,10.5,4.5,5.5,5.0990195135927845,5.0990195135927845,5.0,9.0,17.0,15.132745950421556
556,560,11.0,27.459060435491963,5.0990195135927845,7.0710678118654755,9.219544457292887,10.198039027185569,4.123105625617661,27.16615541441225,20.09975124224178,14.5,17.0,12.0,10.5,12.5,5.5,6.5,5.0,5.0990195135927845,5.0,10.0,17.0,14.142135623730951
557,561,8.0,26.476404589747453,6.082762530298219,7.0710678118654755,9.055385138137417,10.04987562112089,4.123105625617661,25.179356624028344,18.110770276274835,14.0,17.0,12.0,10.5,10.5,3.5,5.5,5.0,5.0990195135927845,5.0,10.0,17.0,13.152946437965905
558,562,5.0,27.459060435491963,6.0,7.0710678118654755,8.06225774829855,10.04987562112089,4.123105625617661,22.090722034374522,15.033296378372908,12.5,17.0,12.0,10.5,7.5,0.5,4.5,5.0,5.0990195135927845,5.0,9.0,17.0,13.152946437965905
559,563,5.0,26.476404589747453,6.082762530298219,7.0710678118654755,8.246211251235321,9.219544457292887,4.123105625617661,22.20360331117452,15.132745950421556,12.5,17.0,12.0,10.5,7.5,0.5,5.5,5.0990195135927845,4.123105625617661,4.0,9.0,16.0,13.152946437965905
560,564,6.0,26.476404589747453,5.0990195135927845,6.082762530298219,8.06225774829855,9.055385138137417,6.082762530298219,23.194827009486403,17.11724276862369,14.0,18.0,13.0,9.5,7.5,1.5,4.5,5.0,5.0,4.5,9.0,16.0,13.152946437965905
561,565,3.0,27.459060435491963,5.0,6.082762530298219,8.246211251235321,8.06225774829855,7.0710678118654755,21.095023109728988,15.033296378372908,13.5,18.0,13.0,8.5,5.5,0.5,4.5,4.123105625617661,5.0,5.0,9.0,16.0,13.341664064126334
562,566,0.0,28.442925306655784,5.0990195135927845,5.0990195135927845,8.06225774829855,8.06225774829855,7.0,17.11724276862369,12.041594578792296,12.0,16.0,11.0,6.5,3.5,1.5,2.5,5.0,5.0,4.5,9.0,16.0,14.142135623730951
563,567,0.0,29.427877939124322,5.0,5.0990195135927845,7.0710678118654755,8.06225774829855,6.082762530298219,16.1245154965971,11.045361017187261,11.0,15.0,10.0,6.5,3.5,1.5,2.5,5.0990195135927845,4.0,4.0,10.0,15.0,13.152946437965905
564,568,0.0,29.274562336608895,5.0,6.0,8.06225774829855,9.055385138137417,6.082762530298219,17.029386365926403,11.045361017187261,11.0,15.0,11.0,7.0,4.0,2.0,3.0,5.0,4.123105625617661,4.5,10.0,14.0,14.035668847618199
565,569,3.0,29.068883707497267,5.0,6.0,8.0,8.06225774829855,6.0,20.0,14.0,12.5,15.0,13.0,8.0,6.0,0.0,3.0,4.123105625617661,4.0,4.0,11.0,14.0,13.038404810405298
566,570,5.0,30.066592756745816,5.0,6.0,8.06225774829855,9.0,6.0,22.0,16.0,13.5,16.0,14.0,9.0,7.0,1.0,5.0,5.0,4.123105625617661,4.0,11.0,13.0,13.038404810405298
567,571,5.0,29.0,6.0,7.0,8.06225774829855,9.0,4.0,22.0,15.0,12.5,14.0,14.0,10.0,8.0,1.0,5.0,4.0,4.0,4.0,11.0,13.0,12.041594578792296
568,572,4.0,27.018512172212592,6.0,7.0710678118654755,8.0,9.0,4.123105625617661,21.095023109728988,14.035668847618199,12.0,14.0,15.0,10.5,6.5,0.5,4.5,4.123105625617661,4.0,4.0,13.0,13.0,13.038404810405298
569,573,4.0,25.079872407968907,6.0,7.0710678118654755,7.0,8.0,4.123105625617661,21.095023109728988,14.035668847618199,12.0,13.0,15.0,10.0,7.0,1.0,4.0,5.0,5.0,4.5,13.0,12.0,13.0
570,574,2.0,24.08318915758459,6.0,8.06225774829855,7.0,7.0,4.47213595499958,20.223748416156685,12.165525060596439,11.0,13.0,15.0,10.0,6.0,2.0,4.0,4.123105625617661,4.0,4.0,14.0,12.0,12.041594578792296
571,575,1.4142135623730951,24.331050121192877,6.0,7.0710678118654755,6.082762530298219,7.0710678118654755,5.385164807134504,19.4164878389476,12.36931687685298,11.5,12.0,16.0,9.0,5.0,3.0,3.0,4.123105625617661,4.123105625617661,4.0,14.0,11.0,14.035668847618199
572,576,2.0,24.331050121192877,6.082762530298219,7.0710678118654755,7.0710678118654755,8.06225774829855,5.0990195135927845,20.223748416156685,13.152946437965905,12.0,12.0,16.0,9.0,6.0,2.0,3.0,4.0,4.123105625617661,4.0,15.0,10.0,14.035668847618199
573,577,4.123105625617661,26.30589287593181,6.0,7.0710678118654755,6.082762530298219,7.0710678118654755,5.385164807134504,22.360679774997898,15.297058540778355,13.0,13.0,17.0,10.0,7.0,1.0,4.0,3.1622776601683795,3.1622776601683795,2.5,16.0,11.0,12.165525060596439
574,578,4.123105625617661,27.459060435491963,6.0,7.0710678118654755,7.0710678118654755,8.06225774829855,6.324555320336759,23.345235059857504,16.278820596099706,14.0,13.0,18.0,9.5,7.5,0.5,3.5,2.23606797749979,3.605551275463989,2.5,15.0,10.0,12.36931687685298
575,579,4.123105625617661,26.476404589747453,5.0,6.082762530298219,7.0710678118654755,8.06225774829855,6.324555320336759,21.37755832643195,15.297058540778355,13.0,12.0,17.0,8.5,6.5,0.5,3.5,3.1622776601683795,2.23606797749979,2.0,17.0,10.0,12.165525060596439
576,580,0.0,28.442925306655784,6.082762530298219,6.082762530298219,7.0710678118654755,8.246211251235321,6.082762530298219,18.24828759089466,12.165525060596439,12.0,11.0,16.0,7.5,4.5,2.5,1.5,3.1622776601683795,3.1622776601683795,3.0,16.0,9.0,13.152946437965905
577,581,0.0,27.459060435491963,5.0990195135927845,7.0710678118654755,7.0710678118654755,8.246211251235321,6.082762530298219,18.24828759089466,11.180339887498949,11.0,11.0,16.0,7.5,4.5,3.5,2.5,3.1622776601683795,3.1622776601683795,3.0,16.0,9.0,12.165525060596439
578,582,3.0,28.442925306655784,5.0990195135927845,7.280109889280518,7.0710678118654755,7.0710678118654755,7.0710678118654755,22.360679774997898,15.132745950421556,13.5,13.0,18.0,8.5,6.5,1.5,2.5,3.1622776601683795,3.605551275463989,3.0,17.0,9.0,13.341664064126334
579,583,6.0,27.65863337187866,5.0990195135927845,6.082762530298219,8.06225774829855,9.219544457292887,8.06225774829855,25.179356624028344,19.1049731745428,16.0,14.0,20.0,9.0,8.0,1.0,4.0,4.123105625617661,4.123105625617661,4.0,17.0,9.0,13.341664064126334
580,584,5.0990195135927845,28.635642126552707,5.0,6.082762530298219,7.0710678118654755,9.055385138137417,8.06225774829855,24.186773244895647,18.110770276274835,15.5,14.0,20.0,9.0,7.0,0.0,4.0,4.47213595499958,4.123105625617661,4.5,17.0,9.0,13.341664064126334
581,585,1.0,28.635642126552707,5.0990195135927845,6.082762530298219,7.0710678118654755,7.280109889280518,8.06225774829855,20.223748416156685,14.142135623730951,13.5,12.0,18.0,7.0,5.0,2.0,2.0,4.123105625617661,4.123105625617661,4.5,17.0,9.0,13.341664064126334
582,586,1.4142135623730951,28.635642126552707,5.0,5.0990195135927845,7.0710678118654755,8.246211251235321,8.246211251235321,19.4164878389476,14.317821063276353,13.5,12.0,18.0,7.0,4.0,2.0,2.0,5.0990195135927845,4.123105625617661,4.5,16.0,9.0,13.152946437965905
583,587,1.0,29.427877939124322,5.0990195135927845,5.0990195135927845,7.0710678118654755,8.246211251235321,8.246211251235321,19.4164878389476,14.317821063276353,13.5,12.0,17.0,6.5,4.5,1.5,1.5,5.385164807134504,5.0990195135927845,5.5,18.0,10.0,14.142135623730951
584,588,7.0710678118654755,29.832867780352597,4.0,6.082762530298219,8.246211251235321,8.06225774829855,7.280109889280518,24.331050121192877,18.24828759089466,14.5,12.0,19.0,8.5,8.5,1.5,3.5,5.0990195135927845,5.0990195135927845,5.0,18.0,10.0,14.142135623730951
585,589,8.0,30.59411708155671,4.123105625617661,6.324555320336759,9.219544457292887,9.219544457292887,7.0710678118654755,25.317977802344327,19.1049731745428,15.0,13.0,19.0,9.0,9.0,2.0,4.0,6.082762530298219,5.0990195135927845,5.0,17.0,9.0,14.142135623730951
586,590,6.082762530298219,30.805843601498726,4.123105625617661,6.082762530298219,8.246211251235321,10.198039027185569,7.0710678118654755,23.345235059857504,17.26267650163207,14.0,11.0,18.0,7.5,8.5,1.5,2.5,6.324555320336759,5.0990195135927845,5.0,18.0,10.0,14.317821063276353
587,591,6.082762530298219,32.7566787083184,4.123105625617661,6.082762530298219,9.219544457292887,10.198039027185569,6.082762530298219,22.360679774997898,16.278820596099706,13.0,10.0,17.0,7.5,8.5,0.5,2.5,6.324555320336759,6.0,6.0,18.0,10.0,14.317821063276353
588,592,5.0990195135927845,31.78049716414141,4.123105625617661,6.082762530298219,9.219544457292887,9.219544457292887,6.324555320336759,21.587033144922902,15.524174696260024,12.5,9.0,16.0,6.5,8.5,0.5,1.5,5.0990195135927845,6.082762530298219,6.0,17.0,10.0,14.317821063276353
589,593,4.123105625617661,31.575306807693888,4.0,6.324555320336759,9.219544457292887,9.219544457292887,6.324555320336759,20.615528128088304,14.317821063276353,12.0,9.0,15.0,6.0,8.0,1.0,1.0,5.0990195135927845,6.0,6.0,17.0,10.0,15.132745950421556
590,594,3.1622776601683795,31.575306807693888,5.0,6.082762530298219,9.055385138137417,10.198039027185569,6.082762530298219,20.223748416156685,14.142135623730951,12.5,9.0,15.0,6.0,8.0,0.0,1.0,6.082762530298219,5.0,5.5,17.0,10.0,15.132745950421556
591,595,3.1622776601683795,31.25699921617557,4.0,7.0710678118654755,9.219544457292887,10.198039027185569,6.082762530298219,20.223748416156685,13.152946437965905,11.5,10.0,14.0,6.0,8.0,0.0,1.0,6.082762530298219,6.0,6.0,16.0,10.0,14.142135623730951
592,596,2.23606797749979,31.400636936215164,5.0,6.082762530298219,9.055385138137417,9.055385138137417,5.0990195135927845,18.24828759089466,12.165525060596439,11.0,9.0,14.0,6.5,6.5,0.5,1.5,6.082762530298219,6.0,6.0,16.0,11.0,15.033296378372908
593,597,3.1622776601683795,31.25699921617557,5.0,5.0990195135927845,9.055385138137417,9.219544457292887,5.0990195135927845,18.24828759089466,13.152946437965905,11.5,10.0,14.0,7.0,6.0,0.0,2.0,5.0990195135927845,6.082762530298219,6.0,16.0,11.0,15.033296378372908
594,598,4.123105625617661,31.25699921617557,5.0990195135927845,6.0,9.055385138137417,10.04987562112089,5.0,20.09975124224178,14.142135623730951,12.0,11.0,15.0,8.0,7.0,0.0,2.0,6.082762530298219,6.0,6.0,15.0,11.0,14.035668847618199
595,599,6.082762530298219,31.064449134018133,4.0,6.0,8.0,10.0,6.0,22.02271554554524,16.0312195418814,13.0,13.0,15.0,8.0,8.0,1.0,4.0,6.082762530298219,6.0,6.0,15.0,12.0,13.038404810405298
596,600,5.0990195135927845,30.01666203960727,5.0,6.0,9.055385138137417,10.0,6.0,22.02271554554524,16.0312195418814,13.5,14.0,15.0,8.5,7.5,0.5,3.5,6.082762530298219,6.0,6.0,14.0,12.0,14.0
597,601,5.0,31.0,6.0,7.0,9.0,10.04987562112089,5.0,23.0,16.0,13.5,15.0,15.0,10.0,8.0,1.0,4.0,5.0990195135927845,5.0,5.0,14.0,13.0,15.0
598,602,7.0,28.0178514522438,6.0,7.0,8.0,10.0,4.0,24.0,17.0,13.5,16.0,15.0,11.5,8.5,1.5,5.5,5.0,5.0,5.0,13.0,14.0,14.035668847618199
599,603,10.0,29.068883707497267,6.0,8.0,9.0,10.04987562112089,5.0,29.0,21.0,16.0,19.0,17.0,13.0,11.0,3.0,7.0,5.0,5.0,5.0,13.0,15.0,15.033296378372908
600,604,11.0,29.068883707497267,6.0,8.0,9.0,11.045361017187261,4.0,29.0,21.0,15.5,19.0,17.0,14.0,11.0,3.0,8.0,5.0990195135927845,5.0,5.0,13.0,15.0,15.033296378372908
601,605,10.0,29.068883707497267,5.0,7.0,8.0,10.04987562112089,5.0990195135927845,27.018512172212592,20.024984394500787,15.0,18.0,16.0,12.0,10.0,3.0,7.0,4.123105625617661,5.0,5.0,11.0,15.0,14.035668847618199
602,606,5.0,28.160255680657446,6.0,7.0,8.0,9.055385138137417,5.0990195135927845,23.021728866442675,16.0312195418814,13.5,18.0,15.0,11.5,6.5,0.5,5.5,4.123105625617661,4.0,4.5,11.0,15.0,15.033296378372908
603,607,2.0,28.160255680657446,6.082762530298219,6.0,8.0,9.055385138137417,5.0,19.026297590440446,13.038404810405298,12.0,17.0,14.0,10.5,3.5,2.5,4.5,5.0,5.0,5.0,12.0,16.0,14.142135623730951
604,608,2.0,28.284271247461902,6.082762530298219,6.082762530298219,8.06225774829855,9.055385138137417,5.0,19.1049731745428,13.038404810405298,12.0,18.0,14.0,11.0,3.0,3.0,5.0,5.0,4.123105625617661,4.0,10.0,15.0,14.035668847618199
605,609,3.1622776601683795,27.294688127912362,7.0,7.0,8.06225774829855,9.055385138137417,5.0990195135927845,22.090722034374522,15.132745950421556,13.5,19.0,15.0,12.0,5.0,1.0,6.0,4.0,4.123105625617661,4.0,10.0,15.0,15.033296378372908
606,610,4.0,27.16615541441225,6.082762530298219,7.0710678118654755,8.06225774829855,8.06225774829855,6.082762530298219,23.194827009486403,16.1245154965971,14.0,18.0,15.0,10.5,6.5,0.5,5.5,3.1622776601683795,3.1622776601683795,3.0,11.0,16.0,13.152946437965905
607,611,2.0,29.154759474226502,5.0,6.082762530298219,7.0710678118654755,8.06225774829855,7.0710678118654755,20.09975124224178,14.035668847618199,13.0,16.0,13.0,7.5,5.5,0.5,3.5,2.23606797749979,3.0,3.0,10.0,15.0,13.152946437965905
608,612,1.0,28.284271247461902,5.0990195135927845,5.0990195135927845,7.0710678118654755,8.246211251235321,8.06225774829855,19.235384061671343,14.142135623730951,13.5,17.0,13.0,7.0,4.0,1.0,3.0,2.23606797749979,2.0,2.0,11.0,15.0,13.152946437965905
609,613,1.0,28.160255680657446,5.0,6.082762530298219,8.06225774829855,8.0,7.280109889280518,19.235384061671343,13.152946437965905,12.5,16.0,13.0,7.5,4.5,1.5,2.5,2.23606797749979,2.0,2.0,12.0,16.0,13.038404810405298
610,614,5.0,27.073972741361768,5.0,7.0710678118654755,8.06225774829855,8.06225774829855,7.0710678118654755,24.08318915758459,17.029386365926403,14.5,16.0,14.0,8.0,9.0,2.0,4.0,2.23606797749979,2.23606797749979,2.0,12.0,15.0,13.038404810405298
611,615,7.0,28.0178514522438,4.0,5.0990195135927845,8.06225774829855,9.0,7.0710678118654755,23.08679276123039,18.027756377319946,14.5,15.0,14.0,7.5,8.5,2.5,4.5,3.1622776601683795,3.0,3.0,13.0,16.0,13.038404810405298
612,616,4.123105625617661,27.018512172212592,3.1622776601683795,5.0990195135927845,7.0,7.0,8.0,20.024984394500787,15.0,13.0,14.0,13.0,5.5,6.5,1.5,2.5,4.0,3.0,3.5,12.0,15.0,14.035668847618199
613,617,0.0,28.0178514522438,5.0,6.0,7.0,8.0,7.0710678118654755,18.027756377319946,12.041594578792296,12.0,13.0,12.0,5.5,5.5,0.5,1.5,4.0,3.0,3.5,13.0,15.0,14.0
614,618,1.0,28.0178514522438,5.0,6.0,7.0,8.06225774829855,6.0,18.0,12.0,11.5,13.0,12.0,6.5,5.5,0.5,1.5,5.0,4.0,4.0,14.0,15.0,14.0
615,619,3.1622776601683795,29.017236257093817,5.0990195135927845,6.082762530298219,7.0,7.0710678118654755,6.0,20.024984394500787,14.0,12.5,13.0,12.0,6.5,7.5,1.5,1.5,5.0,5.0,5.0,13.0,14.0,15.0
616,620,3.0,29.017236257093817,5.0,6.0,7.0,8.06225774829855,6.0,20.0,14.0,12.5,13.0,12.0,6.5,7.5,1.5,1.5,5.0,5.0,5.0,13.0,13.0,15.0
617,621,2.0,28.0,4.0,6.0,7.0,7.0,7.0,19.0,13.0,12.0,12.0,12.0,5.0,7.0,0.0,1.0,5.0990195135927845,5.0,5.0,14.0,14.0,14.035668847618199
618,622,1.0,27.0,5.0,7.0,7.0,7.0,6.082762530298219,18.0,11.0,11.0,12.0,12.0,6.0,6.0,1.0,1.0,6.0,5.0,5.5,14.0,13.0,14.0
619,623,1.0,28.0,5.0,6.0,6.0,7.0,6.0,18.0,12.0,11.5,12.0,12.0,6.0,6.0,1.0,1.0,5.0,5.0,5.0,13.0,12.0,14.0
620,624,2.23606797749979,28.0,5.0,6.0,7.0,7.0,6.0,19.026297590440446,13.038404810405298,12.0,13.0,13.0,7.0,6.0,0.0,2.0,5.0990195135927845,5.0,5.0,14.0,13.0,14.035668847618199
621,625,3.1622776601683795,27.018512172212592,6.0,6.0,7.0710678118654755,8.0,5.0,20.024984394500787,14.035668847618199,12.5,13.0,14.0,8.5,6.5,0.5,2.5,5.0,5.0,5.0,14.0,12.0,14.035668847618199
622,626,5.0990195135927845,28.0178514522438,5.0,6.0,8.06225774829855,8.06225774829855,5.0,21.02379604162864,15.033296378372908,12.5,13.0,14.0,8.5,7.5,0.5,2.5,5.0,5.0,5.0,15.0,12.0,12.041594578792296
623,627,4.0,28.0178514522438,5.0,7.0,7.0710678118654755,8.06225774829855,5.0990195135927845,21.02379604162864,14.035668847618199,12.0,13.0,14.0,8.5,7.5,0.5,2.5,5.0,5.0,4.5,15.0,12.0,13.038404810405298
624,628,5.0990195135927845,28.160255680657446,5.0,6.0,8.06225774829855,8.0,5.0,21.02379604162864,15.033296378372908,12.5,12.0,15.0,8.5,7.5,0.5,2.5,5.0990195135927845,5.0,5.0,14.0,11.0,12.0
