,video_id,frame_seq,time_seconds,m1,m3,m4,m5,m6,m7,m8,m9,m10,m11,m12,m13,m14,m15,m16,m17,e1,e2,e3,b1,b2,b3,label_measures
0,150,0,0.0,7.871027286768791,148.88521969105372,14.189696236510544,22.947790736081824,40.823248251084784,42.56908870953172,51.16167736399731,95.62569326829023,72.69523311631063,68.64059305728608,75.68065388367438,58.08050181770364,15.840136859373729,28.160243305553195,5.280045619791167,5.280045619791281,15.93761554471501,15.937615544715054,15.840136859373729,40.48034975173277,72.16062347048018,78.15735893783274,"{'others': ['m1', 'm3', 'm12', 'e1', 'e2']}"
1,150,1,0.0333666666666666,14.69932729149254,154.33264257082723,16.14172446480297,21.46480782900316,43.11426001832981,45.130694659277744,50.1972120590636,102.3689689646585,80.92486795469803,73.08476591124315,78.43243170962683,60.60687904834799,19.60810792740665,32.085994790301925,10.695331596767346,8.912776330639417,16.141724464803037,18.17856817208733,17.825552661278834,42.781326387069214,74.86732117737114,79.15830001869736,"{'others': ['m1', 'm3', 'm12', 'e1', 'e2']}"
2,150,2,0.0667333333333332,5.081542069124462,157.78372237400558,16.26887259317308,23.42475150894884,43.71307773677001,45.2371421695976,50.59261476691034,94.26568712963474,70.89160976363821,68.27066426329088,77.25364640319754,55.694489267421545,16.169367851832135,26.94894641971996,3.5931928559625703,5.389789283944083,16.26887259317295,16.268872593173022,16.169367851832078,46.71150712751478,77.25364640319754,81.56231196022917,"{'others': ['m1', 'm3', 'm12', 'e1', 'e2']}"
3,150,3,0.1000999999999998,3.577243752535651,162.40056272956244,17.97542738970741,23.525647736324547,43.26099174214925,45.284288960135925,46.53855264627988,88.29707210907283,64.78663982441184,64.39038754564103,76.9107406795157,55.44727816430202,19.67484063894597,21.46346251521368,0.0,5.365865628803476,16.196659956102945,17.975427389707352,17.886218762678084,50.0814125354986,78.69936255578352,79.20586387442067,"{'others': ['m1', 'm3', 'm12', 'e1', 'e2']}"
4,150,4,0.1334666666666664,3.532051860217848,151.60075151491097,17.7483409412689,23.02616098243251,39.489540297508135,39.48954029750822,47.976134883220574,89.16245003502112,66.19653206983688,65.34295941402968,77.70514092479209,56.51282976348512,19.426285231198108,21.19231116130686,1.766025930108981,7.064103720435696,17.748340941268857,18.01000135827237,17.660259301089127,58.27885569359404,86.5352705753366,85.22790638850567,"{'others': ['m1', 'm3', 'm12', 'e1', 'e2']}"
5,150,5,0.166833333333333,7.667692496233865,163.86671939420114,16.265632080420573,25.366558386441938,45.75699021702065,47.54244167409576,49.3294838709382,96.8715498616795,71.61075644698825,67.77346700175212,75.90628304196241,56.02606605478172,17.169278307110517,29.820325480770972,6.325523586830286,6.3255235868301725,12.779487493723115,10.843754720280288,10.84375472028023,59.64065096154189,66.86982077506212,72.31428576210412,"{'others': ['m1', 'm3', 'm12', 'e1', 'e2']}"
6,150,6,0.2001999999999996,33.3552327186275,162.74099072292685,14.848539257567596,24.013281605170626,42.71871604396824,46.37369295109465,40.68524768073179,112.88796669808475,88.88158639591441,71.827650408144,73.66938503399388,58.935508027195056,25.78428476189777,46.04336564624612,22.10081551019812,14.733877006798709,7.36693850339941,7.5936663967363165,6.44607119047447,49.72683489794582,57.09377340134523,60.80514131995056,"{'others': ['m1', 'm3', 'm12', 'e1', 'e2']}"
7,150,7,0.2335666666666662,25.931417814231928,161.73390158346135,14.669025105780063,23.90758593789484,44.15961329748232,44.34954799464787,45.87736136102552,110.26190099849224,86.35590418208821,73.34512552890021,73.34512552890021,62.34335669956522,22.003537658669984,42.17344717911772,18.33628138222514,9.1681406911124,4.100117162521947,3.667256276445016,3.66725627644496,51.34158787023017,60.50972856134268,56.96064803051739,"{'others': ['m1', 'm3', 'm12', 'e1', 'e2']}"
8,150,8,0.2669333333333328,16.836542468896,159.13977646595467,14.609435463443448,23.81046670298328,43.98022471895402,45.80034717195208,51.42567975007891,106.48364424773196,82.68379048265213,73.96026703368238,73.04717731721712,63.91628015256492,17.348704612839015,37.43667837507383,13.696345746978295,6.391628015256515,4.08346135114443,4.08346135114448,2.739269149395682,51.13302412205201,58.43774185377373,54.90699331066419,"{'others': ['m1', 'm3', 'm12', 'e1', 'e2']}"
9,150,9,0.3002999999999994,14.52290753024631,160.68360726317965,14.410759847821735,21.61613977173272,43.38213191495198,45.17750228565637,39.99634938420454,90.35500457131286,68.8292950793533,61.245729353242496,68.45110927715336,57.64303939128706,23.417484752710266,27.020174714665927,5.404034942933208,10.808069885866187,5.696352991602251,5.094973005222785,3.6026899619554342,52.23900444835385,57.64303939128706,52.23900444835397,"{'others': ['m1', 'm3', 'm12', 'e1', 'e2']}"
10,150,10,0.333666666666666,0.0,163.56025466470868,16.513761467889935,22.094668951912432,45.90824221356619,47.84735710240471,49.84615672369216,88.37867580764983,66.28400685573739,66.05504587155963,71.55963302752298,62.3853211009174,17.431192660550437,21.10091743119267,0.9174311926605014,4.587155963302735,3.669724770642176,5.802344330584178,4.587155963302735,53.21100917431187,56.8807339449541,51.40890174723632,"{'others': ['m1', 'm3', 'm12', 'e1', 'e2']}"
11,150,11,0.3670333333333326,11.989678332391932,168.76297454753416,17.061611374407562,26.540284360189617,45.53710767569403,49.32554248818082,41.74922378302414,96.84959070669044,70.37236471382208,64.4549763033175,66.35071090047393,62.55924170616106,22.74881516587675,32.227488151658804,5.687203791469187,7.582938388625621,5.687203791469187,6.835168294718433,4.7393364928909705,54.97630331753555,54.97630331753555,54.97630331753555,"{'others': ['m1', 'm3', 'm12', 'e1', 'e2']}"
12,150,12,0.4003999999999992,15.428569006504311,156.9683020136028,15.30942769450428,26.79149846538257,45.96813409585514,49.792427916052,47.88021981737005,105.32188071821744,78.55411163665485,70.80610308708265,74.63346001070875,70.80610308708265,24.877820003569468,32.53253385082178,3.827356923626212,13.395749232691289,6.0515826485367565,6.899865818817957,4.7841961545325375,57.4103538543913,55.496675392578254,51.66931846895216,"{'others': ['m1', 'm3', 'm12', 'e1', 'e2']}"
13,150,13,0.4337666666666658,14.589932127723497,152.02207356180787,12.667608513957248,25.335217027914386,43.43180061928194,45.27763767990479,47.190116509917424,99.67916274323072,74.39434862125633,66.95735928805959,72.3863343654699,70.57667600633306,24.430387848346072,28.04970456661954,0.9048291795684236,13.572437693525558,5.4289750774102,5.722642201635094,5.4289750774102,57.90906749237587,56.099409133239135,52.480092414965725,"{'others': ['m1', 'm3', 'm12', 'e1', 'e2']}"
14,150,14,0.4671333333333324,7.20083280329317,134.5226582337829,10.478750908373058,24.51271294776714,40.20649371192578,43.69637732741391,47.44456262096267,89.49641260577135,64.9954796570553,61.12604696550943,68.11188090442488,64.61896393496716,19.2110433320172,22.70396030147504,1.7464584847288052,10.478750908372945,5.239375454186529,4.939730550450243,3.492916969457724,59.37958848078068,59.37958848078068,62.87250545023835,"{'others': ['m1', 'm3', 'm12', 'e1', 'e2']}"
15,150,15,0.5004999999999991,5.404369239633516,123.0962994100984,17.175354129414714,27.34418578207089,37.63707658144308,39.34440194677962,44.72911435701988,94.38325115125382,67.19698046329728,64.08793542672868,71.77848767793614,68.3604644551773,25.63517417069147,23.926162559312047,5.127034834138271,11.963081279655968,20.57922495467961,18.876650230250785,18.799127725173776,78.61453412345384,83.74156895759216,90.72260411994444,"{'others': ['m1', 'm3', 'm12', 'e1', 'e2']}"
16,150,16,0.5338666666666656,5.883243638043649,143.30257952852222,14.88355994073072,26.11258982522154,40.9720508599731,42.830660190368725,48.51446988179464,94.9556252206448,69.06236439690841,66.04579723699248,68.83646472587941,65.11557474069673,18.604449925913286,27.90667488887016,1.8604449925913968,5.581334977773963,9.3022249629567,9.3022249629567,9.302224962956643,61.39468475551416,61.39468475551416,70.6969097184708,"{'others': ['m1', 'm3', 'm12', 'e1', 'e2']}"
17,150,17,0.5672333333333321,8.477982853079828,146.0207955385912,17.061611374407562,26.540284360189617,45.53710767569415,47.43126446709687,47.54478181605477,98.86942036326296,72.43591724945136,68.24644549763036,70.14218009478668,66.35071090047393,20.85308056872043,30.33175355450237,1.89573459715632,5.687203791469301,13.270142180094808,13.270142180094751,13.270142180094751,62.55924170616112,64.45497630331755,70.14218009478668,"{'others': ['m1', 'm3', 'm12', 'e1', 'e2']}"
18,150,18,0.6005999999999987,12.898296311736658,141.8932239490404,14.740910070556083,25.7965926234732,46.0653439704879,49.75057148812687,49.886874679137655,103.25215715693147,77.47747169784036,70.94062971455128,70.01932283514157,71.8619365939611,21.19005822642453,32.24574077934142,4.6065343970486765,8.291761914687868,16.685577246941794,14.74091007055614,14.74091007055614,70.01932283514157,66.33409531750254,84.76023290569765,"{'others': ['m1', 'm3', 'm12', 'e1', 'e2']}"
19,150,19,0.6339666666666652,18.51137816023549,142.54963170243838,12.95796471216488,27.82870342549602,40.76708155788858,46.31545335964218,48.165168865257016,107.365993329366,79.6204480377875,70.34323700889502,64.78982356082429,62.93868574480075,15.734671436200188,43.50173867655349,13.88353362017665,4.627844540058845,16.762765867863816,16.660240344211957,16.660240344211957,68.49209919287148,62.93868574480081,61.11558903556914,"{'others': ['m1', 'm3', 'm12', 'e1', 'e2']}"
20,150,20,0.6673333333333318,17.862035713827613,128.0177677697832,10.664033896870478,24.882745759364525,37.32411863904679,40.91741616605112,53.349783576879766,106.69956715375945,81.83483233210235,72.8708982952819,74.64823727809357,71.09355931247012,19.55072881092929,33.76944067342322,7.10935593124691,10.664033896870592,15.996050845305774,15.996050845305774,15.107381353899882,63.98420338122304,58.6521864327878,69.33900298280575,"{'others': ['m1', 'm3', 'm12', 'e1', 'e2']}"
21,150,21,0.7006999999999983,18.34045639749475,136.9802243605527,10.94966172055922,25.54921068130477,40.19021423197016,42.01335721833007,52.95482018012053,107.73351831982602,82.20353149540968,72.9977448037281,76.64763204391443,71.17280118363487,20.98685163107177,33.761456971724215,6.387302670326221,11.862133530605774,18.610846260123772,18.249436200932,18.249436200932,63.87302670326204,58.39819584298243,63.9772242059759,"{'others': ['m1', 'm3', 'm12', 'e1', 'e2']}"
22,150,22,0.7340666666666649,12.898931351681409,136.86246370401437,12.769290560367152,23.71439675496765,41.99587787108568,41.956240412635,52.901346607235496,102.17061054513466,78.46113630689676,72.05528244778623,78.4399277279698,74.79155899643638,23.71439675496765,25.538581120734307,0.0,12.769290560367269,20.066028023434114,18.241843657667403,18.241843657667403,63.84645280183594,56.549715338768976,71.16657340120072,"{'others': ['m1', 'm3', 'm12', 'e1', 'e2']}"
23,150,23,0.7674333333333314,7.196701068666698,145.77761395230382,12.594226870166835,23.389278473166883,45.01535080261151,46.81314368447579,52.17608274783379,95.3562891598342,71.96701068666732,68.36866015233397,75.56536122100067,71.96701068666732,21.590103206000208,21.590103206000208,3.598350534333349,10.795051603000047,16.292224975205578,16.192577404500128,16.192577404500128,82.76206228966731,64.77030961800051,82.93788181052504,"{'others': ['m1', 'm3', 'm12', 'e1', 'e2']}"
24,150,24,0.800799999999998,1.777707548743365,145.7828582741347,14.221660389946464,21.332490584919697,40.92590119099704,44.47822865926331,49.77581136481274,85.34847811777242,64.02215737641197,63.9974717547592,71.10830194973244,69.33059440098918,20.44363681054801,15.110514164318149,7.999683969344915,7.999683969344915,16.097826516844854,16.09782651684491,15.99936793868983,83.55225479093565,74.66371704721911,87.10766988842227,"{'others': ['m1', 'm3', 'm12', 'e1', 'e2']}"
25,150,25,0.8341666666666645,2.4571804673358377,139.0099765660928,17.37488971052278,22.65408455819419,39.962246334202405,41.73591729497304,46.94436691346109,85.15468721519088,62.64605575682158,63.41834744340815,66.02458089998652,64.28709192893427,18.2436341960489,19.98112316710126,4.34372242763061,2.606233456578366,14.00808391944951,15.637400739470536,13.899911768418292,83.3994706105093,81.661981639457,90.41622829792576,"{'others': ['m1', 'm3', 'm12', 'e1', 'e2']}"
26,150,26,0.867533333333331,4.043830018670469,150.1453991894377,14.467646097922623,21.701469146883824,41.59448253152732,43.44059811715974,50.63676134272896,90.4408708615442,68.74511031739937,66.9128632028918,68.72131896513213,65.10440744065158,16.27610186016284,23.509924909124152,0.0,3.616911524480543,16.376263432369928,16.276101860162896,15.371873979042732,83.1889650630547,75.95514201409338,86.8058765875353,"{'others': ['m1', 'm3', 'm12', 'e1', 'e2']}"
27,150,27,0.9008999999999976,10.993330816710964,153.61985853730482,10.843754720280344,19.96219761122076,41.56772642774138,43.41265447942201,52.41148114802161,93.97920757576289,74.12102746359398,68.67711322844207,66.86982077506207,66.86982077506207,14.45833962704046,27.109386800700804,5.421877360140229,5.421877360140115,16.365729222605676,14.45833962704046,14.45833962704046,81.32816040210253,63.25523586830195,78.04909168249812,"{'others': ['m1', 'm3', 'm12', 'e1', 'e2']}"
28,150,28,0.934266666666664,14.340550783797651,154.16092092582505,12.675375881466811,17.925688479747123,43.05898134093345,44.81422119936781,46.64124978591147,91.49128105819722,73.58271319351444,66.32504737506429,66.32504737506429,66.32504737506429,19.718257327721854,25.09596387164595,5.377706543924091,7.1702753918988265,16.232401305038287,18.015093964441768,17.925688479747066,80.665598158862,78.87302931088726,93.28249957182304,"{'others': ['m1', 'm3', 'm12', 'e1', 'e2']}"
29,150,29,0.9676333333333308,14.544102367388632,156.3596699340055,12.726089571464968,19.99814075515917,43.63230710216567,45.486665621528985,47.26833269401277,94.53666538802554,74.53852463286637,67.26647344917205,67.26647344917205,65.4484606532485,19.08913435719751,28.17919833681526,6.363044785732427,8.181057581656091,16.46280605314994,16.362115163312126,16.362115163312126,78.17455022471347,76.35653742878992,87.26461420433134,"{'others': ['m1', 'm3', 'm12', 'e1', 'e2']}"
