,frame_seq,m1,m3,m4,m5,m6,m7,m8,m9,m10,m11,m12,m13,m14,m15,m16,m17,e1,e2,e3,b1,b2,b3,label_measures
0,231,3.0,57.706152185014034,5.0990195135927845,9.219544457292889,15.132745950421556,17.11724276862369,21.213203435596427,38.47076812334269,29.27456233660889,27.5,33.0,24.0,7.5,9.5,0.5,4.5,6.082762530298219,6.082762530298219,6.0,17.0,27.0,25.179356624028344,{}
1,232,2.23606797749979,58.69412236331676,5.0990195135927845,9.055385138137416,17.26267650163207,17.26267650163207,20.223748416156685,36.49657518178932,27.459060435491963,26.0,32.0,23.0,7.5,8.5,0.5,4.5,5.0990195135927845,6.0,5.5,16.0,25.0,26.1725046566048,{}
2,233,4.123105625617661,54.45181356024793,5.0,9.055385138137416,15.132745950421556,16.1245154965971,19.235384061671343,37.33630940518894,28.284271247461906,26.0,32.0,25.0,9.5,8.5,0.5,5.5,6.082762530298219,5.0990195135927845,5.5,16.0,26.0,25.495097567963924,{}
3,234,3.1622776601683795,54.589376255824725,5.0,10.04987562112089,14.142135623730953,15.132745950421556,20.223748416156685,38.3275357934736,28.284271247461906,26.5,33.0,25.0,9.0,9.0,0.0,5.0,7.280109889280518,6.082762530298219,6.5,17.0,27.0,26.68332812825267,{}
4,235,2.23606797749979,55.326304774492215,7.0,10.04987562112089,15.132745950421556,16.1245154965971,18.24828759089466,37.33630940518894,27.29468812791236,26.0,31.0,25.0,10.0,9.0,1.0,5.0,6.324555320336759,6.082762530298219,6.0,17.0,29.0,26.68332812825267,{}
5,236,4.123105625617661,53.46026561849464,6.0,10.04987562112089,15.132745950421556,16.1245154965971,18.43908891458577,38.47076812334269,28.442925306655784,26.0,32.0,25.0,10.5,9.5,0.5,5.5,7.071067811865476,5.0,5.0,17.0,29.0,25.70992026436488,{}
6,237,4.123105625617661,61.40032573203501,5.0,11.04536101718726,17.11724276862369,18.110770276274835,20.223748416156685,40.311288741492746,29.27456233660889,27.0,33.0,26.0,9.5,10.5,0.5,6.5,5.0990195135927845,5.0,4.5,15.0,27.0,22.36067977499789,{}
7,238,1.0,65.37583651472461,6.082762530298219,11.180339887498947,18.027756377319943,20.024984394500787,19.235384061671343,37.48332962798263,26.30589287593181,25.5,31.0,24.0,8.5,9.5,1.5,4.5,5.0990195135927845,4.47213595499958,4.0,16.0,30.0,28.442925306655784,{}
8,239,1.0,64.38167441127949,7.071067811865476,12.16552506059644,19.026297590440446,20.09975124224178,18.24828759089466,38.47076812334269,26.30589287593181,25.5,32.0,25.0,10.5,9.5,2.5,4.5,5.0990195135927845,4.123105625617661,4.0,16.0,28.0,24.33105012119288,"{'neutral': (['m1', 'm3', 'm12', 'e1', 'e2'], None, 23)}"
9,240,0.0,62.28964600958975,6.082762530298219,12.041594578792296,17.029386365926403,18.027756377319943,17.26267650163207,35.35533905932738,23.345235059857504,23.0,29.0,23.0,9.0,9.0,3.0,4.0,5.0990195135927845,4.123105625617661,4.0,18.0,31.0,30.26549190084312,"{'neutral': (['m1', 'm3', 'm12', 'e1', 'e2'], None, 23)}"
10,241,0.0,65.49045732013177,6.0,10.198039027185567,17.11724276862369,18.027756377319943,17.26267650163207,33.37663853655727,23.194827009486403,23.0,29.0,21.0,8.0,8.0,2.0,4.0,5.385164807134504,5.0990195135927845,5.0,18.0,33.0,30.4138126514911,"{'neutral': (['m1', 'm3', 'm12', 'e1', 'e2'], None, 23)}"
11,242,2.23606797749979,69.46221994724903,4.123105625617661,10.04987562112089,18.110770276274835,19.1049731745428,18.110770276274835,34.36568055487916,24.33105012119288,23.0,28.0,20.0,6.0,10.0,1.0,3.0,5.0990195135927845,4.123105625617661,4.0,20.0,34.0,34.132096331752024,"{'neutral': (['m1', 'm3', 'm12', 'e1', 'e2'], None, 23)}"
12,243,1.4142135623730951,68.3593446428504,5.0990195135927845,12.16552506059644,18.027756377319943,18.027756377319943,19.235384061671343,37.65634076752546,25.495097567963924,24.5,29.0,22.0,6.5,11.5,0.5,2.5,6.082762530298219,6.082762530298219,6.0,18.0,30.0,27.16615541441225,"{'neutral': (['m1', 'm3', 'm12', 'e1', 'e2'], None, 23)}"
13,244,1.4142135623730951,69.46221994724903,5.0990195135927845,12.16552506059644,17.11724276862369,18.110770276274835,18.24828759089466,36.6742416417845,24.515301344262525,23.5,28.0,20.0,6.0,12.0,0.0,3.0,7.071067811865476,6.082762530298219,6.0,19.0,31.0,29.068883707497267,"{'neutral': (['m1', 'm3', 'm12', 'e1', 'e2'], None, 23)}"
14,245,2.0,67.26812023536856,5.0990195135927845,12.16552506059644,18.110770276274835,19.026297590440446,18.24828759089466,37.48332962798263,25.317977802344327,24.0,29.0,23.0,8.0,11.0,0.0,4.0,5.0990195135927845,5.385164807134504,5.0,15.0,32.0,31.78049716414141,"{'neutral': (['m1', 'm3', 'm12', 'e1', 'e2'], None, 23)}"
15,246,1.4142135623730951,63.38769596696192,6.082762530298219,13.152946437965904,17.11724276862369,18.027756377319943,19.235384061671343,39.6232255123179,26.476404589747453,25.5,31.0,24.0,8.5,11.5,1.5,4.5,5.385164807134504,5.0990195135927845,5.0,14.0,27.0,20.615528128088304,"{'neutral': (['m1', 'm3', 'm12', 'e1', 'e2'], None, 23)}"
16,247,3.605551275463989,64.38167441127949,6.0,11.0,19.026297590440446,20.09975124224178,18.24828759089466,38.3275357934736,27.459060435491963,25.5,31.0,24.0,9.5,10.5,1.5,4.5,5.0990195135927845,4.123105625617661,4.5,16.0,27.0,18.24828759089466,"{'neutral': (['m1', 'm3', 'm12', 'e1', 'e2'], None, 23)}"
17,248,4.123105625617661,60.40695324215582,4.123105625617661,7.071067811865476,16.1245154965971,18.110770276274835,20.09975124224178,35.35533905932738,28.284271247461906,26.0,31.0,24.0,7.5,7.5,0.5,4.5,6.324555320336759,6.082762530298219,6.0,17.0,31.0,29.42787793912432,"{'neutral': (['m1', 'm3', 'm12', 'e1', 'e2'], None, 23)}"
18,249,3.1622776601683795,61.40032573203501,5.0990195135927845,9.055385138137416,18.027756377319943,19.1049731745428,19.026297590440446,36.22154055254967,27.16615541441225,25.5,31.0,24.0,8.5,8.5,0.5,4.5,5.385164807134504,4.123105625617661,4.5,17.0,30.0,24.515301344262525,"{'neutral': (['m1', 'm3', 'm12', 'e1', 'e2'], None, 23)}"
19,250,3.1622776601683795,61.29437168288782,4.0,6.082762530298219,17.029386365926403,18.110770276274835,19.1049731745428,32.2490309931942,26.1725046566048,24.5,29.0,23.0,7.0,6.0,0.0,4.0,6.082762530298219,6.082762530298219,6.0,17.0,31.0,27.16615541441225,"{'neutral': (['m1', 'm3', 'm12', 'e1', 'e2'], None, 23)}"
20,251,3.1622776601683795,62.39390995922599,5.0990195135927845,7.280109889280518,17.11724276862369,18.110770276274835,20.024984394500787,35.35533905932738,28.16025568065745,26.5,31.0,24.0,7.5,7.5,0.5,4.5,6.082762530298219,6.082762530298219,6.0,17.0,33.0,29.61418578992169,"{'neutral': (['m1', 'm3', 'm12', 'e1', 'e2'], None, 23)}"
21,252,5.0990195135927845,60.40695324215582,4.123105625617661,7.071067811865476,17.11724276862369,19.026297590440446,19.1049731745428,35.35533905932738,28.284271247461906,25.5,31.0,24.0,8.5,7.5,0.5,5.5,6.082762530298219,6.082762530298219,6.0,16.0,28.0,23.345235059857504,"{'neutral': (['m1', 'm3', 'm12', 'e1', 'e2'], None, 23)}"
22,253,3.0,62.20128616033595,5.0990195135927845,6.082762530298219,17.029386365926403,17.029386365926403,19.026297590440446,33.13608305156178,27.073972741361768,25.5,30.0,25.0,8.5,5.5,0.5,4.5,8.06225774829855,7.071067811865476,7.5,20.0,33.0,31.14482300479488,"{'neutral': (['m1', 'm3', 'm12', 'e1', 'e2'], None, 23)}"
23,254,5.0,60.20797289396148,5.0990195135927845,6.082762530298219,17.0,17.029386365926403,20.0,36.05551275463989,30.01666203960727,27.5,31.0,26.0,8.5,7.5,1.5,4.5,8.06225774829855,8.06225774829855,8.5,17.0,33.0,29.42787793912432,"{'neutral': (['m1', 'm3', 'm12', 'e1', 'e2'], None, 23)}"
24,255,7.071067811865476,57.3149195236284,4.123105625617661,6.082762530298219,17.029386365926403,18.027756377319943,19.026297590440446,36.22154055254967,30.14962686336267,26.5,31.0,25.0,9.0,8.0,2.0,6.0,5.0990195135927845,5.0990195135927845,5.5,17.0,27.0,28.16025568065745,"{'neutral': (['m1', 'm3', 'm12', 'e1', 'e2'], None, 23)}"
25,256,4.0,62.20128616033595,5.0,6.082762530298219,18.027756377319943,18.027756377319943,20.024984394500787,35.05709628591621,29.017236257093817,27.0,32.0,27.0,9.5,5.5,0.5,5.5,6.082762530298219,6.082762530298219,6.5,18.0,29.0,30.26549190084312,"{'neutral': (['m1', 'm3', 'm12', 'e1', 'e2'], None, 23)}"
26,257,6.0,60.20797289396148,5.0,7.071067811865476,16.0,17.029386365926403,19.026297590440446,37.05401462729781,30.01666203960727,27.0,32.0,27.0,10.5,7.5,0.5,5.5,6.082762530298219,7.071067811865476,7.5,19.0,31.0,28.442925306655784,"{'neutral': (['m1', 'm3', 'm12', 'e1', 'e2'], None, 23)}"
27,258,6.082762530298219,59.07622195096772,6.082762530298219,10.04987562112089,17.0,18.027756377319943,19.0,41.01219330881976,31.0,28.0,32.0,29.0,11.5,10.5,0.5,5.5,6.082762530298219,6.082762530298219,6.0,18.0,27.0,27.29468812791236,"{'neutral': (['m1', 'm3', 'm12', 'e1', 'e2'], None, 23)}"
28,259,7.0,59.13543776789008,6.0,10.04987562112089,16.0312195418814,17.029386365926403,19.026297590440446,42.04759208325728,32.01562118716424,28.5,32.0,28.0,11.0,12.0,1.0,6.0,6.082762530298219,6.082762530298219,6.0,18.0,28.0,26.30589287593181,"{'neutral': (['m1', 'm3', 'm12', 'e1', 'e2'], None, 23)}"
29,260,7.071067811865476,60.13318551349163,6.0,11.0,16.0,18.027756377319943,19.0,43.01162633521314,32.01562118716424,28.5,33.0,29.0,12.0,12.0,1.0,6.0,6.082762530298219,6.082762530298219,6.5,17.0,24.0,21.213203435596427,"{'neutral': (['m1', 'm3', 'm12', 'e1', 'e2'], None, 23)}"
30,261,6.0,62.03224967708329,6.0,10.0,16.0312195418814,18.0,20.0,42.0,32.0,29.0,32.0,30.0,11.0,11.0,1.0,6.0,7.071067811865476,7.0,7.0,18.0,24.0,22.09072203437452,"{'neutral': (['m1', 'm3', 'm12', 'e1', 'e2'], None, 23)}"
31,262,6.0,62.00806399170998,6.0,10.0,18.0,19.026297590440446,20.0,42.0,32.0,29.0,32.0,31.0,11.5,10.5,0.5,5.5,6.0,5.0990195135927845,5.5,19.0,22.0,21.02379604162864,"{'neutral': (['m1', 'm3', 'm12', 'e1', 'e2'], None, 23)}"
32,263,3.0,65.00769185258002,6.082762530298219,10.0,18.0,19.026297590440446,20.024984394500787,39.0,29.0,27.5,29.0,30.0,9.5,9.5,0.5,3.5,6.082762530298219,5.0,5.5,19.0,20.0,25.079872407968907,"{'neutral': (['m1', 'm3', 'm12', 'e1', 'e2'], None, 23)}"
33,264,4.0,66.007575322837,5.0,9.0,17.0,18.0,21.0,39.0,30.0,28.0,30.0,29.0,8.5,9.5,0.5,3.5,7.0,7.071067811865476,6.5,20.0,24.0,26.0,"{'neutral': (['m1', 'm3', 'm12', 'e1', 'e2'], None, 23)}"
34,265,1.4142135623730951,67.0,5.0990195135927845,8.06225774829855,19.0,20.0,21.02379604162864,33.0,25.019992006393608,25.5,28.0,28.0,7.0,5.0,3.0,3.0,5.0,5.0,4.5,19.0,20.0,22.02271554554524,"{'neutral': (['m1', 'm3', 'm12', 'e1', 'e2'], None, 23)}"
35,266,3.1622776601683795,68.00735254367721,5.0,7.0,19.026297590440446,20.024984394500787,19.0,28.0178514522438,21.02379604162864,22.5,25.0,26.0,6.5,2.5,5.5,1.5,5.0,5.0,5.0,19.0,20.0,24.0,"{'neutral': (['m1', 'm3', 'm12', 'e1', 'e2'], None, 23)}"
36,267,3.1622776601683795,62.00806399170998,5.0,8.0,17.0,18.027756377319943,20.024984394500787,30.066592756745816,22.09072203437452,23.5,26.0,27.0,6.5,3.5,4.5,1.5,5.0,5.0,5.0,21.0,19.0,20.024984394500787,"{'neutral': (['m1', 'm3', 'm12', 'e1', 'e2'], None, 23)}"
37,268,1.0,64.03124237432849,7.0,9.0,17.0,18.027756377319943,22.0,39.0,30.0,29.5,30.0,32.0,9.0,8.0,1.0,3.0,6.0,5.0,5.0,22.0,20.0,22.09072203437452,"{'neutral': (['m1', 'm3', 'm12', 'e1', 'e2'], None, 23)}"
38,269,1.4142135623730951,61.00819617067857,6.0,8.0,16.0,17.0,23.0,38.01315561749642,30.01666203960727,29.5,30.0,31.0,7.5,7.5,1.5,2.5,5.0990195135927845,5.0,5.0,21.0,22.0,22.0,{}
39,270,2.0,64.03124237432849,5.0,8.06225774829855,15.033296378372908,16.0312195418814,24.0,35.0142828000232,27.0,28.0,28.0,30.0,5.0,6.0,3.0,0.0,6.0,6.082762530298219,6.0,22.0,22.0,23.0,{}
40,271,1.0,57.0087712549569,7.0,9.0,12.0,14.0,20.09975124224178,35.05709628591621,26.0768096208106,26.5,27.0,28.0,7.5,7.5,2.5,0.5,8.0,8.0,8.0,23.0,26.0,23.08679276123039,{}
41,272,1.0,59.033888572581766,6.082762530298219,10.0,13.0,14.0,22.09072203437452,37.01351104664349,27.018512172212592,27.5,27.0,29.0,6.0,9.0,2.0,1.0,9.0,8.0,8.5,23.0,23.0,27.018512172212592,{}
42,273,4.123105625617661,57.14017850864661,6.082762530298219,10.04987562112089,13.038404810405298,13.038404810405298,22.09072203437452,42.01190307520001,32.0,30.0,28.0,32.0,8.0,12.0,1.0,2.0,7.071067811865476,7.071067811865476,7.0,23.0,18.0,22.02271554554524,{}
43,274,5.0990195135927845,57.0350769263968,6.0,10.04987562112089,13.038404810405298,14.0,22.02271554554524,43.01162633521314,33.0,30.5,30.0,32.0,9.0,12.0,1.0,3.0,9.055385138137416,9.0,9.0,23.0,23.0,25.0,{}
44,275,3.1622776601683795,58.077534382926416,7.0,9.0,13.038404810405298,15.0,21.02379604162864,40.049968789001575,31.064449134018133,29.5,28.0,31.0,8.5,10.5,0.5,1.5,9.0,10.0,10.0,26.0,27.0,27.018512172212592,{}
45,276,2.23606797749979,60.20797289396148,8.0,11.04536101718726,16.0312195418814,17.029386365926403,20.024984394500787,41.10960958218893,30.066592756745816,29.0,30.0,35.0,12.5,8.5,3.5,4.5,6.0,7.071067811865476,7.0,22.0,24.0,26.0768096208106,{}
46,277,4.123105625617661,59.21148537234985,6.0,9.055385138137416,16.1245154965971,17.029386365926403,21.02379604162864,40.11234224026316,31.064449134018133,29.0,30.0,35.0,11.5,7.5,2.5,4.5,6.082762530298219,7.071067811865476,7.0,25.0,22.0,25.019992006393608,{}
47,278,2.23606797749979,59.13543776789008,7.0,10.04987562112089,15.033296378372908,15.033296378372908,19.026297590440446,38.11823710509184,28.0713376952364,27.0,29.0,33.0,12.0,7.0,3.0,4.0,6.0,6.082762530298219,6.5,24.0,23.0,25.0,{}
48,279,2.23606797749979,58.137767414994535,6.0,10.04987562112089,15.033296378372908,16.0312195418814,20.09975124224178,38.2099463490856,28.16025568065745,27.0,29.0,33.0,11.0,7.0,3.0,5.0,7.071067811865476,7.071067811865476,7.5,23.0,23.0,25.019992006393608,{}
49,280,1.4142135623730951,63.198101237299845,7.0,10.04987562112089,17.11724276862369,17.029386365926403,20.09975124224178,38.2099463490856,28.16025568065745,27.5,29.0,34.0,11.5,6.5,4.5,4.5,7.0,7.071067811865476,7.5,24.0,23.0,24.0,{}
50,281,2.23606797749979,61.29437168288782,6.082762530298219,10.04987562112089,17.11724276862369,17.029386365926403,19.0,37.12142238654117,27.073972741361768,26.0,27.0,33.0,11.0,7.0,4.0,4.0,8.06225774829855,9.0,9.0,25.0,23.0,24.0,{}
51,282,2.23606797749979,62.28964600958975,6.082762530298219,10.04987562112089,17.11724276862369,18.110770276274835,18.0,36.12478373637688,26.0768096208106,25.0,25.0,31.0,10.0,8.0,3.0,3.0,7.071067811865476,7.0,7.5,24.0,23.0,24.0,{}
52,283,1.4142135623730951,63.12685640834652,5.0,7.071067811865476,19.1049731745428,19.026297590440446,18.027756377319943,29.154759474226505,22.09072203437452,22.5,23.0,27.0,7.0,4.0,4.0,2.0,5.0,5.0,5.0,22.0,17.0,20.09975124224178,{}
53,284,4.123105625617661,63.12685640834652,5.0990195135927845,7.0,18.110770276274835,19.026297590440446,19.0,27.073972741361768,20.09975124224178,22.0,24.0,28.0,7.0,1.0,7.0,2.0,4.0,4.123105625617661,4.0,22.0,16.0,21.213203435596427,{}
54,285,3.0,61.20457499239743,5.0,8.06225774829855,17.029386365926403,18.027756377319943,18.027756377319943,28.0713376952364,20.024984394500787,21.5,22.0,27.0,6.5,3.5,5.5,1.5,6.082762530298219,5.0,5.0,22.0,19.0,24.020824298928627,{}
55,286,5.0990195135927845,62.07253821135398,5.0,8.0,17.029386365926403,18.027756377319943,19.026297590440446,27.073972741361768,19.1049731745428,21.5,23.0,26.0,5.5,2.5,6.5,0.5,4.123105625617661,5.0990195135927845,5.0,21.0,17.0,20.024984394500787,{}
56,287,2.0,65.03076195155643,5.0,9.0,17.029386365926403,17.029386365926403,18.027756377319943,30.01666203960727,21.02379604162864,22.0,22.0,24.0,5.0,7.0,3.0,0.0,6.0,7.071067811865476,6.5,22.0,23.0,24.020824298928627,{}
57,288,4.0,65.03076195155643,7.0,9.0,16.0312195418814,17.029386365926403,17.0,29.0,20.0,22.0,23.0,25.0,7.0,5.0,5.0,1.0,5.0990195135927845,6.0,5.5,22.0,23.0,25.0,{}
58,289,3.0,67.06713054842886,5.0,9.0,18.027756377319943,18.0,19.026297590440446,30.01666203960727,21.02379604162864,22.5,22.0,25.0,4.5,6.5,3.5,0.5,5.0,5.0,5.5,22.0,23.0,23.021728866442675,{}
59,290,4.0,62.03224967708329,6.0,9.0,17.0,19.026297590440446,20.0,31.0,22.0,24.0,25.0,27.0,6.0,5.0,5.0,1.0,5.0990195135927845,6.0,6.0,22.0,26.0,23.08679276123039,{}
60,291,5.0990195135927845,62.00806399170998,5.0,9.0,18.027756377319943,18.0,20.0,39.01281840626232,30.01666203960727,27.5,27.0,28.0,7.5,11.5,0.5,2.5,6.0,7.0,7.0,21.0,26.0,25.079872407968907,{}
61,292,3.1622776601683795,66.03029607687671,6.0,11.0,19.0,20.024984394500787,19.1049731745428,39.01281840626232,28.0178514522438,26.5,26.0,28.0,8.0,12.0,0.0,3.0,5.0990195135927845,7.0,7.0,21.0,28.0,29.154759474226505,{}
62,293,1.4142135623730951,68.0294054067798,6.0,10.04987562112089,18.027756377319943,19.026297590440446,19.026297590440446,36.013886210738214,26.0,25.5,24.0,26.0,6.0,11.0,1.0,1.0,8.06225774829855,8.06225774829855,8.0,23.0,29.0,30.066592756745816,{}
63,294,1.0,66.03029607687671,5.0,10.0,19.026297590440446,20.024984394500787,19.026297590440446,35.0142828000232,25.019992006393608,24.5,24.0,26.0,6.0,10.0,1.0,1.0,7.0,8.06225774829855,8.0,21.0,27.0,29.017236257093817,{}
64,295,0.0,67.06713054842886,6.0,10.04987562112089,19.0,20.09975124224178,18.0,34.0147027033899,24.0,24.0,23.0,26.0,6.5,9.5,2.5,1.5,4.0,5.0,5.0,22.0,26.0,24.186773244895647,{}
65,296,1.4142135623730951,71.06335201775947,6.0,11.0,19.026297590440446,20.024984394500787,17.029386365926403,33.06055050963308,22.09072203437452,22.5,21.0,24.0,5.5,10.5,1.5,0.5,5.0990195135927845,6.0,6.5,21.0,28.0,29.154759474226505,{}
66,297,0.0,69.00724599634447,5.0,11.0,19.026297590440446,21.02379604162864,17.029386365926403,33.015148038438355,22.02271554554524,22.0,22.0,23.0,5.5,10.5,1.5,0.5,5.0,5.0,5.5,21.0,28.0,27.16615541441225,{}
67,298,1.4142135623730951,69.00724599634447,6.0,10.04987562112089,20.0,21.02379604162864,18.110770276274835,35.05709628591621,25.019992006393608,24.5,23.0,24.0,5.5,11.5,0.5,0.5,6.0,7.0,6.5,22.0,29.0,30.14962686336267,{}
68,299,2.0,69.02897942168927,5.0,9.055385138137416,19.026297590440446,19.026297590440446,18.027756377319943,34.058772731852805,25.019992006393608,24.0,22.0,24.0,5.0,11.0,0.0,0.0,5.0990195135927845,5.0,5.0,22.0,25.0,27.073972741361768,{}
69,300,0.0,73.06161783043132,6.0,10.0,19.026297590440446,20.024984394500787,17.029386365926403,33.015148038438355,23.021728866442675,23.0,19.0,22.0,3.5,12.5,0.5,1.5,8.06225774829855,8.06225774829855,8.0,27.0,29.0,34.0147027033899,{}
70,301,1.4142135623730951,71.06335201775947,5.0990195135927845,8.06225774829855,19.026297590440446,21.02379604162864,17.029386365926403,31.064449134018133,23.021728866442675,22.5,20.0,23.0,4.5,9.5,0.5,0.5,5.0990195135927845,6.0,6.0,24.0,26.0,26.0768096208106,{}
71,302,1.0,67.06713054842886,5.0,8.0,19.026297590440446,20.024984394500787,16.0,30.0,22.0,21.5,19.0,22.0,4.5,9.5,0.5,0.5,5.0,5.0,5.0,22.0,25.0,24.08318915758459,{}
72,303,1.4142135623730951,69.02897942168927,5.0,9.055385138137416,20.024984394500787,21.095023109728988,18.110770276274835,33.06055050963308,24.020824298928627,23.5,21.0,23.0,4.0,11.0,1.0,1.0,5.0,6.0,6.0,23.0,26.0,29.068883707497267,{}
73,304,0.0,69.02897942168927,6.0,9.0,20.024984394500787,22.09072203437452,17.029386365926403,32.01562118716424,23.021728866442675,23.0,20.0,22.0,4.0,11.0,0.0,1.0,5.0990195135927845,5.0,5.0,25.0,28.0,28.0713376952364,{}
74,305,3.0,67.02984409947557,5.0,10.04987562112089,20.024984394500787,21.02379604162864,18.027756377319943,36.05551275463989,26.019223662515376,24.5,22.0,24.0,5.0,13.0,1.0,0.0,6.082762530298219,7.071067811865476,6.5,23.0,28.0,28.16025568065745,{}
75,306,1.0,66.06814663663572,5.0,9.0,20.024984394500787,21.02379604162864,18.027756377319943,33.015148038438355,24.020824298928627,23.5,20.0,23.0,3.5,11.5,1.5,0.5,5.0,5.0990195135927845,5.0,23.0,26.0,29.017236257093817,{}
76,307,1.0,66.007575322837,5.0,8.0,20.024984394500787,20.024984394500787,17.029386365926403,31.016124838541646,23.021728866442675,22.5,21.0,22.0,4.5,9.5,0.5,0.5,5.0990195135927845,5.0,5.5,24.0,28.0,31.064449134018133,{}
77,308,0.0,70.02856560004639,4.0,7.0,19.026297590440446,20.024984394500787,18.027756377319943,29.017236257093817,22.02271554554524,22.0,19.0,21.0,2.0,9.0,0.0,1.0,5.0,6.082762530298219,6.0,21.0,26.0,30.066592756745816,{}
78,309,1.0,70.00714249274856,5.0,9.0,20.0,20.024984394500787,17.0,30.0,21.0,21.5,19.0,20.0,2.5,10.5,0.5,1.5,7.071067811865476,7.0,7.0,25.0,28.0,34.058772731852805,{}
79,310,1.0,71.00704190430693,5.0,9.0,19.026297590440446,19.026297590440446,17.029386365926403,30.01666203960727,21.02379604162864,21.5,19.0,20.0,2.5,10.5,0.5,1.5,5.0,5.0,5.5,20.0,26.0,29.154759474226505,{}
80,311,2.0,69.00724599634447,5.0990195135927845,10.0,19.026297590440446,20.024984394500787,17.0,30.01666203960727,20.024984394500787,21.0,19.0,20.0,2.5,10.5,0.5,1.5,5.0,5.0,5.5,21.0,27.0,27.16615541441225,{}
81,312,1.0,63.0,5.0,10.0,18.0,20.0,17.0,33.0,23.0,22.5,22.0,22.0,5.0,11.0,0.0,1.0,7.0,7.0,7.0,21.0,27.0,26.1725046566048,{}
82,313,0.0,67.0,5.0,9.0,19.0,20.024984394500787,15.0,29.0,20.0,20.0,21.0,21.0,6.0,8.0,2.0,2.0,6.082762530298219,6.0,6.5,25.0,30.0,31.064449134018133,{}
83,314,2.0,72.0,4.0,9.0,20.0,20.024984394500787,17.0,28.0,19.0,20.0,21.0,21.0,4.0,7.0,3.0,1.0,6.082762530298219,7.071067811865476,6.5,23.0,29.0,29.27456233660889,{}
84,315,1.4142135623730951,66.007575322837,4.0,9.0,19.0,19.026297590440446,16.0,30.01666203960727,21.02379604162864,20.5,20.0,19.0,3.5,10.5,0.5,0.5,4.0,5.0,5.0,19.0,26.0,25.179356624028344,{}
85,316,1.0,66.007575322837,4.0,9.0,20.0,20.024984394500787,17.0,29.0,20.0,20.5,20.0,19.0,2.5,9.5,0.5,0.5,5.0,5.0,5.5,19.0,30.0,28.284271247461906,{}
86,317,1.0,65.03076195155643,5.0,9.0,19.0,20.024984394500787,18.0,33.0,24.0,23.5,23.0,21.0,4.0,11.0,1.0,0.0,4.0,4.123105625617661,4.0,19.0,29.0,26.1725046566048,{}
87,318,1.4142135623730951,63.0317380372777,3.0,9.055385138137416,19.026297590440446,20.024984394500787,17.029386365926403,30.01666203960727,21.0,20.5,22.0,20.0,4.0,9.0,0.0,2.0,1.4142135623730951,2.0,2.0,20.0,27.0,24.08318915758459,{}
88,319,2.0,65.00769185258002,4.0,9.0,20.0,20.0,17.029386365926403,32.01562118716424,23.021728866442675,22.0,21.0,20.0,3.5,11.5,1.5,0.5,3.1622776601683795,4.0,4.5,20.0,27.0,23.194827009486403,{}
89,320,0.0,76.0,6.0,9.0,19.0,21.02379604162864,15.132745950421556,30.066592756745816,21.095023109728988,21.0,19.0,19.0,4.0,11.0,1.0,1.0,10.04987562112089,9.055385138137416,9.5,29.0,33.0,35.0142828000232,{}
90,321,0.0,79.0,5.0,9.0,20.0,21.02379604162864,16.0312195418814,30.01666203960727,21.02379604162864,21.0,19.0,19.0,3.0,11.0,1.0,1.0,9.055385138137416,9.055385138137416,9.5,27.0,33.0,38.01315561749642,{}
91,322,1.0,75.02666192761077,5.0990195135927845,8.0,20.024984394500787,22.0,16.0,30.01666203960727,22.02271554554524,21.5,21.0,19.0,4.0,10.0,0.0,0.0,4.0,6.0,6.5,21.0,31.0,29.154759474226505,{}
92,323,1.0,76.02631123499285,5.0,9.0,21.0,22.0,16.1245154965971,29.068883707497267,20.09975124224178,20.5,20.0,18.0,3.0,10.0,0.0,1.0,8.06225774829855,9.055385138137416,9.0,28.0,35.0,38.05259518088089,{}
93,324,1.0,76.02631123499285,5.0,9.0,21.0,22.0,16.1245154965971,29.068883707497267,20.09975124224178,20.5,20.0,18.0,3.0,10.0,0.0,1.0,8.06225774829855,9.055385138137416,9.0,28.0,35.0,38.05259518088089,{}
94,325,1.0,71.02816342831905,6.0,11.04536101718726,19.0,20.0,18.027756377319943,36.05551275463989,25.019992006393608,24.5,21.0,19.0,2.0,16.0,4.0,3.0,7.0,7.071067811865476,7.0,24.0,33.0,37.21558813185679,{}
95,326,0.0,70.00714249274856,6.0,11.04536101718726,19.0,20.0,18.027756377319943,35.05709628591621,24.020824298928627,24.0,21.0,20.0,2.5,14.5,2.5,2.5,6.0,6.082762530298219,6.5,22.0,29.0,29.017236257093817,{}
96,328,1.0,72.11102550927978,6.082762530298219,11.0,19.026297590440446,20.024984394500787,16.0,33.06055050963308,22.09072203437452,22.0,20.0,16.0,2.0,15.0,3.0,3.0,8.0,8.246211251235321,7.5,24.0,34.0,36.345563690772494,{}
97,329,0.0,72.11102550927978,6.082762530298219,11.04536101718726,19.026297590440446,19.026297590440446,17.029386365926403,34.132096331752024,23.08679276123039,23.0,21.0,17.0,2.0,15.0,3.0,2.0,8.06225774829855,8.246211251235321,7.5,23.0,33.0,33.37663853655727,{}
98,330,1.4142135623730951,71.11258679024411,5.0,10.04987562112089,20.024984394500787,20.024984394500787,17.029386365926403,33.13608305156178,23.08679276123039,22.5,21.0,17.0,2.0,14.0,3.0,2.0,7.071067811865476,7.280109889280518,7.0,21.0,32.0,33.37663853655727,{}
99,331,1.4142135623730951,73.24616030891995,5.0990195135927845,9.055385138137416,21.095023109728988,21.02379604162864,16.1245154965971,31.400636936215164,22.36067977499789,21.5,21.0,15.0,2.0,13.0,3.0,1.0,7.0,7.280109889280518,7.0,22.0,33.0,32.2490309931942,{}
100,332,1.0,72.24956747275377,4.0,8.06225774829855,21.095023109728988,21.095023109728988,17.11724276862369,29.27456233660889,21.213203435596427,21.0,20.0,14.0,0.0,12.0,4.0,2.0,6.082762530298219,6.082762530298219,6.5,18.0,32.0,30.4138126514911,{}
101,333,2.0,75.32595834106593,5.0,8.06225774829855,20.09975124224178,21.095023109728988,16.0312195418814,29.27456233660889,21.213203435596427,21.0,20.0,13.0,0.5,12.5,3.5,1.5,5.0990195135927845,5.385164807134504,5.0,21.0,34.0,32.55764119219941,{}
102,334,1.0,74.33034373659252,5.0990195135927845,8.06225774829855,21.095023109728988,21.095023109728988,15.132745950421556,28.442925306655784,20.39607805437113,20.0,20.0,13.0,1.5,11.5,3.5,1.5,7.0,6.324555320336759,6.0,20.0,33.0,32.55764119219941,{}
103,335,2.0,71.449282711585,5.0990195135927845,8.06225774829855,21.095023109728988,20.09975124224178,15.132745950421556,28.635642126552707,20.615528128088304,20.0,21.0,13.0,2.0,11.0,3.0,1.0,7.0,6.082762530298219,6.0,19.0,33.0,32.38826948140329,{}
104,336,1.0,76.32168761236873,6.082762530298219,8.06225774829855,20.09975124224178,21.095023109728988,16.1245154965971,30.4138126514911,22.36067977499789,22.0,21.0,14.0,1.5,12.5,3.5,1.5,6.0,6.324555320336759,6.0,18.0,33.0,32.55764119219941,{}
105,337,1.4142135623730951,73.43704787094863,6.082762530298219,9.055385138137416,20.09975124224178,22.09072203437452,15.132745950421556,31.400636936215164,22.36067977499789,21.5,23.0,15.0,4.0,12.0,3.0,0.0,5.0990195135927845,5.385164807134504,5.5,18.0,33.0,31.575306807693888,{}
106,338,1.4142135623730951,73.33484846919642,5.0990195135927845,10.04987562112089,20.09975124224178,21.095023109728988,17.11724276862369,33.37663853655727,23.345235059857504,22.5,24.0,17.0,3.5,12.5,2.5,0.5,7.0,6.082762530298219,6.5,21.0,33.0,35.35533905932738,{}
107,339,1.4142135623730951,74.33034373659252,5.0990195135927845,9.055385138137416,21.095023109728988,22.09072203437452,17.11724276862369,32.38826948140329,23.345235059857504,22.5,24.0,17.0,3.5,11.5,2.5,0.5,6.082762530298219,6.324555320336759,6.0,19.0,33.0,34.36568055487916,{}
108,340,1.0,76.23647421018367,6.082762530298219,9.055385138137416,22.09072203437452,22.09072203437452,17.029386365926403,32.2490309931942,23.194827009486403,23.0,23.0,17.0,3.0,12.0,3.0,1.0,8.0,7.280109889280518,7.0,21.0,33.0,36.22154055254967,{}
109,341,1.4142135623730951,73.33484846919642,5.0,9.055385138137416,21.02379604162864,22.09072203437452,17.029386365926403,32.14031735997639,23.08679276123039,22.5,24.0,17.0,3.5,11.5,2.5,0.5,7.071067811865476,6.324555320336759,6.5,19.0,32.0,32.38826948140329,{}
110,342,1.4142135623730951,76.32168761236873,6.0,10.198039027185567,21.095023109728988,22.09072203437452,17.029386365926403,34.23448553724738,24.08318915758459,23.5,24.0,17.0,3.5,13.5,3.5,0.5,8.0,8.06225774829855,8.0,20.0,33.0,34.23448553724738,{}
111,343,1.0,75.32595834106593,5.0990195135927845,9.055385138137416,20.024984394500787,22.09072203437452,17.029386365926403,32.14031735997639,23.08679276123039,22.5,23.0,16.0,2.5,12.5,3.5,1.5,6.0,6.324555320336759,6.0,21.0,34.0,34.36568055487916,{}
112,344,1.4142135623730951,73.24616030891995,5.0,9.055385138137416,21.095023109728988,21.02379604162864,17.029386365926403,32.14031735997639,23.08679276123039,22.5,23.0,17.0,3.0,12.0,3.0,0.0,6.0,6.082762530298219,6.5,21.0,33.0,36.345563690772494,{}
113,345,1.4142135623730951,75.23961722390672,5.0990195135927845,10.04987562112089,21.095023109728988,22.09072203437452,18.027756377319943,32.2490309931942,22.20360331117452,22.5,22.0,16.0,1.0,13.0,3.0,1.0,7.0,7.071067811865476,7.5,20.0,32.0,34.36568055487916,{}
114,346,1.0,75.32595834106593,5.0,10.04987562112089,20.09975124224178,21.095023109728988,15.132745950421556,30.26549190084312,20.223748416156685,20.0,20.0,13.0,1.5,13.5,2.5,1.5,7.0,7.280109889280518,7.0,23.0,35.0,33.24154027718932,{}
115,347,1.0,74.43117626371358,4.0,10.198039027185567,20.09975124224178,21.095023109728988,16.1245154965971,30.4138126514911,20.223748416156685,20.0,20.0,12.0,0.0,14.0,3.0,2.0,7.0,6.324555320336759,6.5,23.0,36.0,32.38826948140329,{}
116,348,1.0,73.43704787094863,5.0990195135927845,10.04987562112089,20.09975124224178,21.095023109728988,17.11724276862369,32.38826948140329,22.36067977499789,22.0,22.0,14.0,1.0,14.0,3.0,2.0,7.071067811865476,6.324555320336759,6.0,21.0,34.0,33.37663853655727,{}
117,349,1.4142135623730951,73.43704787094863,5.0,11.180339887498947,20.09975124224178,21.095023109728988,17.11724276862369,32.38826948140329,21.213203435596427,21.5,21.0,13.0,0.0,15.0,4.0,2.0,8.0,7.280109889280518,7.0,19.0,34.0,32.55764119219941,{}
118,350,1.0,73.43704787094863,6.082762530298219,10.04987562112089,20.223748416156685,21.095023109728988,16.1245154965971,32.38826948140329,22.36067977499789,22.0,21.0,13.0,1.0,15.0,4.0,2.0,8.06225774829855,7.280109889280518,7.0,20.0,35.0,33.54101966249684,{}
119,351,1.0,72.56031973468694,5.0990195135927845,11.180339887498947,21.095023109728988,21.095023109728988,18.110770276274835,34.52535300326414,23.345235059857504,23.0,23.0,14.0,0.5,15.5,4.5,2.5,7.071067811865476,6.324555320336759,6.0,21.0,35.0,33.37663853655727,{}
120,352,2.0,72.3394774656273,5.0,10.04987562112089,20.09975124224178,21.095023109728988,18.24828759089466,33.54101966249684,23.53720459187964,23.0,22.0,15.0,0.5,14.5,3.5,1.5,7.0,7.280109889280518,7.0,21.0,35.0,31.25699921617557,{}
121,353,2.23606797749979,79.22752047110903,5.0990195135927845,10.04987562112089,21.095023109728988,21.095023109728988,19.026297590440446,32.2490309931942,22.20360331117452,23.0,20.0,14.0,2.0,15.0,5.0,5.0,7.0,7.280109889280518,7.0,20.0,34.0,32.38826948140329,{}
122,354,1.4142135623730951,73.43704787094863,5.0990195135927845,8.246211251235321,20.09975124224178,20.223748416156685,18.24828759089466,30.80584360149873,22.56102834535696,22.5,21.0,13.0,1.0,13.0,5.0,3.0,8.0,8.246211251235321,8.0,25.0,36.0,35.22782990761707,{}
123,355,6.082762530298219,69.35416353759881,6.0,11.04536101718726,18.110770276274835,19.1049731745428,18.43908891458577,29.61418578992169,18.68154169226941,21.0,21.0,14.0,0.5,11.5,1.5,4.5,8.06225774829855,6.324555320336759,6.5,21.0,37.0,32.2490309931942,{}
124,356,5.0990195135927845,74.33034373659252,5.0,9.055385138137416,19.1049731745428,19.026297590440446,18.24828759089466,27.459060435491963,18.43908891458577,20.5,19.0,12.0,2.5,11.5,2.5,5.5,7.0,7.071067811865476,7.0,21.0,35.0,31.25699921617557,{}
125,357,7.0,66.27216610312357,6.082762530298219,10.04987562112089,17.11724276862369,17.029386365926403,18.43908891458577,27.65863337187866,17.72004514666935,20.5,21.0,15.0,0.0,9.0,1.0,4.0,8.0,7.280109889280518,7.5,21.0,36.0,31.400636936215164,{}
126,358,6.0,70.178344238091,5.0,9.055385138137416,18.027756377319943,18.027756377319943,18.24828759089466,26.30589287593181,17.26267650163207,20.0,19.0,14.0,1.5,9.5,0.5,4.5,7.0,7.280109889280518,7.0,22.0,34.0,33.13608305156178,{}
127,359,6.082762530298219,69.26037828369117,6.082762530298219,10.04987562112089,18.110770276274835,18.110770276274835,17.11724276862369,27.459060435491963,17.46424919657298,20.0,20.0,14.0,0.0,10.0,0.0,4.0,7.0,6.324555320336759,6.5,19.0,32.0,31.14482300479488,{}
128,360,8.06225774829855,82.29823813423954,7.0,11.04536101718726,19.1049731745428,20.223748416156685,18.24828759089466,28.442925306655784,17.46424919657298,21.0,19.0,12.0,2.5,12.5,2.5,7.5,6.0,6.324555320336759,6.5,24.0,39.0,34.23448553724738,{}
129,361,6.082762530298219,74.54528824815154,6.082762530298219,10.04987562112089,18.110770276274835,19.235384061671343,18.43908891458577,28.861739379323623,18.97366596101028,21.0,22.0,13.0,0.5,10.5,0.5,4.5,7.0,7.615773105863909,7.5,20.0,38.0,31.575306807693888,{}
130,362,5.0990195135927845,70.71067811865476,6.082762530298219,10.04987562112089,17.11724276862369,18.110770276274835,17.46424919657298,28.861739379323623,18.97366596101028,20.5,23.0,13.0,1.0,10.0,0.0,3.0,9.0,9.219544457292889,9.5,21.0,38.0,34.36568055487916,{}
131,363,3.0,66.48308055437865,6.082762530298219,9.219544457292889,17.11724276862369,19.1049731745428,16.492422502470642,28.861739379323623,19.6468827043885,20.5,22.0,14.0,2.0,10.0,0.0,2.0,8.06225774829855,8.246211251235321,9.0,18.0,35.0,32.38826948140329,{}
132,364,4.0,69.72087205421343,6.082762530298219,9.219544457292889,17.11724276862369,18.110770276274835,16.492422502470642,27.892651361962702,18.68154169226941,20.0,23.0,13.0,2.0,9.0,0.0,2.0,7.0,9.219544457292889,9.0,18.0,37.0,32.55764119219941,{}
133,365,4.0,67.47592163134935,6.082762530298219,10.04987562112089,16.1245154965971,17.11724276862369,16.492422502470642,28.635642126552707,18.68154169226941,20.0,23.0,15.0,3.0,9.0,0.0,1.0,8.06225774829855,8.246211251235321,8.5,17.0,35.0,29.61418578992169,{}
134,366,3.1622776601683795,69.72087205421343,7.0,9.055385138137416,18.110770276274835,19.235384061671343,15.811388300841896,28.861739379323623,19.92485884517128,20.5,24.0,14.0,4.0,9.0,0.0,1.0,7.071067811865476,7.280109889280518,7.0,15.0,31.0,25.70992026436488,{}
135,367,2.0,67.60177512462228,6.082762530298219,9.219544457292889,18.110770276274835,19.235384061671343,18.43908891458577,31.78049716414141,22.56102834535696,23.0,28.0,19.0,5.5,7.5,1.5,1.5,6.324555320336759,7.280109889280518,7.5,16.0,34.0,29.42787793912432,{}
136,368,2.0,66.61080993352356,5.0990195135927845,8.06225774829855,18.110770276274835,20.09975124224178,19.235384061671343,32.7566787083184,24.73863375370596,24.0,30.0,21.0,6.5,6.5,1.5,3.5,5.0990195135927845,5.0990195135927845,5.5,15.0,31.0,25.495097567963924,{}
137,369,2.23606797749979,66.61080993352356,5.0,8.06225774829855,18.24828759089466,19.1049731745428,18.43908891458577,32.7566787083184,24.73863375370596,23.5,29.0,20.0,6.5,7.5,0.5,3.5,5.0990195135927845,5.0990195135927845,5.0,15.0,31.0,27.459060435491963,{}
138,370,1.0,60.8276253029822,5.0990195135927845,8.246211251235321,18.24828759089466,19.235384061671343,19.235384061671343,32.7566787083184,24.515301344262525,24.0,32.0,22.0,8.0,5.0,2.0,5.0,5.0990195135927845,5.385164807134504,5.0,14.0,29.0,18.43908891458577,{}
139,371,3.1622776601683795,58.85575587824864,5.0990195135927845,7.071067811865476,17.26267650163207,18.24828759089466,19.235384061671343,34.52535300326414,27.459060435491963,25.5,32.0,22.0,8.0,7.0,0.0,5.0,6.082762530298219,6.082762530298219,6.0,16.0,30.0,26.476404589747453,{}
140,372,2.23606797749979,60.8276253029822,6.082762530298219,8.06225774829855,17.26267650163207,18.24828759089466,19.235384061671343,35.510561809129406,27.459060435491963,26.0,34.0,24.0,10.0,6.0,1.0,6.0,6.082762530298219,6.082762530298219,6.0,15.0,31.0,26.476404589747453,{}
141,373,3.1622776601683795,61.66036003787198,6.082762530298219,8.246211251235321,16.278820596099706,17.11724276862369,19.1049731745428,36.49657518178932,28.284271247461906,26.5,33.0,24.0,9.5,7.5,0.5,5.5,6.082762530298219,5.385164807134504,5.0,16.0,31.0,25.317977802344327,{}
142,374,1.4142135623730951,62.64982043070834,6.082762530298219,8.246211251235321,18.110770276274835,19.235384061671343,20.09975124224178,35.510561809129406,27.29468812791236,26.5,34.0,25.0,9.5,5.5,1.5,5.5,6.082762530298219,5.0990195135927845,5.5,17.0,32.0,27.29468812791236,{}
143,375,3.1622776601683795,59.682493245507096,5.0,8.06225774829855,17.26267650163207,17.11724276862369,19.4164878389476,35.510561809129406,27.459060435491963,25.5,33.0,24.0,9.5,6.5,1.5,6.5,8.06225774829855,7.280109889280518,7.5,19.0,36.0,32.38826948140329,{}
144,376,3.1622776601683795,60.67124524847005,6.082762530298219,9.055385138137416,15.297058540778355,17.26267650163207,19.235384061671343,37.48332962798263,28.442925306655784,26.5,33.0,24.0,9.5,8.5,0.5,5.5,7.071067811865476,7.280109889280518,7.0,18.0,35.0,33.37663853655727,{}
145,377,3.0,60.67124524847005,6.082762530298219,9.219544457292889,17.11724276862369,18.110770276274835,19.235384061671343,37.48332962798263,28.284271247461906,26.5,32.0,23.0,8.5,9.5,0.5,4.5,8.06225774829855,8.246211251235321,8.0,19.0,37.0,33.37663853655727,{}
146,378,3.0,58.54912467321779,5.0990195135927845,8.246211251235321,15.297058540778355,16.1245154965971,20.223748416156685,36.49657518178932,28.284271247461906,26.5,32.0,24.0,8.0,8.0,1.0,5.0,6.082762530298219,5.385164807134504,5.5,18.0,33.0,29.61418578992169,{}
147,379,3.0,60.40695324215582,5.0990195135927845,9.219544457292889,18.110770276274835,18.110770276274835,20.223748416156685,37.48332962798263,28.284271247461906,26.5,33.0,26.0,9.5,7.5,0.5,5.5,5.385164807134504,5.0990195135927845,5.0,15.0,28.0,25.495097567963924,{}
148,380,3.1622776601683795,60.53098380168623,5.0990195135927845,8.06225774829855,17.11724276862369,18.110770276274835,20.09975124224178,36.345563690772494,28.284271247461906,26.5,32.0,24.0,8.0,8.0,0.0,4.0,7.280109889280518,6.082762530298219,6.0,18.0,30.0,29.27456233660889,{}
149,381,3.605551275463989,60.53098380168623,6.0,9.055385138137416,17.11724276862369,18.24828759089466,20.09975124224178,38.3275357934736,29.27456233660889,27.5,33.0,25.0,9.0,9.0,1.0,5.0,6.082762530298219,5.385164807134504,5.5,17.0,30.0,26.30589287593181,{}
150,382,3.0,60.40695324215582,4.123105625617661,7.071067811865476,18.110770276274835,18.24828759089466,21.213203435596427,35.35533905932738,28.284271247461906,26.5,32.0,25.0,7.5,6.5,0.5,5.5,6.082762530298219,6.082762530298219,6.0,15.0,25.0,22.36067977499789,{}
151,383,2.23606797749979,60.29925372672534,5.0990195135927845,8.06225774829855,17.11724276862369,18.027756377319943,20.09975124224178,35.35533905932738,27.29468812791236,26.0,31.0,25.0,8.0,7.0,1.0,5.0,5.0990195135927845,5.0990195135927845,5.5,17.0,33.0,29.42787793912432,{}
152,384,2.23606797749979,60.29925372672534,5.0990195135927845,8.06225774829855,17.11724276862369,18.027756377319943,20.09975124224178,35.35533905932738,27.29468812791236,26.0,31.0,25.0,8.0,7.0,1.0,5.0,5.0990195135927845,5.0990195135927845,5.5,17.0,33.0,29.42787793912432,{}
153,385,2.0,60.40695324215582,4.123105625617661,6.324555320336759,17.11724276862369,17.26267650163207,20.223748416156685,32.55764119219941,26.30589287593181,25.0,29.0,22.0,5.5,6.5,0.5,3.5,6.082762530298219,6.082762530298219,6.5,17.0,32.0,24.515301344262525,{}
154,386,1.4142135623730951,64.38167441127949,4.0,6.082762530298219,18.027756377319943,18.027756377319943,18.24828759089466,29.42787793912432,23.345235059857504,22.5,25.0,18.0,3.5,7.5,0.5,0.5,6.082762530298219,6.082762530298219,6.0,15.0,30.0,27.29468812791236,{}
155,387,0.0,68.46897107449476,4.123105625617661,8.246211251235321,19.1049731745428,19.026297590440446,17.26267650163207,29.61418578992169,21.37755832643195,21.0,24.0,16.0,3.0,9.0,1.0,1.0,6.082762530298219,6.082762530298219,6.0,15.0,29.0,25.317977802344327,{}
156,388,0.0,69.35416353759881,4.123105625617661,7.280109889280518,19.1049731745428,19.026297590440446,16.1245154965971,27.459060435491963,20.223748416156685,20.0,23.0,16.0,3.5,7.5,0.5,1.5,5.0990195135927845,5.385164807134504,5.5,16.0,33.0,31.78049716414141,{}
157,389,1.0,66.37017402418047,3.1622776601683795,7.071067811865476,17.029386365926403,18.110770276274835,17.11724276862369,26.30589287593181,19.235384061671343,19.5,23.0,16.0,2.5,6.5,0.5,0.5,5.0990195135927845,6.082762530298219,6.0,15.0,32.0,29.61418578992169,{}
158,390,0.0,71.7007670809734,3.1622776601683795,7.280109889280518,18.027756377319943,19.1049731745428,17.26267650163207,27.65863337187866,20.39607805437113,20.0,24.0,14.0,2.0,8.0,1.0,0.0,6.082762530298219,7.071067811865476,7.0,17.0,36.0,33.54101966249684,{}
159,391,1.4142135623730951,71.449282711585,4.0,9.219544457292889,19.1049731745428,20.024984394500787,18.24828759089466,30.59411708155671,21.37755832643195,21.5,26.0,18.0,4.0,8.0,1.0,2.0,7.0,7.280109889280518,7.5,19.0,36.0,35.35533905932738,{}
160,392,1.4142135623730951,66.48308055437865,4.123105625617661,9.055385138137416,18.110770276274835,19.1049731745428,20.223748416156685,34.52535300326414,25.495097567963924,24.5,28.0,20.0,4.0,10.0,1.0,2.0,7.0,8.246211251235321,8.5,18.0,36.0,33.54101966249684,{}
161,393,2.23606797749979,65.49045732013177,4.123105625617661,9.055385138137416,17.11724276862369,18.110770276274835,20.223748416156685,35.510561809129406,26.476404589747453,25.0,27.0,19.0,3.0,12.0,3.0,0.0,7.0,7.280109889280518,7.0,19.0,35.0,30.4138126514911,{}
162,394,2.23606797749979,65.49045732013177,4.123105625617661,9.219544457292889,17.11724276862369,18.110770276274835,20.09975124224178,35.510561809129406,26.30589287593181,25.0,27.0,19.0,3.0,12.0,3.0,0.0,8.0,8.246211251235321,8.0,19.0,35.0,29.42787793912432,{}
163,395,2.0,65.37583651472461,5.0990195135927845,11.04536101718726,19.1049731745428,20.09975124224178,20.09975124224178,36.49657518178932,25.495097567963924,25.0,27.0,20.0,3.5,12.5,1.5,0.5,6.082762530298219,6.082762530298219,6.5,18.0,35.0,31.575306807693888,{}
164,396,2.0,67.47592163134935,6.082762530298219,11.04536101718726,19.235384061671343,21.095023109728988,20.09975124224178,37.48332962798263,26.476404589747453,26.0,27.0,19.0,3.0,14.0,3.0,0.0,7.0,6.324555320336759,6.0,19.0,36.0,29.61418578992169,{}
165,397,1.4142135623730951,68.46897107449476,5.0990195135927845,11.180339887498947,20.09975124224178,20.09975124224178,20.09975124224178,37.48332962798263,26.30589287593181,25.5,27.0,19.0,3.0,14.0,3.0,0.0,7.071067811865476,7.280109889280518,7.5,20.0,37.0,31.575306807693888,{}
166,398,1.0,65.49045732013177,4.123105625617661,10.198039027185567,19.1049731745428,20.09975124224178,21.095023109728988,35.510561809129406,25.317977802344327,25.0,28.0,20.0,3.0,11.0,1.0,1.0,6.0,6.324555320336759,6.5,18.0,36.0,29.42787793912432,{}
167,399,1.4142135623730951,65.37583651472461,5.0990195135927845,10.198039027185567,19.1049731745428,19.1049731745428,20.09975124224178,34.52535300326414,24.33105012119288,24.5,27.0,20.0,3.5,10.5,0.5,0.5,6.082762530298219,6.324555320336759,6.0,18.0,36.0,32.55764119219941,{}
168,400,1.0,69.58448102845921,4.123105625617661,9.219544457292889,20.09975124224178,20.09975124224178,20.09975124224178,33.54101966249684,24.33105012119288,24.0,27.0,18.0,2.5,10.5,1.5,0.5,8.0,7.615773105863909,7.5,24.0,38.0,31.25699921617557,{}
169,401,1.4142135623730951,68.46897107449476,4.123105625617661,8.246211251235321,18.110770276274835,19.1049731745428,20.09975124224178,31.575306807693888,23.345235059857504,23.5,26.0,18.0,2.0,9.0,1.0,0.0,7.0,7.071067811865476,7.0,19.0,35.0,28.442925306655784,{}
170,402,3.0,70.45565981523414,5.0990195135927845,8.246211251235321,19.026297590440446,19.1049731745428,20.223748416156685,30.59411708155671,22.36067977499789,23.5,25.0,17.0,1.0,9.0,2.0,2.0,7.071067811865476,7.280109889280518,7.0,17.0,35.0,32.55764119219941,{}
171,403,3.1622776601683795,69.35416353759881,6.082762530298219,8.06225774829855,19.1049731745428,19.026297590440446,19.4164878389476,30.80584360149873,22.80350850198276,23.5,24.0,17.0,1.5,9.5,1.5,2.5,7.071067811865476,7.280109889280518,7.0,18.0,34.0,33.37663853655727,{}
172,404,5.0990195135927845,68.3593446428504,6.082762530298219,9.055385138137416,18.110770276274835,19.026297590440446,20.223748416156685,30.59411708155671,21.587033144922906,23.5,24.0,17.0,0.5,9.5,0.5,3.5,8.06225774829855,7.280109889280518,7.0,19.0,35.0,34.36568055487916,{}
173,405,7.071067811865476,73.68174807915459,6.082762530298219,10.198039027185567,18.110770276274835,19.1049731745428,20.39607805437113,30.083217912982647,19.92485884517128,22.5,24.0,14.0,1.0,10.0,1.0,5.0,8.06225774829855,7.615773105863909,7.5,22.0,39.0,34.52535300326414,{}
174,406,6.082762530298219,69.26037828369117,6.082762530298219,9.055385138137416,18.110770276274835,18.027756377319943,20.223748416156685,29.61418578992169,20.615528128088304,23.0,24.0,18.0,1.0,8.0,1.0,3.0,7.071067811865476,8.246211251235321,8.0,17.0,35.0,32.38826948140329,{}
175,407,3.0,69.72087205421343,5.0990195135927845,9.219544457292889,17.11724276862369,19.235384061671343,18.43908891458577,29.8328677803526,20.615528128088304,21.5,25.0,15.0,2.0,9.0,0.0,1.0,7.071067811865476,7.280109889280518,7.5,16.0,36.0,33.54101966249684,{}
176,408,2.23606797749979,70.57619995437555,5.0990195135927845,8.06225774829855,19.1049731745428,20.024984394500787,18.43908891458577,29.8328677803526,21.840329667841555,22.0,25.0,16.0,2.5,8.5,0.5,0.5,7.071067811865476,7.071067811865476,7.5,14.0,28.0,20.615528128088304,{}
177,409,3.1622776601683795,68.46897107449476,6.0,10.04987562112089,18.110770276274835,18.110770276274835,18.68154169226941,31.78049716414141,21.840329667841555,22.5,25.0,17.0,3.0,10.0,0.0,1.0,7.071067811865476,7.280109889280518,7.5,15.0,30.0,20.615528128088304,{}
178,410,1.4142135623730951,69.46221994724903,4.123105625617661,7.280109889280518,18.110770276274835,19.1049731745428,19.235384061671343,29.8328677803526,22.56102834535696,22.5,26.0,18.0,3.0,7.0,0.0,1.0,6.082762530298219,6.324555320336759,6.0,15.0,34.0,28.861739379323623,{}
179,411,1.0,65.49045732013177,5.0,7.280109889280518,18.110770276274835,19.026297590440446,18.43908891458577,30.80584360149873,23.53720459187964,23.0,27.0,19.0,5.0,7.0,0.0,2.0,5.0990195135927845,4.47213595499958,4.5,15.0,29.0,27.459060435491963,{}
180,412,1.4142135623730951,57.55866572463264,4.123105625617661,7.071067811865476,15.132745950421556,16.1245154965971,19.1049731745428,31.400636936215164,24.33105012119288,23.5,29.0,21.0,6.0,6.0,1.0,3.0,7.071067811865476,7.280109889280518,7.0,16.0,36.0,28.635642126552707,{}
181,413,3.1622776601683795,58.54912467321779,4.0,7.071067811865476,16.1245154965971,17.029386365926403,19.4164878389476,33.54101966249684,26.476404589747453,24.5,30.0,22.0,7.0,7.0,0.0,4.0,7.280109889280518,8.246211251235321,8.0,16.0,36.0,29.42787793912432,{}
182,414,2.23606797749979,57.55866572463264,4.123105625617661,7.071067811865476,16.1245154965971,17.029386365926403,20.223748416156685,33.54101966249684,26.476404589747453,25.0,31.0,23.0,7.0,6.0,1.0,4.0,5.0990195135927845,6.324555320336759,6.0,15.0,32.0,27.459060435491963,{}
183,415,3.1622776601683795,60.8276253029822,5.0990195135927845,8.06225774829855,17.26267650163207,19.235384061671343,19.235384061671343,35.510561809129406,27.459060435491963,25.5,33.0,23.0,9.0,7.0,1.0,6.0,6.324555320336759,5.0990195135927845,5.5,13.0,28.0,21.587033144922906,{}
184,416,3.1622776601683795,61.814237842102365,5.0990195135927845,7.071067811865476,17.11724276862369,18.110770276274835,20.39607805437113,35.6931365951495,28.635642126552707,26.5,33.0,23.0,8.0,7.0,0.0,5.0,7.071067811865476,6.082762530298219,6.0,15.0,30.0,25.495097567963924,{}
185,417,3.1622776601683795,60.67124524847005,5.0990195135927845,8.06225774829855,16.278820596099706,18.110770276274835,19.1049731745428,35.35533905932738,27.29468812791236,25.5,32.0,23.0,8.5,7.5,0.5,5.5,6.082762530298219,6.082762530298219,6.0,17.0,33.0,28.284271247461906,{}
186,418,3.1622776601683795,60.67124524847005,5.0990195135927845,8.06225774829855,18.110770276274835,18.24828759089466,19.1049731745428,35.35533905932738,27.29468812791236,25.5,32.0,23.0,8.5,7.5,0.5,5.5,6.082762530298219,6.082762530298219,6.0,18.0,32.0,27.16615541441225,{}
187,419,3.1622776601683795,60.67124524847005,5.0990195135927845,8.06225774829855,18.110770276274835,18.24828759089466,19.1049731745428,35.35533905932738,27.29468812791236,25.5,32.0,23.0,8.5,7.5,0.5,5.5,6.082762530298219,6.082762530298219,6.0,18.0,32.0,27.16615541441225,{}
188,420,3.1622776601683795,58.54912467321779,5.0,8.06225774829855,17.26267650163207,18.110770276274835,19.235384061671343,35.35533905932738,27.29468812791236,25.5,32.0,24.0,9.0,7.0,0.0,6.0,6.324555320336759,5.0990195135927845,5.5,15.0,30.0,27.65863337187866,{}
189,421,3.1622776601683795,60.53098380168623,5.0990195135927845,8.06225774829855,16.1245154965971,17.11724276862369,20.09975124224178,36.345563690772494,28.284271247461906,26.5,33.0,25.0,9.0,7.0,1.0,6.0,5.385164807134504,5.0990195135927845,5.5,17.0,32.0,27.459060435491963,{}
190,422,5.0,60.40695324215582,5.0990195135927845,8.06225774829855,18.110770276274835,19.1049731745428,20.09975124224178,38.2099463490856,30.14962686336267,27.5,33.0,26.0,9.5,8.5,0.5,5.5,6.324555320336759,5.0990195135927845,5.5,15.0,28.0,27.29468812791236,{}
191,423,3.0,59.53990258641679,5.0990195135927845,9.055385138137416,17.11724276862369,17.11724276862369,20.223748416156685,37.33630940518894,28.284271247461906,26.5,34.0,26.0,10.0,7.0,1.0,6.0,6.324555320336759,5.0990195135927845,5.0,16.0,28.0,22.20360331117452,{}
192,424,2.23606797749979,59.4138031100518,6.0,8.06225774829855,17.11724276862369,18.110770276274835,19.1049731745428,35.22782990761707,27.16615541441225,26.0,33.0,26.0,10.5,5.5,1.5,6.5,6.082762530298219,6.082762530298219,6.0,18.0,31.0,27.16615541441225,{}
193,425,4.123105625617661,63.38769596696192,4.123105625617661,8.06225774829855,17.11724276862369,19.1049731745428,20.09975124224178,36.345563690772494,28.284271247461906,26.0,33.0,26.0,9.5,6.5,1.5,6.5,6.082762530298219,6.082762530298219,6.0,16.0,28.0,23.345235059857504,{}
194,426,4.123105625617661,60.40695324215582,5.0990195135927845,8.06225774829855,18.027756377319943,19.1049731745428,20.024984394500787,37.21558813185679,29.154759474226505,27.0,34.0,27.0,10.5,6.5,0.5,6.5,5.0990195135927845,5.0990195135927845,5.0,17.0,28.0,22.36067977499789,{}
195,427,4.123105625617661,62.39390995922599,4.0,7.071067811865476,18.110770276274835,19.1049731745428,21.095023109728988,36.22154055254967,29.154759474226505,27.0,34.0,27.0,9.5,5.5,1.5,6.5,4.123105625617661,4.123105625617661,4.0,19.0,31.0,28.16025568065745,{}
196,428,2.0,58.30951894845301,5.0,6.082762530298219,16.1245154965971,16.1245154965971,20.09975124224178,33.13608305156178,27.073972741361768,26.0,31.0,25.0,8.0,5.0,1.0,5.0,3.605551275463989,3.1622776601683795,3.5,18.0,30.0,27.16615541441225,{}
197,429,3.0,58.30951894845301,5.0,7.071067811865476,17.029386365926403,18.027756377319943,20.09975124224178,35.12833614050059,28.0713376952364,26.5,32.0,26.0,9.0,6.0,1.0,5.0,3.605551275463989,3.0,3.0,18.0,30.0,26.30589287593181,{}
198,430,2.23606797749979,62.20128616033595,5.0,7.071067811865476,17.029386365926403,18.110770276274835,20.024984394500787,34.132096331752024,27.073972741361768,26.0,32.0,27.0,9.5,4.5,1.5,5.5,3.1622776601683795,2.0,2.5,16.0,26.0,17.26267650163207,{}
199,431,2.0,63.07138812488592,6.082762530298219,9.055385138137416,19.026297590440446,19.026297590440446,20.024984394500787,37.12142238654117,28.0713376952364,27.0,31.0,28.0,9.5,7.5,2.5,5.5,5.0990195135927845,5.0990195135927845,5.0,18.0,25.0,20.223748416156685,{}
200,432,4.123105625617661,62.12889826803627,6.0,11.0,18.0,19.0,19.026297590440446,40.049968789001575,29.068883707497267,27.0,32.0,28.0,11.0,10.0,2.0,6.0,4.123105625617661,4.123105625617661,4.5,18.0,28.0,26.30589287593181,{}
201,433,9.0,59.07622195096772,7.0,12.041594578792296,15.0,16.0,20.223748416156685,48.16637831516918,36.12478373637688,31.5,34.0,31.0,12.5,15.5,2.5,5.5,6.082762530298219,5.385164807134504,5.5,18.0,28.0,27.29468812791236,{}
202,434,10.04987562112089,61.07372593840988,7.0,11.0,17.0,19.026297590440446,19.1049731745428,47.09564735726647,36.12478373637688,31.0,34.0,31.0,13.5,14.5,2.5,6.5,5.0990195135927845,5.0990195135927845,5.0,18.0,25.0,22.09072203437452,{}
203,435,4.123105625617661,60.07495318350236,8.0,14.0356688476182,16.0,18.0,20.09975124224178,46.17358552246078,32.14031735997639,30.0,33.0,30.0,11.5,14.5,0.5,3.5,6.0,7.071067811865476,7.0,20.0,29.0,26.30589287593181,{}
204,436,0.0,67.06713054842886,7.0,13.038404810405298,18.027756377319943,18.0,20.09975124224178,40.11234224026316,27.073972741361768,27.0,29.0,26.0,7.5,12.5,0.5,1.5,7.0,7.071067811865476,7.0,18.0,30.0,29.42787793912432,{}
205,437,1.0,69.06518659932803,6.082762530298219,12.041594578792296,18.027756377319943,19.0,22.02271554554524,39.11521443121589,27.073972741361768,27.5,28.0,25.0,4.5,12.5,0.5,0.5,7.0,6.082762530298219,6.5,19.0,28.0,30.066592756745816,{}
206,438,2.23606797749979,60.07495318350236,4.0,8.06225774829855,15.033296378372908,16.0,24.020824298928627,38.11823710509184,30.066592756745816,29.0,29.0,26.0,3.5,10.5,1.5,0.5,7.071067811865476,7.071067811865476,7.0,20.0,29.0,29.154759474226505,{}
207,439,1.4142135623730951,60.07495318350236,5.0,8.06225774829855,16.0,17.029386365926403,23.021728866442675,37.12142238654117,29.068883707497267,28.5,29.0,26.0,4.5,9.5,1.5,0.5,8.0,7.071067811865476,7.0,18.0,28.0,32.14031735997639,{}
208,440,0.0,65.03076195155643,5.0,9.055385138137416,17.029386365926403,18.0,23.021728866442675,37.05401462729781,28.0178514522438,28.0,28.0,26.0,4.0,10.0,0.0,0.0,7.071067811865476,7.071067811865476,7.0,20.0,29.0,30.14962686336267,{}
209,441,2.23606797749979,64.03124237432849,5.0,10.0,16.0,17.0,21.02379604162864,34.058772731852805,24.08318915758459,25.0,26.0,24.0,4.0,9.0,2.0,0.0,6.0,6.082762530298219,6.0,18.0,27.0,28.0713376952364,{}
210,442,1.0,63.0317380372777,5.0,10.0,17.0,17.029386365926403,21.02379604162864,36.05551275463989,26.0768096208106,26.0,26.0,24.0,4.0,11.0,0.0,0.0,5.0,6.082762530298219,5.5,19.0,26.0,29.017236257093817,{}
211,443,1.0,66.007575322837,5.0,12.0,17.0,19.026297590440446,21.095023109728988,37.05401462729781,25.079872407968907,25.5,26.0,25.0,4.5,11.5,1.5,0.5,6.0,6.082762530298219,6.5,19.0,28.0,26.1725046566048,{}
212,444,1.0,66.007575322837,6.0,11.0,18.0,19.0,21.02379604162864,37.01351104664349,26.019223662515376,26.5,26.0,25.0,4.5,11.5,1.5,0.5,6.0,7.071067811865476,7.0,19.0,27.0,28.0713376952364,{}
213,445,2.0,67.02984409947557,5.0,10.0,18.027756377319943,19.0,22.0,39.0,29.0,28.0,26.0,24.0,3.0,14.0,3.0,0.0,6.0,6.082762530298219,6.0,20.0,28.0,30.14962686336267,{}
214,446,3.0,68.0,4.0,9.0,19.0,20.024984394500787,22.0,38.0,29.0,27.5,24.0,24.0,2.0,14.0,4.0,1.0,5.0,6.082762530298219,6.0,22.0,28.0,27.16615541441225,{}
215,447,3.0,66.0,4.0,7.0,18.0,19.026297590440446,21.02379604162864,35.0142828000232,28.0178514522438,26.5,24.0,24.0,3.0,11.0,3.0,0.0,6.0,6.0,6.5,24.0,30.0,28.0713376952364,{}
216,448,0.0,68.00735254367721,4.123105625617661,7.0,18.0,19.026297590440446,20.0,31.016124838541646,24.020824298928627,24.0,21.0,22.0,1.5,9.5,1.5,1.5,5.0,5.0,5.0,21.0,25.0,29.017236257093817,{}
217,449,0.0,65.00769185258002,4.0,8.0,18.0,19.0,20.024984394500787,32.01562118716424,24.020824298928627,24.0,21.0,22.0,1.5,10.5,1.5,1.5,4.0,5.0,5.0,21.0,25.0,28.0713376952364,{}
218,450,0.0,64.00781202322104,3.0,8.0,19.026297590440446,19.026297590440446,18.027756377319943,29.017236257093817,21.02379604162864,21.0,18.0,19.0,0.5,10.5,1.5,2.5,3.0,3.0,3.5,22.0,26.0,26.1725046566048,{}
219,451,1.0,67.00746227100382,3.0,8.06225774829855,20.024984394500787,21.02379604162864,18.027756377319943,29.017236257093817,21.0,21.0,19.0,20.0,1.5,9.5,0.5,1.5,4.0,4.0,4.0,22.0,26.0,26.1725046566048,{}
220,452,2.0,64.00781202322104,3.1622776601683795,9.0,19.026297590440446,19.026297590440446,18.027756377319943,32.0624390837628,23.08679276123039,22.0,18.0,19.0,0.5,13.5,3.5,1.5,4.0,4.0,4.0,21.0,23.0,28.0178514522438,{}
221,453,6.0,66.03029607687671,3.1622776601683795,10.04987562112089,20.09975124224178,20.09975124224178,18.027756377319943,37.12142238654117,27.073972741361768,24.0,21.0,23.0,4.0,15.0,3.0,1.0,5.0,5.0,5.0,21.0,24.0,26.0,{}
222,454,6.082762530298219,67.00746227100382,4.0,10.04987562112089,19.026297590440446,20.024984394500787,17.029386365926403,37.12142238654117,27.073972741361768,24.0,22.0,23.0,5.5,14.5,3.5,1.5,7.0,6.082762530298219,6.0,22.0,26.0,27.0,{}
223,455,5.0,67.00746227100382,4.123105625617661,10.04987562112089,20.024984394500787,20.024984394500787,18.027756377319943,37.12142238654117,27.073972741361768,24.5,22.0,23.0,4.5,14.5,3.5,0.5,5.0,5.0,5.0,21.0,22.0,21.213203435596427,{}
224,456,5.0990195135927845,65.00769185258002,4.0,8.0,19.026297590440446,20.024984394500787,18.027756377319943,35.05709628591621,27.073972741361768,24.5,20.0,21.0,2.5,14.5,5.5,0.5,5.0,4.0,4.5,21.0,25.0,29.154759474226505,{}
225,457,4.0,63.00793600809346,3.0,7.0,19.0,20.0,18.027756377319943,32.01562118716424,25.019992006393608,23.0,20.0,21.0,2.5,11.5,3.5,0.5,5.0,5.0,5.5,21.0,25.0,24.08318915758459,{}
226,458,2.0,64.00781202322104,4.0,9.055385138137416,20.0,21.0,17.0,32.01562118716424,23.0,22.0,22.0,21.0,4.5,10.5,0.5,1.5,5.0,5.0,4.5,20.0,26.0,25.079872407968907,{}
227,459,2.0,64.00781202322104,4.0,9.055385138137416,20.0,21.0,17.0,32.01562118716424,23.0,22.0,22.0,21.0,4.5,10.5,0.5,1.5,5.0,5.0,4.5,20.0,26.0,25.079872407968907,{}
228,460,1.0,67.0,4.0,10.04987562112089,19.026297590440446,21.0,16.0312195418814,31.064449134018133,21.02379604162864,20.5,21.0,21.0,5.0,10.0,1.0,1.0,4.0,4.0,4.0,20.0,27.0,24.020824298928627,{}
229,461,1.0,67.00746227100382,4.0,9.0,20.0,21.0,17.0,31.0,22.0,21.5,23.0,22.0,5.5,8.5,1.5,2.5,6.082762530298219,6.0,6.0,22.0,29.0,28.0713376952364,{}
230,462,1.0,69.0,6.0,10.0,20.024984394500787,22.02271554554524,16.0312195418814,33.015148038438355,23.021728866442675,22.5,23.0,23.0,7.0,10.0,1.0,1.0,5.0,6.082762530298219,5.5,20.0,26.0,28.0713376952364,{}
231,463,7.071067811865476,67.00746227100382,4.0,8.0,20.0,21.02379604162864,17.029386365926403,36.0,28.0,24.5,23.0,22.0,5.5,13.5,3.5,2.5,5.0,5.0990195135927845,5.0,21.0,28.0,32.0624390837628,{}
232,464,5.0,66.0,5.0,9.0,20.024984394500787,22.02271554554524,17.029386365926403,36.013886210738214,27.018512172212592,24.5,24.0,24.0,7.0,12.0,2.0,3.0,6.0,6.0,6.0,20.0,27.0,31.064449134018133,{}
233,465,9.0,64.00781202322104,4.0,10.0,18.0,20.0,16.0,39.0,29.0,24.5,25.0,24.0,8.5,14.5,3.5,4.5,6.0,7.071067811865476,6.5,20.0,29.0,31.14482300479488,{}
234,466,8.0,66.03029607687671,3.0,9.055385138137416,19.0,20.0,17.029386365926403,37.0,28.0178514522438,24.0,25.0,23.0,7.0,13.0,3.0,4.0,6.0,7.071067811865476,7.0,18.0,28.0,30.4138126514911,{}
235,467,6.082762530298219,65.00769185258002,4.0,7.0,19.0,20.0,17.029386365926403,34.0,27.0,24.0,23.0,22.0,5.5,11.5,3.5,2.5,4.0,4.0,4.0,21.0,26.0,26.0768096208106,{}
236,468,7.071067811865476,65.00769185258002,4.123105625617661,7.0,19.0,20.0,16.0,34.0,27.0,23.5,23.0,22.0,6.5,11.5,3.5,3.5,5.0990195135927845,5.0990195135927845,5.5,21.0,26.0,26.019223662515376,{}
237,469,4.0,65.00769185258002,3.0,8.0,19.0,19.026297590440446,17.0,32.0,24.0,22.0,21.0,22.0,4.5,10.5,1.5,2.5,4.0,4.0,4.5,20.0,26.0,26.0768096208106,{}
238,470,1.0,64.0,4.0,10.0,19.0,19.0,16.0312195418814,31.016124838541646,21.02379604162864,20.5,22.0,22.0,6.0,9.0,2.0,3.0,5.0,6.0,6.0,20.0,26.0,28.0178514522438,{}
239,471,2.23606797749979,70.00714249274856,7.0,10.0,21.02379604162864,22.02271554554524,16.0312195418814,35.0,25.0,24.0,25.0,24.0,8.5,10.5,0.5,2.5,6.082762530298219,7.071067811865476,7.0,19.0,29.0,26.30589287593181,{}
240,472,1.4142135623730951,65.03076195155643,6.0,11.04536101718726,19.0,21.0,17.029386365926403,35.0142828000232,24.0,23.5,24.0,22.0,6.0,12.0,0.0,1.0,6.0,7.071067811865476,6.5,21.0,30.0,33.24154027718932,{}
241,473,1.4142135623730951,67.00746227100382,6.0,10.0,20.0,21.02379604162864,17.11724276862369,34.0147027033899,24.020824298928627,23.5,24.0,23.0,6.5,10.5,0.5,1.5,5.0990195135927845,7.071067811865476,7.0,18.0,29.0,35.22782990761707,{}
242,474,1.4142135623730951,65.00769185258002,7.0,12.0,18.0,20.0,18.027756377319943,38.0,26.0,25.5,26.0,25.0,7.5,12.5,0.5,1.5,5.0,6.0,6.0,22.0,30.0,29.068883707497267,{}
243,475,2.23606797749979,64.03124237432849,7.0,13.0,18.0,20.0,19.0,41.01219330881976,28.0178514522438,27.0,28.0,26.0,8.0,14.0,0.0,2.0,7.0,7.071067811865476,7.5,20.0,29.0,25.317977802344327,{}
244,476,1.4142135623730951,64.00781202322104,7.0,13.0,18.0,19.0,20.024984394500787,41.0,28.0,27.5,27.0,26.0,6.5,14.5,0.5,0.5,7.0,6.082762530298219,6.5,20.0,28.0,28.0713376952364,{}
245,477,2.23606797749979,63.07138812488592,7.0,13.0,17.029386365926403,18.0,19.0,41.01219330881976,28.0178514522438,27.0,28.0,25.0,7.5,14.5,0.5,1.5,6.0,7.280109889280518,7.0,21.0,31.0,25.317977802344327,{}
246,478,1.0,63.0317380372777,7.0,13.038404810405298,17.0,18.027756377319943,19.0,40.01249804748511,27.0,26.5,27.0,25.0,7.0,14.0,0.0,1.0,7.0,8.06225774829855,8.0,19.0,31.0,26.30589287593181,{}
247,479,2.0,63.0317380372777,7.0,13.038404810405298,17.0,19.0,20.0,42.01190307520001,29.0,28.0,28.0,26.0,7.0,15.0,1.0,1.0,5.0,7.0,6.5,20.0,30.0,26.1725046566048,{}
248,480,2.0,64.03124237432849,7.0,13.038404810405298,18.0,19.0,20.0,42.01190307520001,29.0,28.0,28.0,26.0,7.0,15.0,1.0,1.0,8.0,8.06225774829855,8.0,24.0,32.0,29.068883707497267,{}
249,481,3.1622776601683795,65.03076195155643,6.0,12.0,18.027756377319943,19.0,19.0,40.01249804748511,28.0178514522438,26.5,28.0,26.0,8.0,13.0,0.0,3.0,6.0,7.071067811865476,7.0,21.0,31.0,29.154759474226505,{}
250,482,4.0,64.00781202322104,6.082762530298219,12.041594578792296,17.0,19.0,20.0,42.04759208325728,30.01666203960727,28.0,27.0,26.0,6.5,15.5,2.5,1.5,8.0,8.06225774829855,8.0,20.0,31.0,29.27456233660889,{}
251,483,4.0,64.00781202322104,6.082762530298219,12.041594578792296,17.0,19.0,20.0,42.04759208325728,30.01666203960727,28.0,27.0,26.0,6.5,15.5,2.5,1.5,8.0,8.06225774829855,8.0,20.0,31.0,29.27456233660889,{}
252,484,7.0,64.07027391856539,5.0990195135927845,10.04987562112089,19.026297590440446,20.0,19.026297590440446,41.10960958218893,31.064449134018133,27.5,27.0,24.0,6.5,15.5,4.5,2.5,6.0,6.082762530298219,6.0,19.0,29.0,26.0768096208106,{}
253,485,6.0,64.07027391856539,6.082762530298219,10.04987562112089,19.0,21.0,19.0,41.04875150354759,31.016124838541646,28.0,27.0,24.0,6.5,15.5,4.5,1.5,6.0,7.071067811865476,7.0,20.0,32.0,31.25699921617557,{}
254,486,3.1622776601683795,61.07372593840988,5.0,9.0,17.0,18.0,20.024984394500787,37.05401462729781,28.0713376952364,26.5,27.0,24.0,5.5,11.5,1.5,1.5,6.0,6.082762530298219,6.5,19.0,30.0,31.14482300479488,{}
255,487,4.123105625617661,61.032778078668514,5.0,9.0,18.027756377319943,19.0,20.024984394500787,38.05259518088089,29.068883707497267,27.0,27.0,25.0,6.0,12.0,2.0,2.0,6.0,6.082762530298219,6.5,18.0,28.0,29.154759474226505,{}
256,488,4.123105625617661,61.032778078668514,5.0,9.0,18.027756377319943,19.0,20.024984394500787,38.05259518088089,29.068883707497267,27.0,27.0,25.0,6.0,12.0,2.0,2.0,6.0,6.082762530298219,6.5,18.0,28.0,29.154759474226505,{}
257,489,2.0,64.03124237432849,6.0,10.04987562112089,19.0,20.0,20.024984394500787,38.05259518088089,28.0178514522438,27.0,28.0,26.0,7.0,11.0,0.0,2.0,6.0,7.280109889280518,7.0,19.0,28.0,29.154759474226505,{}
258,490,2.23606797749979,64.03124237432849,5.0,9.0,18.027756377319943,20.024984394500787,20.0,36.013886210738214,27.018512172212592,26.0,26.0,24.0,5.0,11.0,1.0,1.0,7.0,7.071067811865476,7.0,19.0,29.0,29.27456233660889,{}
259,491,0.0,60.00833275470999,6.082762530298219,9.055385138137416,18.027756377319943,19.0,21.02379604162864,36.12478373637688,27.073972741361768,27.0,27.0,26.0,5.5,9.5,0.5,1.5,7.071067811865476,6.082762530298219,6.5,19.0,29.0,28.0713376952364,{}
260,492,1.4142135623730951,62.00806399170998,6.0,9.0,18.0,19.0,19.1049731745428,35.12833614050059,26.1725046566048,25.5,26.0,25.0,6.5,9.5,0.5,1.5,7.0,6.082762530298219,6.5,21.0,30.0,31.016124838541646,{}
261,493,1.4142135623730951,62.00806399170998,6.0,9.0,18.0,19.0,19.1049731745428,35.12833614050059,26.1725046566048,25.5,26.0,25.0,6.5,9.5,0.5,1.5,7.0,6.082762530298219,6.5,21.0,30.0,31.016124838541646,{}
262,494,2.0,61.032778078668514,5.0,8.06225774829855,18.0,19.0,21.02379604162864,36.05551275463989,28.0178514522438,27.0,28.0,26.0,6.0,9.0,0.0,2.0,6.0,6.082762530298219,6.5,18.0,24.0,20.09975124224178,{}
263,495,2.23606797749979,60.03332407921454,5.0,8.0,18.0,18.027756377319943,21.02379604162864,36.05551275463989,28.0713376952364,27.0,28.0,26.0,6.0,9.0,0.0,2.0,6.0,6.082762530298219,6.5,20.0,26.0,24.08318915758459,{}
264,496,1.4142135623730951,64.07027391856539,6.0,9.055385138137416,18.0,19.0,20.024984394500787,36.12478373637688,27.073972741361768,26.5,29.0,26.0,7.5,8.5,1.5,2.5,7.0,6.082762530298219,6.5,19.0,26.0,23.194827009486403,{}
265,497,1.4142135623730951,60.03332407921454,6.0,10.04987562112089,17.0,18.0,20.024984394500787,37.12142238654117,27.073972741361768,26.5,28.0,26.0,7.0,10.0,0.0,2.0,5.0990195135927845,5.0990195135927845,5.5,18.0,26.0,24.08318915758459,{}
266,498,1.4142135623730951,60.03332407921454,6.0,10.04987562112089,17.0,18.0,20.024984394500787,37.12142238654117,27.073972741361768,26.5,28.0,26.0,7.0,10.0,0.0,2.0,5.0990195135927845,5.0990195135927845,5.5,18.0,26.0,24.08318915758459,{}
267,499,1.4142135623730951,60.07495318350236,5.0,9.055385138137416,16.0,18.027756377319943,20.024984394500787,35.12833614050059,26.0768096208106,25.5,28.0,25.0,6.5,8.5,0.5,2.5,5.0990195135927845,5.0990195135927845,5.0,19.0,29.0,26.1725046566048,{}
268,500,2.23606797749979,61.07372593840988,5.0,9.0,18.027756377319943,19.0,20.09975124224178,36.12478373637688,27.16615541441225,26.0,29.0,26.0,7.5,8.5,1.5,3.5,5.0990195135927845,4.123105625617661,4.0,17.0,26.0,19.235384061671343,{}
269,501,1.0,65.12296062065974,5.0990195135927845,10.04987562112089,18.027756377319943,20.0,19.1049731745428,35.22782990761707,25.179356624028344,24.5,28.0,24.0,7.0,9.0,1.0,3.0,9.0,10.198039027185567,10.0,18.0,37.0,33.734255586866,{}
270,502,2.23606797749979,61.20457499239743,4.0,9.055385138137416,18.027756377319943,19.026297590440446,20.024984394500787,35.12833614050059,26.0768096208106,25.0,29.0,24.0,6.5,8.5,0.5,3.5,3.605551275463989,2.23606797749979,2.0,18.0,29.0,27.073972741361768,{}
271,503,1.0,65.19202405202648,6.082762530298219,11.04536101718726,18.110770276274835,19.026297590440446,19.026297590440446,37.12142238654117,26.0768096208106,25.5,30.0,25.0,8.5,9.5,1.5,4.5,3.605551275463989,3.1622776601683795,2.5,18.0,30.0,27.459060435491963,{}
272,504,3.0,67.11929677819934,5.0990195135927845,10.04987562112089,18.027756377319943,19.026297590440446,20.024984394500787,38.11823710509184,28.0713376952364,26.5,29.0,25.0,7.0,11.0,1.0,3.0,3.1622776601683795,4.123105625617661,4.0,16.0,24.0,24.08318915758459,{}
273,505,2.23606797749979,67.26812023536856,5.0,10.04987562112089,19.026297590440446,19.1049731745428,20.09975124224178,37.21558813185679,27.16615541441225,26.0,29.0,23.0,6.0,11.0,1.0,2.0,3.1622776601683795,4.123105625617661,4.0,17.0,32.0,27.459060435491963,{}
274,506,1.0,65.19202405202648,5.0990195135927845,10.04987562112089,18.027756377319943,19.026297590440446,19.026297590440446,35.12833614050059,25.079872407968907,24.5,28.0,23.0,6.5,9.5,0.5,2.5,4.47213595499958,5.385164807134504,5.0,17.0,34.0,30.80584360149873,{}
275,507,1.0,69.26037828369117,6.082762530298219,10.04987562112089,20.024984394500787,21.095023109728988,18.0,34.132096331752024,24.08318915758459,24.0,27.0,21.0,6.0,10.0,1.0,2.0,5.0990195135927845,4.123105625617661,4.5,17.0,33.0,29.61418578992169,{}
276,508,1.0,68.3593446428504,6.0,10.198039027185567,19.026297590440446,20.024984394500787,19.026297590440446,35.22782990761707,25.079872407968907,25.0,29.0,22.0,6.5,9.5,0.5,2.5,4.123105625617661,5.385164807134504,4.5,17.0,33.0,28.442925306655784,{}
277,509,1.0,70.25667228100119,6.082762530298219,11.04536101718726,20.09975124224178,20.024984394500787,18.027756377319943,35.22782990761707,24.186773244895647,24.0,28.0,22.0,7.0,10.0,1.0,3.0,3.605551275463989,3.1622776601683795,3.0,17.0,29.0,23.08679276123039,{}
278,510,0.0,70.25667228100119,5.0990195135927845,10.198039027185567,19.1049731745428,20.09975124224178,19.1049731745428,34.36568055487916,24.186773244895647,24.0,28.0,22.0,6.0,9.0,1.0,3.0,5.0990195135927845,5.0990195135927845,5.0,17.0,29.0,22.56102834535696,{}
279,511,2.0,74.33034373659252,4.0,10.04987562112089,21.02379604162864,22.09072203437452,19.1049731745428,33.37663853655727,23.345235059857504,23.0,28.0,21.0,5.5,8.5,1.5,2.5,4.123105625617661,4.123105625617661,4.0,16.0,28.0,21.213203435596427,{}
280,512,1.0,79.30952023559341,4.0,8.06225774829855,22.02271554554524,22.09072203437452,18.110770276274835,30.26549190084312,22.20360331117452,22.0,25.0,18.0,3.5,8.5,0.5,0.5,4.123105625617661,3.0,3.0,17.0,28.0,19.235384061671343,{}
281,513,1.0,79.40403012442127,5.0990195135927845,9.055385138137416,21.095023109728988,22.09072203437452,17.029386365926403,30.14962686336267,21.095023109728988,21.5,25.0,17.0,4.0,9.0,0.0,1.0,3.605551275463989,3.1622776601683795,3.0,15.0,28.0,19.235384061671343,{}
282,514,1.4142135623730951,74.33034373659252,3.0,8.06225774829855,21.095023109728988,21.02379604162864,18.027756377319943,28.16025568065745,20.09975124224178,20.5,25.0,18.0,3.5,6.5,1.5,2.5,3.1622776601683795,4.123105625617661,4.0,16.0,30.0,22.80350850198276,{}
283,515,1.0,75.4254598925323,3.1622776601683795,7.071067811865476,21.095023109728988,21.213203435596427,18.110770276274835,28.442925306655784,21.37755832643195,21.0,26.0,18.0,4.0,6.0,1.0,3.0,4.123105625617661,4.123105625617661,4.0,15.0,29.0,21.37755832643195,{}
284,516,3.0,62.39390995922599,5.0990195135927845,8.246211251235321,18.027756377319943,19.026297590440446,17.26267650163207,33.54101966249684,25.317977802344327,23.5,30.0,23.0,9.5,6.5,1.5,5.5,5.385164807134504,5.0990195135927845,5.0,15.0,30.0,26.30589287593181,{}
285,517,4.123105625617661,64.28063471995279,6.0,7.071067811865476,17.11724276862369,18.110770276274835,16.492422502470642,33.54101966249684,26.476404589747453,24.0,29.0,23.0,10.0,7.0,0.0,6.0,5.0990195135927845,5.385164807134504,5.0,16.0,30.0,26.476404589747453,{}
286,518,4.123105625617661,65.49045732013177,5.0990195135927845,7.071067811865476,18.110770276274835,19.1049731745428,18.110770276274835,34.36568055487916,27.29468812791236,25.0,30.0,22.0,8.0,8.0,1.0,5.0,5.0990195135927845,4.123105625617661,4.5,16.0,32.0,27.892651361962702,{}
287,519,1.0,68.3593446428504,5.0,8.06225774829855,19.1049731745428,21.213203435596427,17.11724276862369,30.26549190084312,22.20360331117452,22.0,28.0,21.0,7.5,5.5,2.5,4.5,4.47213595499958,4.123105625617661,4.0,16.0,28.0,21.37755832643195,{}
288,520,1.4142135623730951,68.46897107449476,6.0,10.198039027185567,20.09975124224178,20.09975124224178,16.278820596099706,31.575306807693888,21.37755832643195,21.5,28.0,20.0,8.0,7.0,2.0,4.0,4.47213595499958,5.0990195135927845,5.0,16.0,28.0,21.587033144922906,{}
289,521,2.23606797749979,63.38769596696192,6.0,11.04536101718726,18.027756377319943,19.1049731745428,15.524174696260024,34.52535300326414,23.53720459187964,22.0,29.0,22.0,10.5,8.5,2.5,5.5,4.47213595499958,3.1622776601683795,4.0,16.0,30.0,25.495097567963924,{}
290,522,4.123105625617661,62.39390995922599,5.0,9.055385138137416,19.1049731745428,20.09975124224178,17.26267650163207,35.35533905932738,26.30589287593181,24.0,31.0,24.0,10.5,7.5,2.5,6.5,4.123105625617661,4.123105625617661,4.5,15.0,28.0,21.587033144922906,{}
291,523,4.123105625617661,62.28964600958975,5.0,10.04987562112089,18.110770276274835,19.1049731745428,17.26267650163207,36.345563690772494,26.30589287593181,24.0,30.0,24.0,10.0,9.0,1.0,6.0,5.0990195135927845,5.0990195135927845,5.0,15.0,27.0,18.43908891458577,{}
292,524,3.1622776601683795,62.39390995922599,6.0,9.055385138137416,19.026297590440446,20.024984394500787,18.24828759089466,36.345563690772494,27.29468812791236,25.5,32.0,25.0,10.5,7.5,2.5,5.5,5.385164807134504,4.123105625617661,4.0,15.0,28.0,21.587033144922906,{}
293,525,1.4142135623730951,63.50590523722971,7.071067811865476,10.04987562112089,18.110770276274835,19.026297590440446,17.26267650163207,35.510561809129406,25.495097567963924,24.5,31.0,23.0,10.0,8.0,2.0,5.0,6.082762530298219,5.0990195135927845,5.5,15.0,32.0,28.861739379323623,{}
294,526,2.23606797749979,68.59300255857006,6.082762530298219,11.180339887498947,19.235384061671343,20.09975124224178,19.235384061671343,38.63935817272331,27.459060435491963,26.0,32.0,23.0,8.5,10.5,1.5,5.5,6.082762530298219,6.324555320336759,6.0,16.0,37.0,30.80584360149873,{}
295,527,2.23606797749979,63.50590523722971,6.0,12.041594578792296,17.029386365926403,18.110770276274835,18.24828759089466,38.3275357934736,26.30589287593181,25.0,31.0,23.0,9.0,11.0,1.0,4.0,6.082762530298219,7.280109889280518,7.0,15.0,36.0,28.635642126552707,{}
296,528,2.0,64.4980619863884,7.071067811865476,12.16552506059644,17.11724276862369,19.1049731745428,17.11724276862369,38.3275357934736,26.1725046566048,25.0,31.0,23.0,10.0,11.0,1.0,5.0,7.071067811865476,7.280109889280518,7.5,14.0,35.0,31.04834939252005,{}
297,529,2.23606797749979,66.61080993352356,5.0990195135927845,11.180339887498947,19.1049731745428,20.09975124224178,18.110770276274835,36.49657518178932,25.317977802344327,24.0,30.0,21.0,7.5,10.5,0.5,3.5,4.47213595499958,4.47213595499958,4.5,14.0,30.0,24.04163056034261,{}
298,530,1.4142135623730951,66.48308055437865,4.123105625617661,9.055385138137416,20.09975124224178,21.095023109728988,19.1049731745428,33.37663853655727,24.33105012119288,23.5,28.0,20.0,5.0,9.0,0.0,3.0,6.082762530298219,7.280109889280518,7.0,17.0,37.0,29.61418578992169,{}
299,531,2.23606797749979,66.75327707311455,4.123105625617661,9.055385138137416,20.09975124224178,21.095023109728988,17.11724276862369,31.575306807693888,22.56102834535696,21.5,27.0,17.0,5.0,9.0,0.0,3.0,5.0990195135927845,6.324555320336759,5.5,15.0,35.0,26.92582403567252,{}
300,532,2.23606797749979,66.91038783328041,4.123105625617661,8.246211251235321,20.223748416156685,20.223748416156685,19.235384061671343,33.734255586866,25.495097567963924,24.0,30.0,19.0,5.5,8.5,0.5,3.5,6.082762530298219,6.324555320336759,6.5,14.0,34.0,30.59411708155671,{}
301,533,1.0,64.77653896280658,5.0990195135927845,8.246211251235321,19.235384061671343,20.09975124224178,19.1049731745428,32.55764119219941,24.33105012119288,24.0,29.0,19.0,5.0,8.0,0.0,3.0,6.082762530298219,6.082762530298219,6.0,15.0,32.0,29.8328677803526,{}
302,534,1.4142135623730951,70.71067811865476,6.082762530298219,9.219544457292889,19.235384061671343,21.095023109728988,17.26267650163207,33.734255586866,24.515301344262525,23.5,28.0,18.0,6.0,10.0,1.0,3.0,8.06225774829855,8.246211251235321,8.5,21.0,39.0,30.59411708155671,{}
303,535,1.0,69.72087205421343,5.0990195135927845,9.219544457292889,19.235384061671343,19.1049731745428,18.24828759089466,32.7566787083184,23.53720459187964,23.0,27.0,17.0,4.0,10.0,2.0,2.0,9.055385138137416,9.486832980505138,9.0,23.0,40.0,33.37663853655727,{}
304,536,1.0,70.03570517957252,4.123105625617661,9.219544457292889,20.223748416156685,21.095023109728988,18.43908891458577,32.01562118716424,22.80350850198276,22.0,27.0,15.0,3.0,10.0,1.0,2.0,7.071067811865476,7.280109889280518,7.5,17.0,39.0,31.575306807693888,{}
305,537,1.4142135623730951,70.8590149522275,3.1622776601683795,8.246211251235321,21.213203435596427,22.20360331117452,18.110770276274835,30.59411708155671,22.36067977499789,21.5,27.0,16.0,3.5,8.5,0.5,2.5,7.071067811865476,6.708203932499369,6.5,19.0,39.0,30.59411708155671,{}
306,538,2.0,71.84705978674423,3.1622776601683795,8.06225774829855,21.095023109728988,21.213203435596427,18.110770276274835,29.61418578992169,21.587033144922906,21.0,26.0,15.0,2.5,8.5,0.5,1.5,7.071067811865476,8.54400374531753,8.0,18.0,38.0,30.59411708155671,{}
307,539,1.0,72.69112738154499,5.0990195135927845,9.219544457292889,19.235384061671343,20.223748416156685,18.24828759089466,32.7566787083184,23.53720459187964,23.0,27.0,17.0,4.0,10.0,2.0,2.0,8.06225774829855,8.54400374531753,8.0,23.0,40.0,34.36568055487916,{}
308,540,2.23606797749979,69.72087205421343,5.385164807134504,9.055385138137416,19.235384061671343,21.095023109728988,18.24828759089466,34.713109915419565,25.70992026436488,24.0,28.0,18.0,5.0,11.0,2.0,2.0,8.06225774829855,8.54400374531753,8.0,21.0,40.0,33.54101966249684,{}
309,541,1.4142135623730951,70.71067811865476,5.0990195135927845,10.198039027185567,19.1049731745428,20.09975124224178,19.235384061671343,35.6931365951495,25.495097567963924,24.5,28.0,18.0,4.0,12.0,2.0,1.0,7.071067811865476,6.708203932499369,6.5,19.0,38.0,32.55764119219941,{}
310,542,2.0,69.87131027825369,6.082762530298219,10.198039027185567,20.223748416156685,20.223748416156685,20.09975124224178,36.6742416417845,26.476404589747453,26.0,30.0,19.0,4.5,11.5,0.5,1.5,8.06225774829855,8.54400374531753,8.0,18.0,38.0,32.7566787083184,{}
311,543,1.4142135623730951,68.8839603971781,6.324555320336759,11.180339887498947,19.1049731745428,20.223748416156685,19.1049731745428,37.65634076752546,26.476404589747453,25.5,30.0,19.0,5.5,12.5,1.5,1.5,6.082762530298219,6.708203932499369,6.5,16.0,38.0,33.734255586866,{}
312,544,1.0,66.75327707311455,6.082762530298219,11.180339887498947,18.24828759089466,19.1049731745428,19.235384061671343,36.6742416417845,25.495097567963924,25.0,29.0,19.0,5.0,12.0,1.0,2.0,6.082762530298219,7.280109889280518,7.5,16.0,37.0,30.59411708155671,{}
313,545,1.4142135623730951,68.8839603971781,5.0990195135927845,10.198039027185567,19.235384061671343,19.1049731745428,19.235384061671343,35.6931365951495,25.495097567963924,24.5,29.0,18.0,4.5,11.5,1.5,1.5,9.055385138137416,8.246211251235321,8.0,22.0,39.0,34.36568055487916,{}
314,546,2.0,70.8590149522275,4.123105625617661,9.219544457292889,20.223748416156685,21.095023109728988,19.235384061671343,32.984845004941285,23.769728648009423,23.0,28.0,17.0,3.5,9.5,0.5,1.5,7.071067811865476,7.280109889280518,7.0,18.0,38.0,33.54101966249684,{}
315,547,1.0,69.87131027825369,4.123105625617661,9.219544457292889,20.09975124224178,21.095023109728988,18.24828759089466,31.78049716414141,22.56102834535696,22.0,27.0,16.0,3.5,9.5,1.5,1.5,5.0990195135927845,5.385164807134504,5.5,18.0,38.0,31.400636936215164,{}
316,548,2.0,70.03570517957252,4.123105625617661,9.219544457292889,19.1049731745428,20.223748416156685,18.24828759089466,32.01562118716424,22.80350850198276,22.0,28.0,16.0,4.0,9.0,1.0,2.0,5.385164807134504,5.385164807134504,5.5,17.0,38.0,32.38826948140329,{}
317,549,1.4142135623730951,71.02112361825881,4.123105625617661,9.219544457292889,20.223748416156685,21.213203435596427,18.24828759089466,32.7566787083184,23.53720459187964,22.5,29.0,17.0,5.0,9.0,1.0,3.0,7.071067811865476,7.615773105863909,7.5,20.0,39.0,30.59411708155671,{}
318,550,1.0,70.03570517957252,4.123105625617661,8.246211251235321,20.223748416156685,21.213203435596427,17.46424919657298,30.083217912982647,21.840329667841555,21.0,27.0,15.0,4.0,8.0,1.0,2.0,5.0990195135927845,5.385164807134504,5.0,20.0,38.0,32.55764119219941,{}
319,551,1.0,69.87131027825369,4.123105625617661,7.280109889280518,20.09975124224178,20.223748416156685,17.26267650163207,28.861739379323623,21.587033144922906,21.0,27.0,16.0,4.5,6.5,0.5,2.5,5.385164807134504,5.385164807134504,5.5,15.0,36.0,29.61418578992169,{}
320,552,2.0,67.89698078707183,3.1622776601683795,7.280109889280518,20.223748416156685,21.213203435596427,18.24828759089466,29.120439557122072,21.840329667841555,21.0,27.0,16.0,3.5,6.5,0.5,2.5,6.324555320336759,5.385164807134504,5.5,18.0,37.0,30.59411708155671,{}
321,553,2.0,68.8839603971781,3.1622776601683795,8.246211251235321,20.223748416156685,21.213203435596427,18.24828759089466,30.083217912982647,21.840329667841555,21.0,27.0,16.0,3.5,7.5,0.5,2.5,5.0990195135927845,5.385164807134504,5.5,17.0,39.0,29.61418578992169,{}
322,554,2.0,65.92419889539804,3.1622776601683795,8.06225774829855,18.24828759089466,19.235384061671343,18.24828759089466,29.8328677803526,21.840329667841555,21.0,27.0,16.0,3.5,7.5,0.5,2.5,7.071067811865476,6.324555320336759,6.5,20.0,38.0,30.4138126514911,{}
323,555,1.0,67.89698078707183,4.123105625617661,8.246211251235321,20.09975124224178,20.09975124224178,19.026297590440446,31.400636936215164,23.194827009486403,23.0,29.0,18.0,4.5,7.5,0.5,2.5,8.06225774829855,8.54400374531753,8.0,15.0,34.0,28.635642126552707,{}
324,556,1.0,69.87131027825369,5.0990195135927845,8.246211251235321,20.223748416156685,21.095023109728988,18.24828759089466,31.78049716414141,23.53720459187964,23.0,28.0,17.0,4.5,8.5,0.5,2.5,10.0,9.219544457292889,9.0,24.0,41.0,32.38826948140329,{}
325,557,1.4142135623730951,64.77653896280658,5.0990195135927845,7.280109889280518,18.110770276274835,19.1049731745428,18.24828759089466,31.78049716414141,24.515301344262525,23.5,28.0,18.0,5.0,8.0,2.0,2.0,6.0,7.280109889280518,7.0,18.0,37.0,32.55764119219941,{}
326,558,2.23606797749979,63.953107821277925,4.123105625617661,7.280109889280518,18.24828759089466,19.235384061671343,18.24828759089466,31.78049716414141,24.515301344262525,23.0,29.0,18.0,5.5,7.5,0.5,3.5,7.280109889280518,7.615773105863909,7.0,16.0,37.0,32.7566787083184,{}
327,559,1.4142135623730951,62.80127387243033,4.123105625617661,7.071067811865476,18.110770276274835,19.235384061671343,19.1049731745428,31.400636936215164,24.33105012119288,23.5,28.0,18.0,4.0,8.0,2.0,2.0,7.071067811865476,7.280109889280518,7.5,17.0,37.0,32.984845004941285,{}
328,560,2.23606797749979,61.814237842102365,4.123105625617661,7.280109889280518,18.24828759089466,19.235384061671343,19.026297590440446,29.61418578992169,22.36067977499789,22.5,28.0,18.0,4.0,6.0,0.0,3.0,6.082762530298219,6.324555320336759,6.0,16.0,37.0,32.01562118716424,{}
329,561,1.0,63.63961030678928,3.1622776601683795,8.06225774829855,18.110770276274835,18.110770276274835,18.24828759089466,29.61418578992169,21.587033144922906,21.0,24.0,15.0,1.5,9.5,1.5,0.5,6.082762530298219,7.071067811865476,7.0,17.0,37.0,28.635642126552707,{}
330,562,1.4142135623730951,64.77653896280658,3.1622776601683795,7.071067811865476,18.24828759089466,19.1049731745428,17.26267650163207,28.635642126552707,21.587033144922906,20.5,24.0,14.0,2.0,9.0,2.0,1.0,6.082762530298219,7.280109889280518,7.0,15.0,35.0,28.635642126552707,{}
331,563,1.4142135623730951,64.6297145282261,3.0,7.280109889280518,19.235384061671343,19.1049731745428,17.46424919657298,28.861739379323623,21.587033144922906,20.5,24.0,15.0,2.5,8.5,1.5,1.5,7.280109889280518,7.280109889280518,7.5,15.0,36.0,30.80584360149873,{}
332,564,2.0,63.63961030678928,5.0,8.06225774829855,16.1245154965971,16.1245154965971,17.46424919657298,30.80584360149873,22.80350850198276,22.0,25.0,16.0,3.5,9.5,1.5,0.5,8.06225774829855,8.246211251235321,8.0,23.0,39.0,26.30589287593181,{}
333,565,2.8284271247461903,62.64982043070834,4.123105625617661,9.219544457292889,16.1245154965971,17.11724276862369,19.235384061671343,34.92849839314596,25.70992026436488,24.0,28.0,19.0,4.5,10.5,1.5,2.5,8.06225774829855,8.246211251235321,8.0,24.0,40.0,29.27456233660889,{}
334,566,3.1622776601683795,60.67124524847005,5.0990195135927845,9.219544457292889,15.132745950421556,17.11724276862369,20.223748416156685,37.65634076752546,28.442925306655784,26.5,29.0,20.0,4.5,12.5,3.5,1.5,7.280109889280518,8.246211251235321,8.0,18.0,37.0,29.61418578992169,{}
335,567,4.47213595499958,60.53098380168623,5.0990195135927845,8.06225774829855,15.132745950421556,17.11724276862369,22.20360331117452,39.6232255123179,31.575306807693888,29.0,29.0,21.0,3.0,14.0,5.0,0.0,7.071067811865476,8.246211251235321,8.0,17.0,37.0,30.4138126514911,{}
336,568,4.123105625617661,59.53990258641679,5.0990195135927845,8.246211251235321,15.132745950421556,17.11724276862369,22.20360331117452,39.6232255123179,31.400636936215164,29.0,29.0,21.0,3.0,14.0,6.0,0.0,7.071067811865476,7.280109889280518,7.0,18.0,38.0,30.4138126514911,{}
337,569,3.1622776601683795,60.8276253029822,4.47213595499958,8.246211251235321,15.297058540778355,16.1245154965971,22.20360331117452,37.8549864614954,29.61418578992169,27.5,29.0,19.0,2.0,13.0,6.0,0.0,7.071067811865476,7.280109889280518,7.0,19.0,38.0,32.7566787083184,{}
338,570,2.23606797749979,68.8839603971781,4.47213595499958,6.324555320336759,17.26267650163207,18.24828759089466,24.08318915758459,32.7566787083184,26.476404589747453,27.0,27.0,16.0,2.5,10.5,5.5,3.5,7.071067811865476,7.280109889280518,7.0,20.0,38.0,33.54101966249684,{}
339,571,6.082762530298219,68.73136110975832,5.0990195135927845,6.324555320336759,17.26267650163207,18.110770276274835,23.08679276123039,28.635642126552707,22.36067977499789,25.0,27.0,17.0,1.0,6.0,0.0,3.0,6.082762530298219,5.385164807134504,5.0,16.0,33.0,28.442925306655784,{}
340,572,2.23606797749979,72.00694410957877,5.0990195135927845,7.280109889280518,18.24828759089466,18.43908891458577,22.20360331117452,33.95585369269929,26.68332812825267,26.5,28.0,16.0,0.0,11.0,5.0,2.0,6.0,6.324555320336759,6.0,22.0,39.0,33.37663853655727,{}
341,573,1.0,68.06614430096654,4.47213595499958,7.615773105863909,16.492422502470642,17.46424919657298,22.20360331117452,34.20526275297414,26.68332812825267,26.0,27.0,15.0,1.0,12.0,6.0,2.0,4.47213595499958,4.123105625617661,4.0,22.0,39.0,30.80584360149873,{}
342,574,2.8284271247461903,67.08203932499369,5.0990195135927845,8.246211251235321,17.26267650163207,18.24828759089466,23.194827009486403,34.92849839314596,26.68332812825267,27.0,29.0,17.0,0.0,11.0,3.0,2.0,3.1622776601683795,3.1622776601683795,2.5,14.0,31.0,22.56102834535696,{}
343,575,3.1622776601683795,66.91038783328041,5.0990195135927845,7.280109889280518,16.492422502470642,17.46424919657298,23.194827009486403,32.7566787083184,25.495097567963924,26.5,30.0,19.0,1.5,7.5,1.5,0.5,2.8284271247461903,3.1622776601683795,3.0,13.0,31.0,26.68332812825267,{}
344,576,4.123105625617661,60.8276253029822,5.0990195135927845,7.280109889280518,17.26267650163207,18.110770276274835,21.095023109728988,37.48332962798263,30.26549190084312,28.0,31.0,21.0,5.0,11.0,4.0,2.0,5.385164807134504,6.708203932499369,6.0,15.0,38.0,30.364452901377952,{}
345,577,3.1622776601683795,63.788713735268246,5.0,7.280109889280518,18.110770276274835,19.235384061671343,20.39607805437113,35.6931365951495,28.442925306655784,26.5,31.0,21.0,6.0,9.0,2.0,3.0,4.47213595499958,3.605551275463989,3.5,15.0,32.0,29.61418578992169,{}
346,578,3.1622776601683795,64.77653896280658,5.0990195135927845,8.06225774829855,17.11724276862369,18.110770276274835,20.223748416156685,36.49657518178932,28.442925306655784,26.5,31.0,21.0,6.0,10.0,3.0,3.0,3.605551275463989,3.1622776601683795,3.0,15.0,31.0,25.70992026436488,{}
347,579,2.23606797749979,66.61080993352356,4.123105625617661,7.071067811865476,18.110770276274835,18.110770276274835,19.235384061671343,32.55764119219941,25.495097567963924,24.0,29.0,20.0,5.5,7.5,1.5,2.5,4.47213595499958,4.123105625617661,3.5,15.0,28.0,24.515301344262525,{}
348,580,1.0,65.62011886609167,5.0,6.324555320336759,18.110770276274835,18.110770276274835,19.235384061671343,30.59411708155671,24.33105012119288,24.0,30.0,21.0,6.5,4.5,0.5,3.5,4.47213595499958,3.1622776601683795,3.0,15.0,28.0,24.515301344262525,{}
349,581,2.0,64.77653896280658,5.0,8.246211251235321,17.11724276862369,18.110770276274835,20.223748416156685,33.734255586866,25.495097567963924,25.0,33.0,23.0,8.0,5.0,2.0,5.0,5.0990195135927845,4.47213595499958,4.0,17.0,31.0,25.70992026436488,{}
350,582,4.0,61.66036003787198,5.0990195135927845,9.219544457292889,17.11724276862369,18.110770276274835,19.235384061671343,37.48332962798263,28.284271247461906,26.0,33.0,24.0,9.5,8.5,0.5,5.5,5.0990195135927845,5.0990195135927845,4.5,15.0,30.0,25.495097567963924,{}
351,583,4.123105625617661,61.66036003787198,6.082762530298219,9.219544457292889,17.26267650163207,18.110770276274835,18.110770276274835,37.48332962798263,28.284271247461906,26.0,33.0,24.0,10.5,8.5,0.5,6.5,6.324555320336759,5.0990195135927845,5.5,16.0,31.0,29.61418578992169,{}
352,584,6.0,61.814237842102365,6.082762530298219,9.219544457292889,17.11724276862369,18.24828759089466,20.223748416156685,41.43669871020132,32.2490309931942,29.0,36.0,26.0,11.0,10.0,1.0,7.0,5.0990195135927845,6.324555320336759,6.0,15.0,30.0,27.65863337187866,{}
353,585,6.324555320336759,62.64982043070834,5.0990195135927845,8.246211251235321,17.26267650163207,18.24828759089466,23.08679276123039,42.579337712087536,34.36568055487916,31.0,35.0,26.0,7.5,11.5,3.5,4.5,6.082762530298219,6.082762530298219,6.0,15.0,31.0,26.68332812825267,{}
354,586,2.8284271247461903,63.63961030678928,4.123105625617661,6.324555320336759,16.1245154965971,17.11724276862369,24.186773244895647,36.87817782917155,30.59411708155671,29.0,32.0,23.0,3.5,8.5,2.5,1.5,6.082762530298219,5.0990195135927845,5.0,17.0,33.0,30.59411708155671,{}
355,587,2.23606797749979,67.7421582177598,4.123105625617661,9.055385138137416,17.26267650163207,18.24828759089466,23.194827009486403,35.6931365951495,26.68332812825267,26.5,30.0,20.0,2.0,10.0,2.0,0.0,4.47213595499958,4.123105625617661,4.0,15.0,30.0,22.36067977499789,{}
356,588,2.23606797749979,68.8839603971781,4.123105625617661,9.219544457292889,17.26267650163207,18.24828759089466,23.194827009486403,35.90264614203248,26.68332812825267,26.5,31.0,20.0,2.5,9.5,1.5,0.5,3.1622776601683795,4.123105625617661,4.0,15.0,29.0,23.53720459187964,{}
357,589,2.23606797749979,70.03570517957252,5.0990195135927845,9.219544457292889,17.26267650163207,18.24828759089466,22.20360331117452,34.713109915419565,25.495097567963924,26.0,31.0,19.0,3.0,9.0,1.0,0.0,5.0990195135927845,4.123105625617661,4.5,14.0,30.0,23.769728648009423,{}
358,590,1.4142135623730951,65.76473218982953,5.0990195135927845,9.219544457292889,16.1245154965971,18.110770276274835,21.213203435596427,34.713109915419565,25.495097567963924,25.5,30.0,20.0,4.0,9.0,1.0,1.0,6.082762530298219,5.385164807134504,6.0,15.0,35.0,33.734255586866,{}
359,591,3.605551275463989,63.788713735268246,6.082762530298219,10.198039027185567,16.278820596099706,19.1049731745428,20.223748416156685,39.81205847478876,29.61418578992169,27.5,32.0,22.0,7.0,12.0,2.0,3.0,8.06225774829855,8.246211251235321,8.0,24.0,39.0,32.14031735997639,{}
360,592,4.123105625617661,60.67124524847005,5.0990195135927845,8.246211251235321,17.26267650163207,18.24828759089466,21.37755832643195,38.8329756778952,30.59411708155671,28.0,34.0,25.0,8.5,8.5,0.5,5.5,5.0990195135927845,4.47213595499958,4.0,14.0,27.0,18.43908891458577,{}
361,593,4.47213595499958,62.80127387243033,5.0990195135927845,8.06225774829855,18.24828759089466,19.235384061671343,20.39607805437113,37.8549864614954,29.8328677803526,27.0,33.0,23.0,8.0,9.0,2.0,5.0,5.385164807134504,4.47213595499958,4.0,13.0,29.0,18.97366596101028,{}
362,594,5.0990195135927845,59.84145720150872,5.0990195135927845,8.246211251235321,18.110770276274835,18.110770276274835,21.37755832643195,39.81205847478876,31.575306807693888,28.5,34.0,24.0,8.0,10.0,2.0,5.0,5.0990195135927845,5.385164807134504,5.0,14.0,28.0,18.43908891458577,{}
363,595,5.385164807134504,65.76473218982953,5.0,9.219544457292889,18.110770276274835,19.1049731745428,22.36067977499789,41.77319714841085,32.55764119219941,29.5,33.0,23.0,6.0,13.0,5.0,3.0,5.385164807134504,5.0990195135927845,5.0,17.0,33.0,25.317977802344327,{}
364,596,4.123105625617661,61.66036003787198,4.123105625617661,7.071067811865476,17.11724276862369,17.11724276862369,23.194827009486403,38.47076812334269,31.400636936215164,29.0,32.0,23.0,4.5,10.5,3.5,2.5,6.082762530298219,6.082762530298219,5.5,15.0,32.0,26.476404589747453,{}
365,597,2.23606797749979,67.7421582177598,4.123105625617661,6.082762530298219,17.26267650163207,18.110770276274835,22.20360331117452,34.52535300326414,28.442925306655784,27.0,30.0,20.0,3.0,9.0,3.0,1.0,5.385164807134504,4.47213595499958,4.5,13.0,29.0,18.68154169226941,{}
366,598,1.4142135623730951,63.788713735268246,3.1622776601683795,6.324555320336759,17.26267650163207,18.24828759089466,23.345235059857504,33.95585369269929,27.65863337187866,26.5,30.0,20.0,2.0,8.0,2.0,1.0,6.324555320336759,5.0990195135927845,5.0,13.0,29.0,21.18962010041709,{}
367,599,2.23606797749979,71.19691004531025,4.123105625617661,8.06225774829855,18.24828759089466,19.4164878389476,22.36067977499789,33.95585369269929,25.96150997149434,25.5,29.0,16.0,0.5,10.5,3.5,1.5,5.0990195135927845,6.324555320336759,6.0,16.0,35.0,29.42787793912432,{}
368,600,2.23606797749979,71.56814934033156,5.0990195135927845,8.06225774829855,18.24828759089466,18.110770276274835,22.09072203437452,34.52535300326414,26.476404589747453,26.5,27.0,18.0,0.5,11.5,3.5,1.5,6.082762530298219,5.0990195135927845,5.5,15.0,31.0,23.769728648009423,{}
369,601,1.4142135623730951,72.56031973468694,5.0990195135927845,9.219544457292889,18.24828759089466,19.235384061671343,20.09975124224178,33.54101966249684,24.33105012119288,24.5,26.0,17.0,1.5,11.5,3.5,0.5,5.0990195135927845,4.123105625617661,4.5,15.0,31.0,26.68332812825267,{}
370,602,2.23606797749979,67.89698078707183,5.0990195135927845,9.219544457292889,18.24828759089466,18.24828759089466,21.213203435596427,33.734255586866,24.515301344262525,25.0,29.0,18.0,2.5,9.5,0.5,0.5,5.0990195135927845,4.47213595499958,4.5,14.0,30.0,23.53720459187964,{}
371,603,2.8284271247461903,67.7421582177598,4.123105625617661,8.06225774829855,17.11724276862369,17.11724276862369,21.213203435596427,31.78049716414141,23.769728648009423,24.0,28.0,18.0,2.0,8.0,0.0,0.0,6.324555320336759,5.385164807134504,5.0,14.0,30.0,22.56102834535696,{}
372,604,3.1622776601683795,68.8839603971781,4.123105625617661,6.324555320336759,18.110770276274835,18.24828759089466,22.36067977499789,35.90264614203248,29.61418578992169,27.5,30.0,19.0,2.5,10.5,4.5,0.5,5.0990195135927845,5.385164807134504,5.0,15.0,33.0,26.68332812825267,{}
373,605,3.605551275463989,71.02112361825881,6.082762530298219,9.219544457292889,18.24828759089466,19.4164878389476,20.39607805437113,39.05124837953327,29.8328677803526,27.5,32.0,20.0,6.0,12.0,4.0,2.0,6.082762530298219,6.324555320336759,6.0,13.0,29.0,21.840329667841555,{}
374,606,2.8284271247461903,69.05070600652827,5.0990195135927845,10.198039027185567,17.26267650163207,18.110770276274835,20.39607805437113,38.07886552931954,27.892651361962702,26.0,30.0,18.0,4.0,13.0,3.0,1.0,5.0990195135927845,5.0990195135927845,5.5,16.0,35.0,28.442925306655784,{}
375,607,2.23606797749979,68.73136110975832,4.123105625617661,8.246211251235321,18.24828759089466,19.1049731745428,18.24828759089466,32.7566787083184,24.515301344262525,23.0,27.0,17.0,4.0,10.0,2.0,2.0,5.385164807134504,5.0990195135927845,5.0,15.0,32.0,27.65863337187866,{}
376,608,2.23606797749979,68.73136110975832,4.123105625617661,9.055385138137416,18.24828759089466,19.235384061671343,18.24828759089466,32.7566787083184,23.769728648009423,22.5,27.0,17.0,4.0,10.0,1.0,2.0,5.385164807134504,5.0990195135927845,5.0,15.0,32.0,27.65863337187866,{}
377,609,2.0,74.67261881037788,4.123105625617661,9.055385138137416,20.09975124224178,20.223748416156685,20.024984394500787,33.37663853655727,24.33105012119288,24.0,27.0,17.0,2.0,11.0,3.0,0.0,5.0990195135927845,5.385164807134504,5.5,17.0,36.0,31.400636936215164,{}
378,610,1.4142135623730951,74.67261881037788,3.1622776601683795,8.06225774829855,19.1049731745428,20.09975124224178,19.235384061671343,31.575306807693888,23.53720459187964,22.5,25.0,15.0,1.0,11.0,3.0,0.0,5.0990195135927845,4.123105625617661,4.5,16.0,35.0,29.61418578992169,{}
379,611,1.4142135623730951,75.8023746329889,4.123105625617661,8.246211251235321,20.223748416156685,21.213203435596427,17.11724276862369,30.59411708155671,22.36067977499789,21.5,24.0,13.0,1.5,11.5,3.5,0.5,6.082762530298219,7.280109889280518,7.0,18.0,38.0,32.55764119219941,{}
380,612,1.0,67.89698078707183,5.385164807134504,9.219544457292889,18.110770276274835,20.09975124224178,17.26267650163207,32.01562118716424,22.80350850198276,22.0,25.0,14.0,2.5,11.5,3.5,0.5,7.071067811865476,7.280109889280518,7.0,20.0,38.0,34.52535300326414,{}
381,613,2.8284271247461903,66.61080993352356,4.123105625617661,8.06225774829855,19.235384061671343,19.1049731745428,17.26267650163207,31.78049716414141,23.769728648009423,22.0,24.0,15.0,2.5,11.5,3.5,0.5,7.0,7.280109889280518,7.0,19.0,37.0,33.54101966249684,{}
382,614,2.0,69.58448102845921,6.0,9.055385138137416,18.24828759089466,19.1049731745428,17.26267650163207,32.55764119219941,23.53720459187964,23.0,25.0,16.0,3.5,11.5,2.5,0.5,9.055385138137416,8.54400374531753,8.5,21.0,39.0,34.52535300326414,{}
383,615,2.0,71.56814934033156,5.0,9.055385138137416,20.09975124224178,21.213203435596427,19.1049731745428,33.37663853655727,24.33105012119288,24.0,26.0,17.0,2.5,11.5,3.5,0.5,7.071067811865476,7.071067811865476,7.0,18.0,35.0,30.4138126514911,{}
384,616,1.0,71.84705978674423,6.082762530298219,9.219544457292889,18.24828759089466,20.09975124224178,17.26267650163207,32.7566787083184,23.53720459187964,23.0,26.0,15.0,3.5,11.5,2.5,0.5,9.055385138137416,8.246211251235321,8.0,21.0,38.0,32.55764119219941,{}
385,617,1.4142135623730951,73.68174807915459,5.0990195135927845,10.198039027185567,20.223748416156685,21.213203435596427,17.11724276862369,33.54101966249684,23.345235059857504,22.5,25.0,15.0,3.0,13.0,3.0,1.0,7.0,7.071067811865476,7.0,19.0,36.0,31.400636936215164,{}
386,618,1.4142135623730951,65.62011886609167,5.0990195135927845,9.219544457292889,19.1049731745428,20.09975124224178,17.26267650163207,32.7566787083184,23.53720459187964,22.5,26.0,17.0,4.5,10.5,0.5,1.5,7.071067811865476,6.324555320336759,6.5,16.0,36.0,31.575306807693888,{}
387,619,1.4142135623730951,70.8590149522275,3.1622776601683795,8.246211251235321,20.223748416156685,21.213203435596427,18.24828759089466,30.80584360149873,22.56102834535696,21.5,25.0,14.0,1.5,10.5,2.5,0.5,6.082762530298219,6.324555320336759,6.5,17.0,37.0,31.78049716414141,{}
388,620,1.0,68.73136110975832,4.123105625617661,9.219544457292889,19.1049731745428,21.095023109728988,17.11724276862369,30.59411708155671,21.37755832643195,21.0,24.0,14.0,2.0,11.0,2.0,0.0,6.082762530298219,6.324555320336759,6.0,15.0,36.0,32.984845004941285,{}
389,621,1.4142135623730951,67.60177512462228,6.082762530298219,9.219544457292889,20.09975124224178,20.09975124224178,17.26267650163207,33.734255586866,24.515301344262525,23.5,26.0,17.0,4.5,11.5,2.5,0.5,6.082762530298219,6.708203932499369,6.0,17.0,36.0,34.92849839314596,{}
390,622,2.23606797749979,65.62011886609167,6.082762530298219,10.04987562112089,19.235384061671343,20.09975124224178,17.26267650163207,34.713109915419565,24.73863375370596,23.5,27.0,18.0,5.5,11.5,2.5,2.5,7.071067811865476,6.708203932499369,6.5,15.0,36.0,30.083217912982647,{}
391,623,2.8284271247461903,66.75327707311455,5.0990195135927845,10.198039027185567,20.223748416156685,20.09975124224178,17.26267650163207,34.92849839314596,24.73863375370596,23.0,27.0,17.0,5.0,12.0,3.0,2.0,6.082762530298219,6.324555320336759,6.0,17.0,37.0,31.575306807693888,{}
392,624,2.0,73.68174807915459,6.082762530298219,9.219544457292889,20.223748416156685,20.223748416156685,21.095023109728988,36.6742416417845,27.459060435491963,27.0,27.0,17.0,1.0,14.0,5.0,2.0,7.071067811865476,7.280109889280518,7.5,18.0,36.0,32.7566787083184,{}
393,625,1.4142135623730951,74.54528824815154,4.123105625617661,9.219544457292889,20.223748416156685,21.213203435596427,19.1049731745428,33.54101966249684,24.33105012119288,23.5,23.0,14.0,0.5,14.5,5.5,1.5,7.0,7.280109889280518,7.0,18.0,33.0,28.284271247461906,{}
394,626,4.47213595499958,78.23042886243178,5.0990195135927845,9.055385138137416,21.095023109728988,22.09072203437452,17.11724276862369,35.510561809129406,26.476404589747453,24.0,19.0,13.0,1.0,19.0,10.0,3.0,7.0,7.280109889280518,7.0,19.0,32.0,27.29468812791236,{}
395,627,3.1622776601683795,67.60177512462228,5.0990195135927845,9.055385138137416,19.235384061671343,20.223748416156685,19.235384061671343,30.59411708155671,21.587033144922906,22.5,24.0,15.0,0.5,10.5,1.5,1.5,7.0,6.324555320336759,6.0,18.0,34.0,32.2490309931942,{}
396,628,3.1622776601683795,68.59300255857006,5.0,9.055385138137416,18.24828759089466,19.235384061671343,19.235384061671343,30.4138126514911,21.37755832643195,22.5,24.0,15.0,0.5,10.5,2.5,1.5,7.0,7.280109889280518,7.0,18.0,34.0,32.38826948140329,{}
397,629,2.23606797749979,65.49045732013177,5.0990195135927845,9.219544457292889,19.235384061671343,19.1049731745428,20.39607805437113,32.984845004941285,23.769728648009423,24.0,24.0,16.0,0.0,12.0,3.0,2.0,7.071067811865476,7.280109889280518,7.0,19.0,36.0,33.54101966249684,{}
398,630,2.23606797749979,64.38167441127949,4.0,7.280109889280518,19.1049731745428,19.1049731745428,20.223748416156685,33.54101966249684,26.30589287593181,25.0,25.0,18.0,1.5,11.5,4.5,0.5,8.06225774829855,7.280109889280518,7.5,20.0,35.0,34.23448553724738,{}
399,631,2.0,64.4980619863884,5.0990195135927845,8.06225774829855,18.24828759089466,18.110770276274835,19.235384061671343,32.7566787083184,24.73863375370596,24.0,24.0,16.0,1.0,12.0,4.0,1.0,7.071067811865476,6.324555320336759,6.5,18.0,35.0,33.54101966249684,{}
400,632,1.4142135623730951,66.48308055437865,5.0990195135927845,7.280109889280518,18.110770276274835,19.1049731745428,19.1049731745428,32.55764119219941,25.317977802344327,24.5,24.0,16.0,1.0,12.0,4.0,1.0,8.06225774829855,7.280109889280518,7.0,21.0,36.0,33.24154027718932,{}
401,633,2.23606797749979,66.48308055437865,5.0990195135927845,8.06225774829855,18.110770276274835,19.1049731745428,18.110770276274835,32.55764119219941,24.515301344262525,23.5,23.0,15.0,1.0,13.0,5.0,1.0,9.055385138137416,7.280109889280518,7.0,21.0,37.0,34.23448553724738,{}
402,634,1.4142135623730951,65.37583651472461,5.0990195135927845,7.071067811865476,17.11724276862369,18.110770276274835,18.24828759089466,31.575306807693888,24.515301344262525,23.5,22.0,15.0,0.5,12.5,5.5,1.5,9.219544457292889,8.54400374531753,8.0,19.0,36.0,34.52535300326414,{}
403,635,1.4142135623730951,68.46897107449476,4.123105625617661,9.219544457292889,19.1049731745428,19.1049731745428,19.235384061671343,33.734255586866,24.515301344262525,23.5,23.0,15.0,0.0,14.0,5.0,2.0,8.06225774829855,6.324555320336759,6.0,18.0,36.0,34.52535300326414,{}
404,636,2.23606797749979,66.61080993352356,4.123105625617661,8.06225774829855,18.24828759089466,18.24828759089466,18.24828759089466,31.78049716414141,23.769728648009423,22.5,23.0,14.0,0.5,12.5,4.5,1.5,9.055385138137416,8.54400374531753,7.5,19.0,38.0,35.510561809129406,{}
405,637,1.0,70.71067811865476,4.123105625617661,8.246211251235321,19.235384061671343,20.223748416156685,17.46424919657298,30.083217912982647,21.840329667841555,21.0,22.0,12.0,0.0,12.0,4.0,1.0,7.071067811865476,6.708203932499369,6.5,21.0,38.0,35.22782990761707,{}
406,638,1.0,70.71067811865476,4.123105625617661,9.219544457292889,19.1049731745428,20.223748416156685,17.46424919657298,31.04834939252005,21.840329667841555,21.0,22.0,12.0,0.0,13.0,4.0,2.0,7.071067811865476,6.708203932499369,6.0,21.0,38.0,35.35533905932738,{}
407,639,2.23606797749979,70.71067811865476,3.1622776601683795,10.04987562112089,19.235384061671343,19.1049731745428,18.24828759089466,30.80584360149873,20.8806130178211,20.5,22.0,12.0,1.0,13.0,4.0,1.0,8.0,7.280109889280518,7.0,22.0,36.0,31.400636936215164,{}
408,640,1.4142135623730951,73.68174807915459,3.1622776601683795,9.219544457292889,20.09975124224178,21.213203435596427,17.11724276862369,28.635642126552707,19.4164878389476,19.5,21.0,11.0,1.0,12.0,3.0,2.0,7.071067811865476,6.324555320336759,6.0,23.0,36.0,32.14031735997639,{}
409,641,2.8284271247461903,79.63039620647382,4.123105625617661,10.04987562112089,21.095023109728988,22.20360331117452,17.11724276862369,29.61418578992169,19.6468827043885,20.0,21.0,11.0,1.0,13.0,4.0,2.0,7.071067811865476,5.385164807134504,5.5,23.0,38.0,35.12833614050059,{}
410,642,2.23606797749979,73.68174807915459,5.0990195135927845,9.219544457292889,19.235384061671343,20.223748416156685,18.24828759089466,32.01562118716424,22.80350850198276,22.5,24.0,14.0,1.0,12.0,3.0,1.0,7.071067811865476,6.324555320336759,6.5,20.0,36.0,33.24154027718932,{}
411,643,3.0,74.67261881037788,4.123105625617661,9.055385138137416,20.223748416156685,21.213203435596427,18.24828759089466,32.01562118716424,23.08679276123039,22.0,23.0,13.0,0.0,13.0,4.0,1.0,7.071067811865476,6.324555320336759,6.0,23.0,37.0,33.37663853655727,{}
412,644,2.8284271247461903,71.449282711585,5.0990195135927845,10.198039027185567,19.1049731745428,19.1049731745428,20.223748416156685,33.95585369269929,23.769728648009423,24.0,24.0,16.0,0.0,13.0,3.0,2.0,7.071067811865476,6.324555320336759,6.5,19.0,35.0,30.4138126514911,{}
413,645,2.23606797749979,75.8023746329889,6.082762530298219,12.16552506059644,19.235384061671343,19.235384061671343,19.235384061671343,35.6931365951495,23.53720459187964,24.0,25.0,14.0,0.5,15.5,4.5,2.5,8.246211251235321,7.615773105863909,7.0,22.0,41.0,35.35533905932738,{}
414,646,2.0,70.8590149522275,6.082762530298219,11.180339887498947,18.24828759089466,19.1049731745428,19.235384061671343,36.87817782917155,25.70992026436488,25.0,27.0,16.0,2.5,14.5,3.5,0.5,9.055385138137416,8.54400374531753,8.5,20.0,39.0,33.54101966249684,{}
415,647,2.0,67.89698078707183,5.0990195135927845,12.16552506059644,18.110770276274835,20.223748416156685,20.09975124224178,37.65634076752546,25.495097567963924,25.0,29.0,18.0,3.5,13.5,1.5,0.5,9.055385138137416,8.246211251235321,8.5,18.0,39.0,33.54101966249684,{}
416,648,2.0,67.89698078707183,5.0990195135927845,12.16552506059644,18.110770276274835,20.223748416156685,20.09975124224178,37.65634076752546,25.495097567963924,25.0,29.0,18.0,3.5,13.5,1.5,0.5,9.055385138137416,8.246211251235321,8.5,18.0,39.0,33.54101966249684,{}
417,649,1.0,71.7007670809734,5.0990195135927845,12.16552506059644,18.110770276274835,20.09975124224178,20.39607805437113,37.8549864614954,25.70992026436488,25.0,29.0,19.0,4.0,13.0,1.0,1.0,9.0,8.54400374531753,8.5,24.0,39.0,33.13608305156178,{}
418,650,2.23606797749979,63.953107821277925,6.324555320336759,10.198039027185567,18.24828759089466,18.110770276274835,20.223748416156685,38.8329756778952,28.635642126552707,27.0,31.0,20.0,5.5,12.5,2.5,2.5,7.071067811865476,7.615773105863909,7.5,17.0,37.0,29.61418578992169,{}
419,651,4.47213595499958,63.953107821277925,4.123105625617661,9.219544457292889,17.26267650163207,18.24828759089466,21.37755832643195,39.05124837953327,29.8328677803526,27.0,33.0,22.0,6.5,10.5,1.5,4.5,6.082762530298219,6.324555320336759,6.0,14.0,33.0,31.575306807693888,{}
420,652,4.123105625617661,62.96824596572466,6.082762530298219,11.180339887498947,17.11724276862369,18.110770276274835,20.615528128088304,41.97618372363071,30.80584360149873,28.0,34.0,23.0,8.5,12.5,2.5,3.5,7.071067811865476,7.071067811865476,7.5,20.0,38.0,34.36568055487916,{}
421,653,4.123105625617661,62.96824596572466,6.082762530298219,11.180339887498947,17.11724276862369,18.110770276274835,20.615528128088304,41.97618372363071,30.80584360149873,28.0,34.0,23.0,8.5,12.5,2.5,3.5,7.071067811865476,7.071067811865476,7.5,20.0,38.0,34.36568055487916,{}
422,654,4.123105625617661,62.80127387243033,5.0990195135927845,9.219544457292889,16.1245154965971,17.11724276862369,21.587033144922906,40.024992192379,30.80584360149873,28.0,33.0,23.0,7.0,11.0,2.0,3.0,7.071067811865476,8.246211251235321,8.0,16.0,36.0,30.59411708155671,{}
423,655,5.0990195135927845,57.706152185014034,5.0990195135927845,9.219544457292889,16.278820596099706,17.11724276862369,21.37755832643195,40.79215610874228,31.575306807693888,28.5,34.0,25.0,8.5,10.5,1.5,5.5,6.324555320336759,5.0990195135927845,5.5,16.0,32.0,26.476404589747453,{}
424,656,5.0,58.85575587824864,4.123105625617661,9.219544457292889,16.278820596099706,17.26267650163207,22.56102834535696,40.79215610874228,31.575306807693888,28.5,36.0,26.0,9.0,9.0,1.0,6.0,8.246211251235321,8.246211251235321,7.5,15.0,32.0,24.515301344262525,{}
425,657,5.0990195135927845,58.69412236331676,5.0990195135927845,9.219544457292889,16.278820596099706,18.110770276274835,21.37755832643195,40.79215610874228,31.575306807693888,28.5,34.0,25.0,8.5,10.5,1.5,5.5,7.071067811865476,7.280109889280518,7.0,16.0,35.0,26.68332812825267,{}
426,658,5.0990195135927845,58.69412236331676,5.0990195135927845,9.219544457292889,16.278820596099706,18.110770276274835,21.37755832643195,40.79215610874228,31.575306807693888,28.5,34.0,25.0,8.5,10.5,1.5,5.5,7.071067811865476,7.280109889280518,7.0,16.0,35.0,26.68332812825267,{}
427,659,4.123105625617661,61.0,6.082762530298219,9.055385138137416,17.26267650163207,18.43908891458577,21.37755832643195,40.60788100849391,31.575306807693888,29.0,35.0,24.0,8.5,10.5,1.5,4.5,7.071067811865476,7.280109889280518,7.5,22.0,41.0,29.42787793912432,{}
428,660,4.123105625617661,61.0,6.082762530298219,10.198039027185567,18.24828759089466,19.235384061671343,21.587033144922906,41.97618372363071,31.78049716414141,29.0,35.0,24.0,8.5,11.5,1.5,4.5,5.385164807134504,3.1622776601683795,3.5,20.0,40.0,33.37663853655727,{}
429,661,4.123105625617661,61.0,6.324555320336759,10.198039027185567,17.26267650163207,18.24828759089466,20.39607805437113,41.0,30.80584360149873,28.0,34.0,23.0,8.5,11.5,2.5,4.5,6.082762530298219,5.385164807134504,5.0,16.0,32.0,28.284271247461906,{}
430,662,5.0990195135927845,62.16912416947821,6.324555320336759,9.219544457292889,18.110770276274835,19.4164878389476,19.235384061671343,39.81205847478876,30.59411708155671,27.5,35.0,23.0,10.0,10.0,2.0,6.0,5.385164807134504,4.47213595499958,4.0,13.0,30.0,25.70992026436488,{}
431,663,5.0990195135927845,61.98386886924694,5.0990195135927845,9.219544457292889,18.24828759089466,19.4164878389476,20.39607805437113,39.81205847478876,30.59411708155671,27.5,34.0,23.0,8.5,10.5,1.5,5.5,5.385164807134504,4.47213595499958,4.0,15.0,32.0,25.317977802344327,{}
432,664,5.385164807134504,62.16912416947821,5.0990195135927845,8.246211251235321,17.26267650163207,19.4164878389476,20.39607805437113,39.05124837953327,30.80584360149873,27.5,34.0,22.0,8.0,10.0,3.0,5.0,5.385164807134504,5.385164807134504,5.0,16.0,33.0,27.29468812791236,{}
433,665,5.385164807134504,59.43904440685432,4.123105625617661,7.280109889280518,17.26267650163207,18.43908891458577,20.39607805437113,37.10795063055895,29.8328677803526,26.5,34.0,21.0,7.5,8.5,2.5,5.5,6.324555320336759,5.385164807134504,5.0,13.0,31.0,20.615528128088304,{}
434,666,3.1622776601683795,60.20797289396148,4.123105625617661,5.385164807134504,17.26267650163207,17.26267650163207,19.4164878389476,32.01562118716424,26.68332812825267,24.5,32.0,20.0,7.0,5.0,1.0,5.0,4.123105625617661,4.47213595499958,4.0,15.0,32.0,24.73863375370596,{}
435,667,2.23606797749979,65.30696746902278,5.0990195135927845,7.280109889280518,17.26267650163207,18.43908891458577,19.235384061671343,32.984845004941285,25.70992026436488,24.5,33.0,20.0,7.5,5.5,0.5,4.5,6.082762530298219,5.385164807134504,5.5,17.0,34.0,27.459060435491963,{}
436,668,2.23606797749979,66.09841147864296,4.47213595499958,7.071067811865476,19.235384061671343,19.4164878389476,19.235384061671343,32.01562118716424,25.0,23.5,32.0,20.0,7.0,5.0,2.0,5.0,6.082762530298219,6.082762530298219,5.5,17.0,32.0,26.30589287593181,{}
437,669,1.4142135623730951,61.29437168288782,6.0,9.0,17.029386365926403,18.027756377319943,17.72004514666935,33.54101966249684,24.73863375370596,23.5,31.0,25.0,11.0,5.0,4.0,6.0,8.06225774829855,6.0,6.5,21.0,16.0,22.20360331117452,{}
438,670,1.4142135623730951,69.87131027825369,6.082762530298219,9.055385138137416,19.235384061671343,20.223748416156685,16.492422502470642,32.7566787083184,23.769728648009423,22.5,31.0,20.0,9.5,6.5,2.5,5.5,6.082762530298219,6.0,6.0,16.0,26.0,27.29468812791236,{}
439,671,7.280109889280518,68.46897107449476,5.0,6.0,19.235384061671343,19.1049731745428,16.1245154965971,34.23448553724738,28.284271247461906,24.5,30.0,22.0,10.0,8.0,3.0,7.0,7.0,6.0,6.5,17.0,19.0,19.026297590440446,{}
440,672,9.055385138137416,75.66372975210778,6.082762530298219,10.198039027185567,18.110770276274835,19.1049731745428,15.132745950421556,40.44749683231337,30.26549190084312,25.5,27.0,17.0,7.0,18.0,9.0,2.0,5.0,6.324555320336759,5.5,11.0,25.0,25.495097567963924,{}
441,673,10.198039027185567,75.66372975210778,5.0990195135927845,9.055385138137416,20.223748416156685,21.095023109728988,16.0,40.19950248448356,31.14482300479488,26.0,27.0,17.0,6.0,18.0,10.0,3.0,6.082762530298219,5.385164807134504,5.5,15.0,27.0,26.476404589747453,{}
442,674,6.324555320336759,73.68174807915459,6.082762530298219,10.04987562112089,18.24828759089466,19.235384061671343,16.0312195418814,38.3275357934736,28.284271247461906,25.0,28.0,18.0,7.0,15.0,6.0,3.0,6.082762530298219,6.324555320336759,6.0,14.0,27.0,24.33105012119288,{}
443,675,7.280109889280518,65.49045732013177,5.0,8.0,20.223748416156685,20.223748416156685,17.46424919657298,37.48332962798263,29.61418578992169,25.5,29.0,21.0,8.0,12.0,4.0,5.0,7.0,6.0,6.0,18.0,16.0,18.0,{}
444,676,5.385164807134504,61.18823416311342,7.071067811865476,9.219544457292889,16.278820596099706,17.26267650163207,19.4164878389476,41.0,31.78049716414141,28.5,36.0,24.0,11.0,10.0,2.0,6.0,9.0,8.06225774829855,9.0,20.0,31.0,30.26549190084312,{}
445,677,4.47213595499958,69.05070600652827,5.0990195135927845,7.071067811865476,17.26267650163207,18.24828759089466,23.53720459187964,40.024992192379,32.984845004941285,30.0,34.0,22.0,5.0,11.0,4.0,2.0,8.0,7.0,7.0,18.0,21.0,23.021728866442675,{}
446,678,2.23606797749979,64.93843238021688,6.082762530298219,8.246211251235321,17.26267650163207,18.24828759089466,23.53720459187964,40.024992192379,31.78049716414141,30.0,34.0,23.0,5.5,10.5,3.5,1.5,8.06225774829855,8.06225774829855,8.0,17.0,24.0,26.1725046566048,{}
447,679,2.23606797749979,71.19691004531025,6.0,8.246211251235321,16.278820596099706,17.26267650163207,21.587033144922906,37.10795063055895,28.861739379323623,27.5,32.0,19.0,4.5,10.5,4.5,0.5,9.055385138137416,9.055385138137416,9.0,15.0,25.0,29.154759474226505,{}
448,680,1.4142135623730951,70.21395872616783,5.0990195135927845,6.324555320336759,16.278820596099706,16.278820596099706,21.840329667841555,34.48187929913333,28.16025568065745,26.5,30.0,17.0,2.5,9.5,4.5,0.5,7.071067811865476,7.071067811865476,7.5,14.0,27.0,30.59411708155671,{}
449,681,1.4142135623730951,66.09841147864296,5.0990195135927845,6.324555320336759,17.26267650163207,17.26267650163207,21.587033144922906,32.28002478313795,25.96150997149434,25.5,29.0,17.0,2.0,8.0,2.0,0.0,6.324555320336759,6.324555320336759,6.0,14.0,30.0,25.70992026436488,{}
450,682,5.0990195135927845,63.953107821277925,3.1622776601683795,6.324555320336759,17.26267650163207,17.46424919657298,23.53720459187964,38.07886552931954,31.78049716414141,28.5,31.0,20.0,2.5,11.5,6.5,1.5,6.324555320336759,5.0990195135927845,5.5,16.0,32.0,25.70992026436488,{}
451,683,5.0990195135927845,63.953107821277925,5.0990195135927845,6.082762530298219,17.26267650163207,19.235384061671343,21.37755832643195,37.65634076752546,31.575306807693888,28.5,31.0,20.0,4.5,11.5,5.5,2.5,6.324555320336759,4.123105625617661,4.5,15.0,31.0,26.68332812825267,{}
452,684,5.0990195135927845,61.98386886924694,5.0990195135927845,7.280109889280518,16.1245154965971,17.11724276862369,20.39607805437113,37.8549864614954,30.59411708155671,27.5,32.0,21.0,6.5,10.5,3.5,2.5,6.082762530298219,6.082762530298219,6.5,17.0,34.0,28.635642126552707,{}
453,685,3.1622776601683795,61.0,6.082762530298219,9.219544457292889,17.26267650163207,17.26267650163207,20.615528128088304,39.05124837953327,29.8328677803526,27.5,33.0,22.0,7.5,10.5,2.5,3.5,6.082762530298219,6.082762530298219,6.0,16.0,33.0,27.459060435491963,{}
454,686,4.123105625617661,60.8276253029822,5.0990195135927845,7.280109889280518,16.278820596099706,16.278820596099706,20.39607805437113,36.87817782917155,29.61418578992169,27.0,31.0,21.0,6.0,10.0,4.0,3.0,5.385164807134504,5.385164807134504,5.0,17.0,33.0,25.96150997149434,{}
455,687,4.123105625617661,60.8276253029822,5.0990195135927845,6.324555320336759,16.1245154965971,17.26267650163207,20.39607805437113,35.90264614203248,29.61418578992169,27.0,30.0,20.0,5.0,10.0,4.0,2.0,5.385164807134504,5.0990195135927845,5.5,16.0,34.0,26.68332812825267,{}
456,688,3.1622776601683795,61.814237842102365,5.0990195135927845,7.280109889280518,17.26267650163207,17.26267650163207,20.39607805437113,35.90264614203248,28.635642126552707,26.5,31.0,21.0,6.0,9.0,3.0,3.0,5.0990195135927845,5.0990195135927845,5.0,16.0,33.0,24.73863375370596,{}
457,689,4.123105625617661,62.64982043070834,5.0990195135927845,7.280109889280518,17.11724276862369,18.110770276274835,19.6468827043885,36.1386219991853,28.861739379323623,26.0,28.0,19.0,4.5,11.5,4.5,1.5,5.0990195135927845,6.082762530298219,6.0,14.0,31.0,23.769728648009423,{}
458,690,5.0990195135927845,61.98386886924694,4.123105625617661,6.324555320336759,17.26267650163207,17.26267650163207,19.6468827043885,35.17101079013795,28.861739379323623,25.5,29.0,18.0,4.5,10.5,4.5,2.5,7.071067811865476,6.082762530298219,6.0,15.0,28.0,26.68332812825267,{}
459,691,6.324555320336759,61.814237842102365,4.123105625617661,7.071067811865476,16.278820596099706,18.24828759089466,19.4164878389476,36.87817782917155,29.8328677803526,26.0,29.0,19.0,5.0,12.0,5.0,3.0,6.324555320336759,5.385164807134504,5.0,15.0,32.0,25.0,{}
460,692,3.1622776601683795,63.788713735268246,5.0990195135927845,7.280109889280518,17.26267650163207,18.110770276274835,19.235384061671343,34.713109915419565,27.459060435491963,25.5,29.0,19.0,5.0,10.0,3.0,2.0,6.082762530298219,6.324555320336759,6.0,14.0,31.0,25.70992026436488,{}
461,693,3.1622776601683795,62.64982043070834,4.123105625617661,7.071067811865476,17.26267650163207,18.24828759089466,20.615528128088304,34.92849839314596,27.892651361962702,25.5,29.0,20.0,4.5,9.5,2.5,2.5,6.082762530298219,6.082762530298219,6.0,13.0,27.0,25.70992026436488,{}
462,694,2.23606797749979,62.80127387243033,5.0990195135927845,8.246211251235321,17.26267650163207,17.26267650163207,19.4164878389476,34.92849839314596,26.68332812825267,25.0,30.0,20.0,6.0,9.0,2.0,3.0,6.082762530298219,6.324555320336759,6.0,19.0,36.0,29.27456233660889,{}
463,695,4.123105625617661,62.64982043070834,5.0990195135927845,7.280109889280518,17.26267650163207,19.235384061671343,18.68154169226941,35.17101079013795,27.892651361962702,25.0,29.0,20.0,6.5,9.5,2.5,3.5,7.071067811865476,6.082762530298219,6.5,13.0,29.0,26.68332812825267,{}
464,696,3.605551275463989,62.80127387243033,5.0990195135927845,7.071067811865476,18.24828759089466,19.1049731745428,20.223748416156685,35.6931365951495,28.635642126552707,26.5,31.0,21.0,6.0,9.0,2.0,4.0,6.324555320336759,6.324555320336759,6.5,16.0,32.0,23.53720459187964,{}
465,697,4.123105625617661,62.96824596572466,4.47213595499958,6.324555320336759,18.43908891458577,19.235384061671343,20.223748416156685,34.92849839314596,28.635642126552707,26.0,31.0,20.0,5.5,8.5,2.5,4.5,6.082762530298219,6.082762530298219,6.0,16.0,34.0,24.73863375370596,{}
466,698,3.1622776601683795,61.98386886924694,5.0990195135927845,7.071067811865476,17.26267650163207,18.24828759089466,20.39607805437113,35.6931365951495,28.635642126552707,26.5,31.0,20.0,5.5,9.5,2.5,3.5,6.082762530298219,5.385164807134504,5.5,14.0,32.0,23.08679276123039,{}
467,699,2.8284271247461903,61.66036003787198,5.0990195135927845,6.082762530298219,17.11724276862369,18.24828759089466,19.4164878389476,32.984845004941285,26.92582403567252,25.0,29.0,20.0,5.5,7.5,1.5,2.5,6.324555320336759,6.082762530298219,6.0,15.0,33.0,26.68332812825267,{}
468,700,3.1622776601683795,62.96824596572466,4.123105625617661,5.0990195135927845,16.1245154965971,17.11724276862369,19.4164878389476,31.78049716414141,26.68332812825267,24.5,29.0,18.0,4.5,7.5,2.5,2.5,6.324555320336759,7.280109889280518,7.0,15.0,36.0,26.92582403567252,{}
469,701,2.23606797749979,58.85575587824864,4.123105625617661,5.0990195135927845,15.132745950421556,15.297058540778355,18.43908891458577,29.8328677803526,24.73863375370596,23.0,28.0,18.0,5.0,6.0,1.0,2.0,5.0990195135927845,5.0990195135927845,5.5,15.0,33.0,28.442925306655784,{}
470,702,2.23606797749979,61.0,4.123105625617661,6.082762530298219,17.26267650163207,18.24828759089466,18.43908891458577,30.80584360149873,24.73863375370596,23.0,28.0,17.0,4.5,7.5,2.5,2.5,5.0990195135927845,5.0990195135927845,5.5,17.0,33.0,25.495097567963924,{}
471,703,3.1622776601683795,61.814237842102365,4.123105625617661,6.324555320336759,18.24828759089466,19.235384061671343,19.6468827043885,33.24154027718932,26.92582403567252,24.5,28.0,18.0,4.0,9.0,3.0,2.0,5.385164807134504,4.123105625617661,4.5,14.0,31.0,24.515301344262525,{}
472,704,4.123105625617661,60.8276253029822,5.0990195135927845,7.280109889280518,17.11724276862369,18.24828759089466,19.235384061671343,35.6931365951495,28.442925306655784,26.0,31.0,21.0,7.0,9.0,3.0,4.0,6.324555320336759,6.082762530298219,6.0,18.0,34.0,29.42787793912432,{}
473,705,2.23606797749979,59.682493245507096,6.082762530298219,9.219544457292889,18.24828759089466,18.24828759089466,18.110770276274835,35.510561809129406,26.30589287593181,25.0,31.0,22.0,8.5,8.5,0.5,4.5,4.47213595499958,4.123105625617661,4.5,16.0,31.0,26.30589287593181,{}
474,706,2.8284271247461903,61.814237842102365,5.0990195135927845,8.06225774829855,18.24828759089466,20.223748416156685,19.235384061671343,34.713109915419565,26.68332812825267,25.0,32.0,22.0,8.0,7.0,0.0,5.0,5.0990195135927845,5.385164807134504,5.0,15.0,29.0,18.68154169226941,{}
475,707,3.1622776601683795,62.16912416947821,4.123105625617661,6.324555320336759,18.24828759089466,18.24828759089466,19.4164878389476,32.984845004941285,26.68332812825267,24.5,31.0,19.0,6.0,7.0,1.0,4.0,5.385164807134504,5.0990195135927845,4.5,16.0,32.0,27.459060435491963,{}
476,708,4.123105625617661,63.150613615387776,4.123105625617661,7.280109889280518,18.24828759089466,18.24828759089466,18.43908891458577,33.95585369269929,26.68332812825267,24.0,31.0,19.0,7.0,8.0,1.0,5.0,6.324555320336759,5.0990195135927845,5.0,17.0,33.0,26.30589287593181,{}
477,709,2.23606797749979,66.91038783328041,5.0990195135927845,6.324555320336759,19.235384061671343,19.235384061671343,19.235384061671343,32.7566787083184,26.476404589747453,25.0,30.0,19.0,5.5,7.5,2.5,3.5,5.0990195135927845,4.47213595499958,4.0,13.0,31.0,27.65863337187866,{}
