,video_id,frame_seq,gap,time_seconds,m1,m3,m4,m5,m6,m7,m8,m9,m10,m11,m12,m13,m14,m15,m16,m17,e1,e2,e3,b1,b2,b3,label_measures
0,98,0,0,0.0,38.38522401161975,199.0874445350436,9.128994577290996,25.62630895971172,52.948168548287526,56.59976637920397,45.972442016086,119.0275268107144,93.40170542203342,73.94485607605685,49.29657071737125,54.773967463745805,6.39029620410372,66.64166041422402,37.42887776689293,0.9128994577291678,18.25798915458193,18.25798915458193,19.17088861231105,52.94816854828758,52.94816854828758,38.34177722462209,{}
1,98,1,0,0.0333666666666666,38.38522401161975,199.0874445350436,9.128994577290996,25.62630895971172,52.948168548287526,56.59976637920397,45.972442016086,119.0275268107144,93.40170542203342,73.94485607605685,49.29657071737125,54.773967463745805,6.39029620410372,66.64166041422402,37.42887776689293,0.9128994577291678,18.25798915458193,18.25798915458193,19.17088861231105,52.94816854828758,52.94816854828758,38.34177722462209,{}
2,98,2,0,0.0667333333333332,43.81324095882405,191.69162210110647,7.302206826470638,23.80228215320735,52.972465170465725,56.62153963166636,45.78460387612107,120.61081784557668,96.82310468753349,74.84761997132443,56.592102905147726,54.76655119853001,10.040534386397098,64.80708558492722,39.24936169227988,6.38943097316178,20.081068772794367,18.25551706617665,17.342741212867793,49.28989607867703,51.11544778529469,34.733490036844195,{}
3,98,3,0,0.1000999999999998,49.34836621903895,171.72656441826484,5.479394931648926,23.744044703812165,51.17362441437255,54.915578654422,49.44966300620639,127.96991014494836,104.2525985851038,79.4512265089096,71.23213411143627,67.57920415700357,20.09111474937947,58.44687927092207,32.87636958989367,16.438184794946892,18.26464977216318,18.264649772163125,18.264649772163125,47.48808940762416,47.48808940762416,34.75086619503456,{}
4,98,4,0,0.1334666666666664,42.43591598381529,160.53637001925588,7.373193599838032,25.80617759943312,46.22968868079759,50.07533080843732,53.45565359882556,129.0440537426204,103.24116710734612,82.02677879819788,82.94842799817769,75.57523439833966,25.80617759943312,49.76905679890661,23.96287919947349,22.119580799514097,22.11958079951404,20.27628239955453,20.27628239955453,51.61235519886611,47.925758398947096,29.72229361499961,{}
5,98,5,0,0.166833333333333,38.57212037087303,146.82095354910595,9.173443343556414,29.355018699380366,42.23770508540569,45.90389582537711,55.04066006133826,132.11032442637023,102.75894529097224,83.47833442636306,88.06505609814121,84.39567876071862,31.18970736809172,45.86721671778184,16.512198018401477,23.85095269324665,20.18157535582401,20.26479870005869,20.181575355824062,53.20597139262696,55.04066006133826,38.57212037087302,{}
6,98,6,0,0.2001999999999996,39.11234692435695,148.9353799068683,7.441538501783725,29.7661540071349,41.09723963775003,46.8432879419625,57.67192338882393,133.96061174680486,104.19814827801116,84.64750045778993,89.29846202140476,83.71730814506697,28.83596169441193,47.43980794887125,17.673653941736347,23.25480781807414,20.464230879905244,20.54861981887501,20.464230879905244,52.09076951248608,53.95115413793201,39.24485666676642,{}
7,98,7,0,0.2335666666666662,39.67895836656592,138.83836481167805,9.00864343557123,28.82765899382809,37.87917644024141,43.391372782419104,55.969709154162096,133.34009613320444,104.51579484236146,84.68124829436994,91.888163042827,86.48297698148423,33.3319807116136,44.14235283429935,15.31469384047125,24.323337276042366,21.6207442453711,21.6207442453711,20.719879901813897,50.4484032391992,46.84494586497067,25.48029145033645,{}
8,98,8,0,0.2669333333333328,38.3557645215426,144.57944198690276,12.7852548405142,32.87636958989367,40.34793011720583,43.9871015360039,58.47541082218004,142.4759758506379,109.60311811762034,90.41001637220752,96.8026437924646,87.67031890638299,33.78960207850173,50.227786873448736,17.351417283555065,22.83081221520388,21.91757972659576,21.91757972659576,21.004347237987588,51.1410193620568,51.1410193620568,34.75086619503456,{}
9,98,9,0,0.3002999999999994,27.139321107367323,143.11685959858315,12.665016516771402,30.75789725501625,41.77065880575169,43.76084037628684,58.010188651976016,128.5104089965141,97.76854369133184,84.13189543283852,94.08297983887326,86.8458275435753,32.56718532884088,37.99504955031409,7.237152295297847,23.5207449597184,21.711456885893824,21.711456885893824,21.711456885893767,43.42291377178765,47.04148991943663,30.811065656419927,{}
10,98,10,0,0.333666666666666,5.453644100254451,136.38957072776748,10.907288200509017,29.142855291488708,40.15831196437614,41.96905037869407,67.28617204974384,112.76727082564626,83.6423001166497,80.89572082044157,89.07618697082336,85.44042423732031,19.99669503426651,25.45033913452096,5.453644100254451,12.725169567260536,21.89019041076231,19.99669503426645,20.905635717642213,45.44703416878741,49.0827969022904,27.328749367096897,{}
11,98,11,0,0.3670333333333326,5.748645634914554,138.20681457694343,10.907288200509017,29.086101868024,40.15831196437614,41.96905037869407,69.10340728847166,114.58422209192864,85.51774590403791,82.71360218719303,90.89406833757482,87.25830560407178,19.99669503426651,25.45033913452096,5.453644100254451,12.725169567260536,21.89019041076231,21.81457640101792,21.81457640101792,43.62915280203589,47.26491553553888,27.328749367096897,{}
12,98,12,0,0.4003999999999992,5.696352991602197,133.49412654791587,9.006724904888642,28.821519695643588,39.79301126279452,41.4700757469964,72.14381026638232,115.41266635307552,86.63327058215997,83.76254161546399,91.86859402986374,84.66321410595287,16.21210482879951,27.020174714665814,3.6026899619554342,10.808069885866304,23.41748475271038,21.616139771732666,21.616139771732605,45.033624524442985,50.437659467376136,37.87110948068701,{}
13,98,13,0,0.4337666666666658,10.905413357586182,134.76139362391177,9.141720597697043,28.68542259413573,36.035616151294455,37.81997828347724,68.15146456403322,116.65858287677396,88.01360116091458,82.4705899581403,91.43478451880776,82.4705899581403,18.82480857740154,29.581842050202454,0.8964194560667238,13.446291841001084,19.72122803346832,19.72122803346838,19.72122803346832,41.23529497907015,50.19948953973761,48.93497897026917,{}
14,98,14,0,0.4671333333333324,12.545840459241845,131.14172860431972,10.753577536492912,30.521137780814364,37.80782777409697,41.57122844867568,66.41053655549882,120.2019314171046,89.68480800106285,83.3402259078207,94.9899349056882,86.02862029194398,24.195549457109223,29.57233822535568,0.8961314613744662,17.02649776611395,21.58170349434278,21.58170349434279,21.50715507298605,41.22204722322317,51.97562475971614,43.34905690775995,{}
15,98,15,0,0.5004999999999991,19.72776831518865,131.1170376249144,8.967167415994709,28.694935731183364,37.83252077384384,41.40462715766608,64.66316382807851,122.0062134986354,93.32749384639564,83.3946569687518,95.05197460954496,87.87824067674916,26.90150224798436,30.488369214382374,1.79343348319901,19.72776831518854,21.595798908713217,21.59579890871316,21.52120179838755,44.835837079974056,55.59643797916783,43.37736898793669,{}
16,98,16,0,0.5338666666666656,19.72776831518865,131.1170376249144,8.967167415994709,28.694935731183364,37.83252077384384,41.40462715766608,64.66316382807851,122.0062134986354,93.32749384639564,83.3946569687518,95.05197460954496,87.87824067674916,26.90150224798436,30.488369214382374,1.79343348319901,19.72776831518854,21.595798908713217,21.59579890871316,21.52120179838755,44.835837079974056,55.59643797916783,43.37736898793669,{}
17,98,17,0,0.5672333333333321,16.28142759202774,132.25857144162376,10.854285061351902,30.75380767383035,38.16189903480064,41.96054405161816,67.03247290536545,124.87670335620132,94.14002356933794,85.92975673570237,95.8795180419416,88.6433280010404,25.3266651431544,32.56285518405559,1.8090475102252408,18.090475102253208,21.78381669190688,19.98158284768236,19.89952261247845,45.22618775563285,50.6533302863088,34.41947628479217,{}
18,98,18,0,0.6005999999999987,12.668516089015498,137.73426122222438,7.461947136406892,25.40158523087793,38.04861405793622,39.97952393006345,68.79575336207215,114.14584217380876,88.75345078129938,82.34535457860113,90.48940063582528,83.25024858495931,18.097880127165126,27.146820190747576,0.0,12.668516089015611,19.9076681398816,18.09788012716507,18.097880127165013,43.43491230519618,48.86427634334569,38.39140128905899,{}
19,98,19,0,0.6339666666666652,9.22861669798115,139.46654137596568,9.04940319739876,27.14820959219651,39.9815701221435,41.66658136272701,68.79927439763826,114.0799223464292,86.94964968595204,82.34956909632922,86.87427069502871,81.44462877658941,15.383985435577983,29.86303055141616,0.9049403197399216,9.954343517138682,21.793848896620705,18.098806394797634,18.098806394797634,41.62725470803463,45.24701598699414,45.39157551180569,{}
20,98,20,0,0.6673333333333318,7.42713562474735,138.8087970232835,9.006724904888642,27.020174714665814,37.99941400231933,39.67050811546787,70.27554462991584,113.54190495575268,86.53958257964551,82.86186912497516,88.26590406790825,82.86186912497516,15.311432338310624,27.9208472051547,0.900672490488887,9.90739739537753,19.896505631397257,18.013449809777228,18.013449809777228,41.43093456248755,46.8349695054207,41.58727826731512,{}
21,98,21,0,0.7006999999999983,11.002318722814588,141.1883779266123,9.043850280207494,28.94032089666393,39.95703653211269,41.75869943654914,68.75705761657302,117.6256949395378,88.7035293722623,83.20342257790873,88.6297327460332,83.20342257790873,17.183315532394204,31.65347598072617,2.7131550840622367,11.75700536426973,19.89647061645644,18.08770056041493,18.08770056041488,43.41048134499584,48.83679151312032,39.95703653211268,{}
22,98,22,0,0.7340666666666649,21.14455377967932,133.96186888157854,7.265102386680905,26.430692224599056,35.28494662222996,40.56534867647432,61.671615190731245,116.30839385666316,89.88162686577897,79.2920766737974,86.34026126702372,82.81616897041056,22.90659992798589,31.71683066951892,5.286138444919857,17.620461483066038,19.382507631372675,17.620461483066094,17.62046148306615,44.05115370766521,49.33729215258506,40.67999426167884,{}
23,98,23,0,0.7674333333333314,23.21405438916281,130.40475789204035,8.928482457370365,26.785447372111094,35.758544375083,37.5421188290026,62.49937720159232,121.4273614202366,94.6419140481255,83.0348868535441,91.07052106517745,87.49912808222928,26.78544737211098,32.14253684653329,3.5713929829481685,19.642661406214643,23.28263372435933,21.428357897688784,21.428357897688784,51.78519825274799,51.78519825274799,46.462436405032726,{}
24,98,24,0,0.800799999999998,23.17366514321357,131.63112178024383,10.664033896870478,28.43742372498798,35.5911853945432,39.14183084647196,60.42952541559959,122.64926840578312,94.21573194589472,82.64626270074638,88.86694914058756,83.53493219215233,25.77141525077036,36.43544914764084,6.220686439841074,18.66205931952345,23.17366514321357,21.328067793741013,22.21673728514685,47.98815253591727,53.320169484352505,42.6931474257576,{}
25,98,25,0,0.8341666666666645,23.414873168193022,135.1938321920558,10.806864539165986,28.818305437775848,36.0678822917138,39.66608394754873,61.23889905527386,124.27894220040872,95.46063676263287,83.75320017853636,91.85834858291088,86.45491631332783,27.917733392845435,35.122309752289425,6.304004314513577,18.91201294354039,23.484045765476697,21.68864690809397,21.61372907833197,50.43203451610788,54.03432269582987,41.46545088617561,{}
26,98,26,0,0.867533333333331,17.86626909255202,133.37941499470227,12.444321538172062,37.33296461451596,37.37526827071071,40.92711376837561,67.55488835007651,135.1214719848926,97.79297220674336,88.88801098694279,94.2212916461594,90.66577120668164,24.88864307634401,42.66624527373256,5.333280659216598,14.222081757910814,19.55536241712741,17.86626909255203,19.55536241712741,46.22176571321029,46.22176571321029,37.33296461451596,{}
27,98,27,0,0.9008999999999976,35.711083133995885,141.10397504125083,10.713324940198843,32.13997482059631,39.322751284165584,42.85329976079515,67.87454802209695,146.4263279699582,114.28941481932156,96.4199244617891,94.63437030508923,91.06326199168969,24.99775819379716,53.56662470099389,19.64109572369773,16.069987410298154,23.28077790595376,21.50091925345633,21.426649880397576,49.99551638759431,48.20996223089452,39.32275128416547,{}
28,98,28,0,0.934266666666664,27.02675283443159,144.1539424907957,10.810701133772682,32.432103401318045,36.08068691623491,41.44102101279532,72.07134089181778,142.3408982613401,109.90879486002206,96.39541844280626,95.49452668165856,93.69274315936316,22.522294028693068,47.74726334082925,15.315159939511204,13.513376417215907,21.621402267545363,21.69634669423009,21.621402267545307,50.44993862427248,48.64815510197701,41.4410210127952,{}
29,98,29,0,0.9676333333333308,11.433005494616204,137.39837624357557,9.038584466051816,21.767793941273112,36.154337864207264,37.9620547574176,74.20452153815724,115.70800309181,94.00127844693884,88.57812776730782,88.5781277673077,90.38584466051805,15.36559359228795,26.21189495155033,2.711575339815681,8.134726019446589,23.50031961173471,21.69260271852432,22.596461165129483,50.6160730098901,45.19292233025902,47.03539016294784,{}
30,98,30,0,1.0009999999999972,12.555791230743896,134.9616153093352,7.102628097937213,21.30788429381176,35.51314048968618,37.28879751417048,72.82358913831429,113.64204956699598,92.33416527318424,86.11936568748911,87.00719419973132,88.78285122421562,15.093084708116637,25.74702685502257,2.663485536726512,9.766113634663723,21.30788429381176,21.38174199982476,22.195712806053905,49.718396685560776,44.39142561210781,44.39142561210781,{}
31,98,31,0,1.0343666666666638,4.12020962099679,136.40320943352677,11.20818192995934,25.7965926234732,35.05811771954016,35.00966141757078,73.72757942703504,114.2569118688857,88.46465223443884,86.60284666451724,90.2880741821562,93.97330169979529,18.42613758819516,22.111365105834125,5.527841276458616,9.21306879409758,22.11136510583418,22.111365105834125,23.03267198524395,49.75057148812687,42.38011645284882,35.05811771954016,{}
32,98,32,0,1.0677333333333303,12.436585776871311,127.96851000523608,8.883275554907982,24.93654279416621,35.53310221963216,39.08641244159537,67.53626721236418,113.76143402685275,88.85052032389028,82.61446266064462,90.60941066006188,94.1627208820251,24.87317155374251,21.319861331779293,7.106620443926431,17.766551109816078,23.0965164427609,23.164748545453698,23.096516442760844,47.96968799650341,44.416377774540194,40.90167225419814,{}
33,98,33,0,1.1010999999999969,19.526196254677515,118.56253057631476,8.839093726449278,24.81251849150038,31.86980565934508,37.124193651087126,65.43317865724971,118.56253057631476,93.76107990987296,83.97139040126831,91.92657475507268,97.23003099094228,29.169009297282628,23.865553061413152,2.6517281179347947,20.32991557083335,21.287356619569817,21.28735661956981,21.21382494347836,47.73110612282619,40.65983114166676,37.16626073954181,{}
34,98,34,0,1.1344666666666634,19.36590886243773,122.84415135063398,8.940146640238632,29.857742434366568,33.35894087596952,35.06614013304443,64.87235924613219,122.84415135063398,92.99141034411,83.28208281598052,92.92527135256772,98.1851923725244,30.682872616413874,27.17625860310943,4.3832675166305535,21.916337583152767,21.039684079826657,21.11261214626193,21.039684079826657,49.092596186262256,40.32606115300115,35.109945446979616,{}
35,98,35,0,1.16783333333333,19.626701306931224,126.36123870677888,9.060539786411216,30.41593755923779,35.58275612497026,37.35756256448437,65.74596767153781,124.58717400388304,94.2436860515302,84.4036071458932,94.176656394365,101.2843285750718,31.984524813180546,26.653770677650527,5.330754135530015,23.09993458729696,21.39692669975789,19.54609849694367,19.546098496943728,51.53062331012424,42.64603308424074,39.13256065667272,{}
36,98,36,0,1.2011999999999965,21.02353324910553,121.20228488466944,10.656763358511444,29.83482253965973,33.28726097775041,35.03922208184247,63.07059974731641,124.43857962151355,94.62212009252478,84.09413299642193,91.10197741279028,99.86178293325094,32.41128042570415,28.90735821752014,2.627941656138092,23.651474905243617,22.775494353197587,22.842778087237704,22.775494353197587,50.80687201867156,42.04706649821094,40.29510539411888,{}
37,98,37,0,1.234566666666663,24.6462738131626,118.48598441419836,10.681174690696436,30.05743842933917,33.40968963828809,37.04231848884079,64.99477423884217,130.23837788530466,100.229068914864,87.79871511910522,93.0666380262516,107.11443244530852,35.119486047642226,29.851563140495728,1.7559743023821284,24.58364023334957,19.39537010671388,21.14473064006293,20.19370447739413,54.4352033738453,38.63143465240637,40.3874089547885,{}
38,98,38,0,1.2679333333333296,27.2095862051998,123.72732062054372,11.0095249417163,29.18464343275494,34.43673772025414,38.05211953235956,68.87347544050839,136.1803026677045,107.03246654821734,93.2126696832579,92.30769230769226,104.97737556561084,29.86425339366508,37.10407239819017,4.52488687782818,19.004524886877675,9.049773755656132,11.447158950835776,9.954751131221713,56.1085972850679,38.00904977375569,34.43673772025414,{}
39,98,39,0,1.301299999999996,26.71075932430017,132.7440835437969,12.591572699236286,26.947142333165765,35.79197452732146,39.33733063734603,67.87780381204756,133.98048715468246,107.08020304362437,93.48765763505035,89.03586441433367,105.06232000891372,29.38183525673014,36.50470440987681,6.2325105090034185,16.91681423872342,12.963817540468604,12.963817540468604,13.355379662150083,58.763670513460255,33.83362847744684,41.1110510010146,{}
40,98,40,0,1.334666666666663,26.47671569298461,122.82456805562629,10.73677160950962,28.461614166035048,33.58359146614727,37.23512862754899,67.2830484366195,132.80653027242423,104.38081154404053,90.90339054591362,88.25571897661524,104.141748392406,29.124387262283,36.18484478041228,4.412785948830788,18.53370098508924,9.000352664958436,10.292297035952604,8.825571897661575,61.77900328363072,37.06740197017842,35.69722913740192,{}
41,98,41,0,1.3680333333333292,30.174791687353725,128.5714285714285,9.035079029052506,25.05880055162945,33.85257538626228,39.14309777739464,69.30921771965485,133.47193215016975,108.44990306896165,93.02605094190623,86.82431421244593,102.77163723105838,25.69290930776458,38.09638276668545,9.74558628915213,16.833285408535403,9.035079029052506,9.542106965315355,8.859623899229177,60.245442514758366,33.66657081707086,42.85714285714292,{}
42,98,42,0,1.4013999999999958,9.03277504354287,125.70819273035012,13.151918984428567,29.4085848837524,32.71810275417476,36.31130628046839,68.86269216534488,120.10534216988876,90.77826570117092,85.81136291365749,84.90808540930323,101.16708048768044,24.388492617565817,26.19504762627446,6.322942530480077,11.742607556605776,10.988845115895169,12.11873941369534,10.839330052251457,61.42287029609173,32.51799015675442,31.185974697739347,{}
43,98,43,0,1.4347666666666623,3.603018792888406,130.95374901597407,12.73859510596958,23.695156598922534,30.83687368889181,32.62672282955102,72.86654560605876,112.86424019146158,89.17016574178749,86.47245102932061,82.86943223643232,100.88452620087412,19.81660336088601,19.81660336088589,5.404528189332609,7.206037585776812,10.958153854670773,13.115186372685056,11.70981107688715,59.44981008265796,28.824150343106908,32.874461564012414,{}
44,98,44,0,1.4681333333333288,7.357631397066664,138.3409654033368,10.854615097841108,14.71526279413355,32.31844733296656,34.32530683362945,71.9350001265607,104.73894116135396,90.0945423974612,85.65541102437714,80.30194783535364,96.36233740242436,16.952633431907998,15.16814570223346,2.676731594511807,6.245707053860883,14.71526279413344,14.715262794133412,13.383657972558922,58.88809507925936,28.55180367479244,30.805034398503285,{}
45,98,45,0,1.5014999999999954,4.00280294343424,136.9988180482053,12.657974326078184,18.255590190472745,32.420232881645745,32.42023288164563,72.40538346958417,107.12266506916328,88.87664868881485,85.9251790277292,80.55485533849617,96.66582640619538,17.006025015904697,17.00602501590481,4.475269741027546,4.475269741027546,14.761607876309771,13.032182199541085,12.530755274877151,60.8636684779749,32.22194213539848,32.66640371243982,{}
46,98,46,0,1.534866666666662,4.023240996094838,143.51188810180784,13.09872367806016,16.588247584214006,32.5857684916337,32.83319625475127,72.32887731750715,105.60528646626187,89.05823586396902,86.36390742846646,77.36766707133455,97.15939585702478,15.29360860712427,17.092856678550675,2.6988721071395503,0.8996240357131455,16.29288424581685,14.50600170496864,15.293608607124328,59.37518635707068,28.78796914282213,39.94979043634734,{}
47,98,47,0,1.5682333333333285,2.5690425016072105,146.69435146725195,16.449898309036474,14.979963242684924,32.89979661807296,35.27174665649053,71.42677409014658,104.82826746389696,89.91648755625387,88.10448764108264,79.92984445788943,99.9123055723618,19.074167427450902,13.624405305321943,6.358055809150415,2.72488106106448,21.874608675177992,20.06486336556843,19.9824611144723,61.76397071745996,32.6985727327729,29.95992648536993,{}
48,98,48,0,1.601599999999995,2.542849459182032,147.23295998124692,16.282181004231656,18.336748221733604,34.352004532507365,36.67349644346709,70.33174091139644,106.82994501398132,88.5627412082066,87.20620566202257,77.31684213333966,98.89363528682968,17.980660961241824,17.98066096124171,3.596132192248433,1.7980660961242163,18.07034062460237,18.07034062460238,17.980660961241767,62.93231336434621,34.163255826359375,32.564362008463306,{}
49,98,49,0,1.6349666666666616,2.5281036017858867,147.8994625365984,16.18776144733667,20.38222285200005,34.38592658271911,38.21536127241811,68.30559793746745,106.69076450118548,86.47444796582775,84.91286201733561,76.86848561569326,96.53251681970784,18.77021160383208,18.77021160383208,4.469098000912481,0.8938196001824963,19.74512033650696,19.74512033650696,19.664031204014577,58.99209361204368,37.54042320766416,34.709674794312306,{}
50,98,50,0,1.668333333333328,3.983897755372925,149.17024079226402,17.905393454776622,19.919488776864625,35.81078690955336,37.79457261663214,66.1375024418305,107.62424391919627,87.75433511239626,85.51935548565757,80.17439576780396,99.77258139993388,24.052318730341085,16.925705773203163,6.235786337495824,4.454133098211287,17.90539345477668,19.919488776864565,19.59818563212985,60.57621013567416,37.41471802497523,34.2707843223588,{}
51,98,51,0,1.7016999999999949,3.580968929776759,153.2407862947175,21.78218362820802,25.32127413463467,36.21030736093941,37.98191120195202,61.11298823607536,111.7153264856379,86.40826828299683,84.15276984975344,76.99083199019992,94.8956766390836,25.066782508437143,25.0667825084372,5.371453394665082,1.7904844648883227,23.345061259956427,21.782183628208056,21.48581357866044,62.66695627109294,41.1811426924325,43.56436725641614,{}
52,98,52,0,1.7350666666666612,4.012780997774177,150.2517244267393,18.03520748395121,20.063904988871,36.07041496790243,36.29293660332238,66.616999063516,108.4045192465887,88.39055368236211,86.13937046248805,80.75565980858255,100.49593220623616,24.226697942574788,17.048417070700793,8.0755659808583,4.486425544921303,23.39833296257061,21.83188895969584,21.53484261562204,57.42624697499204,30.507693705464533,29.213486625412745,{}
53,98,53,0,1.7684333333333278,1.814698241622068,151.70920713732258,20.04399721597111,20.28894313458199,36.70000068980743,42.09161178884395,65.55558152538215,107.619408953733,87.40744203384281,86.19816647705028,83.47611911461712,101.62310153083814,27.22047362433159,14.517585932977,9.073491208110454,5.444094724866318,21.77637889946533,22.076756935874084,21.77637889946533,59.88504197352964,34.47926659082009,27.46136746714415,{}
54,98,54,0,1.8017999999999943,2.547073293387074,149.53077479314493,19.89327836418648,25.47073293387029,37.99325039424122,41.77510808301015,61.34164792287184,108.60213963779788,83.16106539583228,81.94790230595703,77.44527031112426,100.8589566842549,27.91631836796347,18.91105437829765,9.905790388632226,6.303684792766035,21.687547607710208,21.68754760771015,21.61263357519749,59.434742331793046,34.220003160729334,29.041103750462227,{}
55,98,55,0,1.8351666666666608,1.8033026172150808,150.98285103970224,21.938123181569743,23.71874273567428,38.04071038398781,40.03981596264737,59.53630286546055,106.77622654115338,83.12814324683713,82.05026908328796,77.5420125402502,97.37834132961656,27.951190566834327,18.934677480758864,9.918164394683116,4.50825654303776,19.91812843037967,21.714639019379533,21.63963140658143,59.508986368099016,37.86935496151756,27.288920378046694,{}
56,98,56,0,1.868533333333328,3.981528737667694,147.31656329370367,21.661858282027808,26.94527334933538,37.56166698789794,39.81528737667672,58.7865673208975,110.62632996086566,83.76364344950264,81.90731398850323,76.5655326414269,96.15206424737336,27.599203626560893,24.038016061843337,8.012672020614446,4.451484455896889,21.44118843668256,21.44118843668256,21.367125388305112,58.759594817839286,42.7342507766104,27.23784732608796,{}
57,98,57,0,1.901899999999994,0.0,149.75846310764078,19.7862626417958,21.792884238890046,36.22809586223724,38.29498945565517,62.80002197234674,104.28447009006427,82.57780247556079,82.40274628473702,78.82001818540067,96.73365868208263,25.07909669535485,16.122276447013746,8.956820248341046,3.582728099336464,21.57087962912793,21.79288423888999,21.496368596018385,59.11501363905052,39.41000909270036,28.88487737892188,{}
58,98,58,0,1.9352666666666605,1.7476749542968264,147.84131895208787,21.044793255152427,24.715856229864297,35.34453858891829,38.80468140208304,57.77909610095268,105.22396627576194,80.56383469018698,79.51921042050805,75.15002303476587,92.6267725777347,26.215124314453305,20.972099451562485,6.990699817187647,3.49534990859388,21.04479325515237,21.26138345427541,21.84593692871101,61.16862340039083,41.94419890312514,33.61719896086441,{}
59,98,59,0,1.968633333333327,0.0,154.5669564328944,20.217703720923986,21.999240073159804,36.34691069940475,38.3603956899486,63.39467253737583,105.44264218009756,83.49691344085657,83.18301415884298,81.37468776408548,97.64962531690264,26.220732723983133,15.370774355438355,11.75412156592347,6.3291423816510815,18.08326394757455,20.21770372092393,19.891590342331995,59.67477102699601,39.78318068466399,31.21655356206054,{}
60,98,60,0,2.0019999999999936,0.0,146.60019400350564,17.64732333282469,21.36234938139289,37.04231848884079,38.79074021342786,63.31255385635792,102.22425176479707,80.94641573337846,80.77481790957688,79.01884360719475,94.82261232863368,23.705653082158392,14.925781570247976,9.657858663101592,6.145910058337336,19.39537010671393,19.632389534345805,19.315717326203185,57.947151978609526,36.87546035002424,32.04352407208935,{}
61,98,61,0,2.0353666666666603,0.0,153.8028520333441,19.668665318673018,21.44267564499456,39.33733063734603,41.30342945461114,62.55363547413494,103.66466761660656,82.22210200202913,81.91299526118695,80.13227797290034,94.37801627919367,24.930042036013447,16.026455594580057,10.68430372972,5.342151864860057,19.668665318673064,19.668665318673064,19.587890171153447,58.763670513460255,35.6143457657335,34.02055602416154,{}
62,98,62,0,2.068733333333327,0.0,158.16366985508745,21.504133222818773,21.72545088748904,39.45007669101358,41.42181061058911,60.953816530642186,104.13036707234578,82.45776154920166,82.14776886707602,80.3619478047483,98.22015842802568,28.57313699724375,14.286568498621932,12.500747436294091,7.143284249310909,23.28425792957706,21.504133222818773,21.42985274793284,64.28955824379864,41.07388443353801,27.317809333782456,{}
63,98,63,0,2.102099999999994,1.7876392003649926,151.44374571754668,19.74512033650696,19.98641385629712,36.15276544704045,39.97282771259408,64.75104578934688,102.6609302384676,82.71574833590661,83.12522281697068,76.86848561569332,96.5325168197079,22.345490004561952,15.19493320310221,9.832015602007232,2.681458800547375,19.74512033650696,21.747569491344503,20.55785080419708,60.77973281240864,39.32806240802916,29.48250097439776,{}
64,98,64,0,2.1354666666666606,2.4921030054186457,148.0443433838567,19.463946690397087,21.43788065158568,35.63794433152131,37.67116846511949,60.146997676124485,102.94828952139456,81.53786295693968,80.17932352188427,74.01168325097012,96.92006140007982,25.55165255093016,16.740737878195546,7.929823205461048,4.405457336367249,21.2194924714803,22.97605445061048,22.0272866818363,65.20076857823551,38.768024560031904,35.94162067909957,{}
65,98,65,0,2.1688333333333274,1.7777075487432512,150.8434875219492,19.635421658848863,21.62674573464829,37.500781823079805,39.750749231045575,60.676885303389454,102.09057320329254,80.48913258422435,79.99683969344898,72.88600949847574,94.21850008339555,23.11019813366312,17.77707548743308,7.110830194973346,3.55541509748673,21.406433581625564,21.40643358162556,21.332490584919697,63.99747175475923,40.8872736210962,28.66467291812912,{}
66,98,66,0,2.202199999999994,1.7798180473778302,139.29279495311604,19.89897070758793,23.74573448338325,34.23548370120515,38.048164118254185,58.97619863457785,104.2067887515632,80.58468947406644,79.20190310831009,71.1927218951102,96.1101745583988,24.917452663288486,19.577998521155337,8.899090236888696,3.559636094755433,21.431847350540654,21.431847350540654,20.467907544844195,65.85326775297693,37.37617899493284,32.47863158801383,{}
67,98,67,0,2.235566666666661,0.0,154.87360611133576,16.542789255996702,22.19448078831713,38.06322053168977,40.12215732047489,61.42753388234551,100.00000000000006,77.9031379685343,77.15564920836948,68.1840620911172,95.09882344287404,20.63465036968023,17.046015522779385,9.868745828977469,2.6914761351756624,23.39503692531049,21.828813581651342,21.531809081405413,66.3897446676668,37.68066589245956,36.59703822301353,{}
68,98,68,0,2.268933333333328,2.484112698241455,148.81887735216532,12.787752784811634,18.33874222560713,37.91833466982055,37.91833466982055,60.13400133013576,89.56595707540787,71.32908037779465,71.13958383340486,59.72211976137697,89.58317964206555,14.930529940344286,13.17399700618614,11.417464072027997,0.8782664670790155,19.638635227473923,19.63863522747387,19.321862275739647,68.5047844321677,35.13065868316289,63.33269561148413,{}
69,98,69,0,2.3022999999999945,3.972133922911744,150.5014234067564,12.93233110295243,23.700029225615832,37.97492986433723,40.07723688551156,61.04693009763236,96.53184433467123,72.83208403238126,71.94388788564493,60.39733797807219,90.59600696710834,15.099334494518075,18.652119081463525,9.770157614099844,0.8881961467362771,18.115717936426417,18.546080023921704,17.763922934727134,72.83208403238123,35.52784586945427,53.763386570818525,{}
70,98,70,0,2.335666666666661,3.9549718984796014,150.21605972946165,12.87645559959295,20.166478886058435,36.07489412483288,38.18135688127824,62.53359640577863,94.39052297788122,74.24399826073326,73.4017639170446,60.136384895891865,91.97329454665817,14.149737622562723,15.91845482538315,8.843586014101675,0.0,21.51737345601901,21.517373456019,20.340247832433988,68.97997090999365,33.60562685358667,45.09361765604103,{}
71,98,71,0,2.369033333333328,5.105077410610629,150.16652672098638,14.883730400365966,24.08060198469449,33.28103293399841,37.209326000914885,65.87330459925626,102.00578309980496,77.92562467391664,77.61144939378795,64.97702739945038,99.27045852693816,17.146715563743896,17.146715563743896,11.731963280456284,0.9024587138812876,21.957768199752103,23.739982252311545,22.561467847031395,70.39177968273799,34.293431127487736,51.05077410610618,{}
72,98,72,0,2.4023999999999948,4.943124064577072,143.30797839866298,12.723144277474423,20.455815633759023,36.02889828850133,39.4289678386346,65.50805112971831,102.57726853378875,82.2699806638536,78.64462229194913,64.66335610671382,96.12120502349347,15.72892445838977,19.224241004698683,5.242974819463257,1.7476582731544568,19.92637014521878,21.26118051941889,20.09807014127591,76.89696401879479,29.710190643625253,67.52839397993702,{}
73,98,73,0,2.435766666666661,16.083166322705353,135.85558376086587,13.285444427865103,27.081368805069665,37.29238768032317,40.72492952874028,65.1318594775737,121.11156314375606,94.08793803706811,84.60651936378338,66.28964403760347,95.94553742284712,16.572411009400867,37.50598281074929,6.105625108726599,2.61669647516851,21.577831914602733,21.577831914602783,20.93357180134848,80.2453585718358,34.88928633558078,67.74274038443647,{}
74,98,74,0,2.4691333333333283,17.7308606474009,135.0342116622964,14.85506570187205,26.99116736771873,33.75855291557411,38.87748380004593,63.1923572006736,122.41160898386548,95.48360675858942,85.19404263962866,69.54615725683965,97.36462015957552,20.863847177051863,36.51173255984088,5.21596179426308,5.215961794262853,21.50596141693248,21.505961416932426,21.733174142762323,74.76211905110262,34.7730786284198,64.91492113208223,{}
75,98,75,0,2.502499999999995,21.072163579740195,135.69265276831038,13.191441871484969,26.88975173785208,35.70859283376588,39.0784349588288,64.92566901139983,125.69520154643916,98.8523846867596,86.6060588210533,72.74908940968481,105.65939176168509,25.115757058105487,33.77636294021079,2.5981817646315903,11.258787646736891,19.36570347872204,18.08387599241065,18.18727235242125,81.40969529179006,32.9103023520002,68.9593095610954,{}
76,98,76,0,2.535866666666662,23.61957719842421,129.24856281300092,14.598780355051758,28.819407977954786,39.58650132519218,43.07477042548937,66.35906837008888,133.33072148927326,104.51136243285232,91.17365119315076,77.89593499997335,107.9920917045086,27.44061346589968,38.062786420441626,4.425905397725842,11.507354034086916,18.483123572679425,20.18523427320216,19.47398374999335,77.8959349999734,37.177605340896434,66.35906837008893,"{'neutral': (['m1', 'm3', 'm12', 'e1', 'e2'], 5.173423874132636, 108)}"
77,98,77,0,2.5692333333333286,25.48135066919566,125.65451417460916,12.956373192485495,31.08103223146876,36.68934673376044,42.3028607715367,66.70888414365433,136.1204722290307,105.06230029249704,90.76443115092286,80.08626278022598,113.9004626207659,31.14465774786572,36.483741933214105,0.8898473642246927,15.127405191820458,22.013608040256315,22.01360804025626,21.35633674139359,74.7471785948776,35.59389456898936,62.92171054642845,"{'neutral': (['m1', 'm3', 'm12', 'e1', 'e2'], 5.173423874132636, 108)}"
78,98,78,0,2.602599999999996,21.501614043644405,120.45728308420424,12.867024830817494,30.86669452541712,36.04847272474661,39.52075260876225,67.99407374777921,133.10927419019035,102.2816623913518,90.1385111422473,81.3014022067328,111.34757258748192,29.16245948719757,34.46472484850631,0.883710893551438,15.02308519037456,21.50161404364435,21.8618001397294,22.09277233878612,79.53398041962993,42.418122890469306,61.02086110538709,"{'neutral': (['m1', 'm3', 'm12', 'e1', 'e2'], 5.173423874132636, 108)}"
79,98,79,0,2.635966666666662,27.65105695674267,132.40020917522077,16.665305177740088,34.76999835335871,38.34511679935037,44.314009257064846,63.90852799891735,142.93810574799278,108.16978552068764,93.0917162587906,88.57270090642214,121.10961144347527,41.57494124178993,36.15212281894787,3.615212281894742,23.498879832316,23.7753467528193,23.568300603446588,23.49887983231605,72.30424563789569,39.767335100842615,39.93132480729725,"{'neutral': (['m1', 'm3', 'm12', 'e1', 'e2'], 5.173423874132636, 108)}"
80,98,80,0,2.669333333333329,27.56982067182315,130.26495586564496,13.120909721537636,29.724219831214587,36.75976089576413,42.42099930416518,69.3356945350279,139.61684697206903,109.94002909108548,94.62051684068824,86.51018682577222,118.95150688543669,34.243615618534704,34.24361561853482,1.8022955588702416,19.82525114757277,24.04562189071376,24.04562189071376,22.52869448587813,79.30100459029114,34.24361561853482,53.37351552873445,"{'neutral': (['m1', 'm3', 'm12', 'e1', 'e2'], 5.173423874132636, 108)}"
81,98,81,0,2.702699999999996,31.075874942520667,132.3099553722401,15.38071989432296,31.438741492167047,38.48339097739749,42.37113673100575,67.21196923207194,144.7548365069703,113.3539944860656,96.30947491066443,84.60832375329403,118.81168867483836,35.10345347211137,40.50398477551312,2.7002656517008745,18.90185956190612,24.01735813926147,23.677632990067128,23.402302314740894,72.00708404535663,32.403187820410494,58.05396712770611,"{'neutral': (['m1', 'm3', 'm12', 'e1', 'e2'], 5.173423874132636, 108)}"
82,98,82,0,2.7360666666666624,34.468638199768755,139.09188380117433,16.99982764151007,34.79316515257251,40.42799046577839,45.68566404083515,65.12903932706995,151.14027005214774,116.36572078817916,97.66068490571996,84.22114111135483,120.05992456299516,37.63072262422224,46.59041848713253,7.167756690328133,17.919391725820105,23.907450463937767,23.9074504639378,24.191178829857225,78.84532359360878,37.630722624222415,54.49970227777737,"{'neutral': (['m1', 'm3', 'm12', 'e1', 'e2'], 5.173423874132636, 108)}"
83,98,83,0,2.769433333333329,36.08185042883811,138.4859369032974,15.243636286322314,36.38930936783193,38.514131263382346,43.73855024891942,66.61292970034205,153.9945263153339,117.61751754607556,98.12729731154514,82.07010320601944,117.752756773854,33.89852088944281,51.73984767336015,10.704796070350312,16.057194105525582,21.704910810403607,23.80329884093236,22.301658479896616,74.93357249245258,33.89852088944281,45.486636709789934,"{'neutral': (['m1', 'm3', 'm12', 'e1', 'e2'], 5.173423874132636, 108)}"
84,98,84,0,2.802799999999996,37.88298549473125,136.00408018360912,14.726257736860028,34.67437293922302,38.55057846337044,44.17877321058011,68.70190799859202,155.8992125726278,121.25185835801474,100.89889002151727,82.14776886707608,114.2925479889754,30.35895805957159,55.36045293215989,14.286568498621932,12.500747436294205,22.08938660529007,19.966086455078567,20.536942216768978,76.79030568009279,35.71642124655477,54.63561866756481,"{'neutral': (['m1', 'm3', 'm12', 'e1', 'e2'], 5.173423874132636, 108)}"
85,98,85,0,2.8361666666666627,38.44952999259987,141.34699468824917,14.83157907877912,36.684246297357305,38.82628996646012,44.49473723633722,67.41725994832895,157.33321453615514,120.65329648999295,99.82191988459266,84.53387810046576,120.50574112194062,35.97186302147486,52.15920138113836,10.791558906442331,16.187338359663727,22.24736861816854,23.99622560966423,22.482414388421773,77.33950549617077,35.9718630214748,38.82628996646022,"{'neutral': (['m1', 'm3', 'm12', 'e1', 'e2'], 5.173423874132636, 108)}"
86,98,86,0,2.869533333333329,35.13688246537964,136.106740491034,13.231697655512724,29.1242487604696,38.84960200911191,42.593056648615935,67.13229213077297,144.16291133709873,115.16793986274575,95.55738609030522,74.70850185242051,107.71923522907132,25.19240178744405,49.5161000649764,14.767959668501703,11.293145628854177,19.8094878739775,20.33582778981449,19.11147721806105,86.8703509911866,29.535919337003463,53.88763302221147,"{'neutral': (['m1', 'm3', 'm12', 'e1', 'e2'], 5.173423874132636, 108)}"
87,98,87,0,2.9028999999999963,31.833486544637456,129.90111103334598,11.702222389922012,34.273285813749006,37.65780902644439,41.46544344597294,67.40498155556033,144.7484969043487,110.50875094237622,92.45660878928902,75.01196562149869,108.15678764030042,25.29473259329609,49.7172330282026,9.594553742284688,11.339018059063848,23.274056886321567,21.577831914602783,21.805803959738,73.26750130471959,29.655893385243644,51.33588298333151,"{'neutral': (['m1', 'm3', 'm12', 'e1', 'e2'], 5.173423874132636, 108)}"
88,98,88,0,2.936266666666663,28.67033630636121,127.25237610049231,15.191740851547472,32.78578388762371,34.52365662388313,40.114834471475376,68.148611424938,144.40639849897147,111.66435622642172,96.01517396725744,81.79070374988595,115.57382051614314,31.11602860050016,43.56244004070004,6.223205720099941,15.11349960595726,18.13271280222409,18.56347862452841,17.780587771714295,69.34429230968584,28.44894043474289,27.60289507702781,"{'neutral': (['m1', 'm3', 'm12', 'e1', 'e2'], 5.173423874132636, 108)}"
89,98,89,0,2.96963333333333,29.45251547372005,130.8045358143034,14.726257736860028,32.928913353801235,34.67437293922302,40.289959606911545,66.46038113278412,143.27806095368476,110.38916789016284,94.64851630337024,83.93358992940375,116.07836905130318,33.93060018422716,41.07388443353796,3.5716421246554546,16.072389560949773,18.211872889188268,20.90249962878873,19.64403168560512,71.4328424931096,30.35895805957153,29.071060690369382,"{'neutral': (['m1', 'm3', 'm12', 'e1', 'e2'], 5.173423874132636, 108)}"
90,98,90,0,3.002999999999997,17.9598338826662,115.7651340245342,12.821049606741672,25.642099213483423,30.4014135965786,33.875561909106,72.54818752432801,128.5487191809801,103.1112501436178,93.33865003299633,84.53311701101558,110.94971607695794,25.53604576374425,29.05825897253657,0.8805533021979954,11.447192928575078,17.959833882666256,20.079704713122887,19.37217264835772,66.92205096705402,28.17770567033853,21.783685643694685,"{'neutral': (['m1', 'm3', 'm12', 'e1', 'e2'], 5.173423874132636, 108)}"
91,98,91,0,3.036366666666664,12.580931077949431,106.09328995234917,10.929614496753038,23.50502473611331,28.131817110534747,31.53529987365826,71.18947161656591,117.6267231148692,94.3371996724976,87.27025128726962,79.4936942418692,101.95930348413664,19.873423560467245,25.05779492406748,0.8640618939333535,7.776557045400182,21.37571073455093,19.70364274454872,20.7374854544006,65.6687039389355,27.6499806058676,25.16186215589888,"{'neutral': (['m1', 'm3', 'm12', 'e1', 'e2'], 5.173423874132636, 108)}"
92,98,92,0,3.06973333333333,18.56798149115717,114.16171878751804,10.903494167182243,26.76358094405541,28.43283415992305,33.871103993949674,69.30369309187354,124.76046560575904,98.0708538295175,87.92368385777445,79.30371485211026,108.61160947136852,24.99791011642617,28.44589771869164,0.8619969005665098,11.20595970736349,19.656553650749068,21.32462561994229,21.54992251416041,70.68374584644613,31.031888420391,21.80698833436448,"{'neutral': (['m1', 'm3', 'm12', 'e1', 'e2'], 5.173423874132636, 108)}"
93,98,93,0,3.103099999999997,26.04139636289537,124.53396438839772,9.2671357651516,30.05359615487794,30.053596154877937,35.09887462609749,67.46576672918528,132.4059128947577,102.46006955650142,88.62449135688752,73.99714812322651,98.0892428610212,18.92950300826726,44.74246165590444,12.046047368897348,6.883455639369913,21.285911002781774,21.285911002781774,21.51079887303098,80.88060376259645,27.53382255747965,50.112313472600654,"{'neutral': (['m1', 'm3', 'm12', 'e1', 'e2'], 5.173423874132636, 108)}"
94,98,94,0,3.136466666666664,23.91738850725128,121.07255157879128,7.563342336604764,29.53579601661948,31.18445933652761,36.50830908308167,71.35242889881509,131.7954450193604,102.37089325332884,89.63438228927782,76.10466420787748,101.47288561050324,17.757754981838048,41.43476162428874,7.610466420787702,7.610466420787816,20.91917127541615,20.574515547760203,20.29457712210064,67.64859040700216,23.67700664245075,52.09929739849889,"{'neutral': (['m1', 'm3', 'm12', 'e1', 'e2'], 5.173423874132636, 108)}"
95,98,95,0,3.1698333333333304,19.50370398320324,130.00648848988382,12.699891924080106,32.16633264541079,32.16633264541082,37.29238768032317,68.8345371646124,133.09473932275415,100.9531010676439,89.83991231412045,76.75642993827768,102.92339468996325,21.805803959738,40.99491144430738,4.361160791947555,6.105625108726599,23.27405688632162,21.57783191460276,21.805803959738,71.5230369879406,27.911429068464656,27.08136880506976,"{'neutral': (['m1', 'm3', 'm12', 'e1', 'e2'], 5.173423874132636, 108)}"
96,98,96,0,3.203199999999997,21.182074882815527,136.5892081448872,13.260247742322626,28.715877589030235,32.105327161317135,37.58638861010768,66.98360219794166,129.75992296272003,101.07705779569504,88.79894732390898,74.86970068486443,100.987038133073,21.76444787350704,39.17600617231278,7.835201234462602,6.094045404581948,21.536908191772685,21.536908191772685,21.76444787350709,71.38738902510329,29.59964910796964,27.030007276477463,"{'neutral': (['m1', 'm3', 'm12', 'e1', 'e2'], 5.173423874132636, 108)}"
97,98,97,0,3.236566666666664,15.756739982266096,130.57250984747458,10.80903445366812,28.186513363308645,31.9278459230278,36.89350052258271,66.03692000504971,120.67937229922894,92.51043341892763,82.88933283850076,68.36233636165014,100.83444613343396,19.654171703974384,33.32663897630448,0.8545292045206452,5.981704431644289,21.61806890733633,19.48626398047868,18.7996424994538,78.61668681589768,20.50870090849503,54.04517226834077,"{'neutral': (['m1', 'm3', 'm12', 'e1', 'e2'], 5.173423874132636, 108)}"
98,98,98,0,3.2699333333333307,23.119862446582506,138.99731421905693,8.78885295991438,22.234234698913728,34.12973132289534,37.57684335460088,67.91912748910657,121.0821998454733,98.95171232400332,85.25187371116988,68.5530530873325,100.19292374302438,17.57770591982876,33.39764124767487,7.031082367931617,7.031082367931504,17.925813097880507,20.041668319408497,18.456591215820254,70.31082367931532,22.8510176957775,38.390289209343145,"{'neutral': (['m1', 'm3', 'm12', 'e1', 'e2'], 5.173423874132636, 108)}"
99,98,99,0,3.303299999999997,22.888972478791512,141.00048633438973,8.70108176397739,20.36871018919829,34.18982656363192,37.20157658249639,67.24084295369538,118.18106373833314,97.96351623399026,84.40049311058146,67.86843775902423,99.19233210934316,17.40216352795494,31.323894350318824,6.960865411181885,6.960865411181999,19.841519198130715,18.16839211500337,18.272271704352647,74.82930317020626,26.10324529193241,46.07467223030817,"{'neutral': (['m1', 'm3', 'm12', 'e1', 'e2'], 5.173423874132636, 108)}"
100,98,100,0,3.336666666666664,21.7101635780964,145.63620468979045,7.849326207190588,21.71016357809632,34.07909517497292,37.88875532965572,67.81836012724918,118.794826119545,97.090803126527,84.24780948887411,66.69618251202525,98.28911107035304,15.796464279163956,33.348091256012594,7.02065079073941,7.020650790739524,18.32443653683644,20.01193374951,19.30678967453366,71.96167060507992,24.572277767588275,43.4203271561927,{}
101,98,101,0,3.370033333333331,19.966086455078543,142.56400917195754,7.363128868429987,22.0893866052901,35.08581694257954,38.55057846337033,69.0029796596748,118.37717377972388,96.31852015627454,84.82650046056762,69.64702143078188,100.00597949035348,16.96530009211358,31.2518685907354,6.250373718146989,6.250373718147216,16.941786151371513,18.211872889188268,16.96530009211358,66.07537930612642,21.42985274793289,39.00292072901282,{}
102,98,102,0,3.4033999999999978,11.01579402921474,145.19343072568566,10.15606027847265,24.93806438423341,34.21995732913611,37.23436153910644,63.08886711208164,108.2830700564068,83.3496062431384,76.63699860872407,67.92824876682369,94.05449829252508,18.28837466799098,25.2553745415114,4.354374920950136,6.096124889330213,17.76243415313945,19.859005106141893,19.159249652181074,59.21949892492324,22.64274958894123,29.197049844306623,{}
103,98,103,0,3.4367666666666645,13.094444209750256,146.14770455435155,12.15788622885066,29.681182884445583,38.17653713839475,41.586369297860045,62.49200828400453,117.0318911464885,87.35083787646631,79.95139131502765,72.21415989744435,94.56616177046284,21.492309493287053,31.80861805006475,0.8596923797315412,7.737231417583303,17.95090389554278,19.604002490296587,18.913232354092543,61.89785134066653,30.948925670333267,48.90433228680731,{}
104,98,104,0,3.470133333333332,13.163701660860502,144.95538138002885,12.222190157876438,29.83816878163862,38.37845557128626,43.52198181375847,62.82253298128677,117.6508811814664,87.81284269979112,80.37425993674947,74.32458445763928,95.06632895744563,22.470223208123457,31.11261674970956,1.7284787083171975,8.642393541585989,17.62709332507803,19.707689460303698,19.01326579148912,63.95371220773615,29.384138041392248,48.88876063150608,{}
105,98,105,0,3.503499999999998,24.37461602546106,145.60645668884192,10.483918765514336,24.37461602546117,38.07436738264133,39.791140729134575,63.9804652610304,123.14609884430249,98.78487896653942,86.17728140210937,72.38891637777186,87.90082703015145,16.373683466400735,42.22686788703356,14.650137838358546,6.032409698147603,19.651443691307577,19.269825933124505,19.82077472248517,60.32409698147654,36.19445818888596,48.53548556294735,{}
106,98,106,0,3.536866666666665,9.04173503199023,141.20301777076853,9.04173503199023,20.217934166071387,37.40633055892881,39.3720983730077,69.17870503147613,106.92445348961692,87.05097168565058,82.45520101791146,70.92920517669802,88.66150647087261,10.639380776504709,26.598451941261715,1.7732301294173567,1.7732301294174704,25.07726098230756,21.57227557763268,21.278761553009417,79.79535582378531,40.78429297660142,56.35413509932144,{}
107,98,107,0,3.570233333333332,8.72763511197627,134.8130084782823,12.342739942800495,24.499639250908864,36.69760410398923,38.44124509127339,66.33002685101985,111.76826384193068,87.29380464480887,82.91253356377479,73.31213494060091,83.78529707497239,12.2186891567668,33.16501342550987,5.236581067185739,1.745527022395322,26.41461697950324,24.499639250908928,24.437378313533657,76.80318898539144,50.62028364946252,59.98622405154487,{}
108,98,108,0,3.6035999999999984,17.38079362428664,132.0940315445788,12.166555537000704,29.598424997440908,36.54102601986434,40.013591830192425,64.40281811883634,123.4158741209836,93.92063682010094,85.1658887590047,79.95165067171877,79.95165067171877,15.642714261858032,43.45198406071677,12.166555537000704,6.952317449714656,24.58015406827404,22.661782319956124,23.46407139278699,72.99933322200405,52.14238087286003,61.45038517068513,{}
109,98,109,0,3.636966666666665,17.38079362428664,132.0940315445788,12.166555537000704,29.598424997440908,36.54102601986434,40.013591830192425,64.40281811883634,123.4158741209836,93.92063682010094,85.1658887590047,79.95165067171877,79.95165067171877,15.642714261858032,43.45198406071677,12.166555537000704,6.952317449714656,24.58015406827404,22.661782319956124,23.46407139278699,72.99933322200405,52.14238087286003,61.45038517068513,{}
110,98,110,0,3.670333333333332,17.546172385019904,127.49921086498745,10.47545644135812,27.93455051028832,36.66409754475342,40.15591635853946,68.29162082809744,124.00873868383712,96.08848402013572,87.29547034465111,83.80365153086507,80.31183271707903,13.967275255144273,41.90182576543248,12.22136584825114,6.983637627572193,27.98905700213794,22.69682228960926,22.69682228960926,75.07410449639985,55.86910102057664,63.23952838285357,{}
111,98,111,0,3.703699999999999,17.467248908296938,134.59985920914224,13.973799126637571,29.745653040919503,36.72278784563952,41.95777170118543,63.2690664673357,124.32460890322623,94.58156416196256,85.58951965065512,82.09606986899564,76.8558951965066,16.593886462882097,44.54148471615724,13.100436681222732,6.113537117903888,29.899114006329555,24.454148471615724,25.327510917030565,73.36244541484717,59.3886462882096,65.00539411678044,{}
112,98,112,0,3.7370666666666654,17.688276371845102,139.22201203489178,15.840443538628731,29.920837795187595,40.51937736338934,42.27783456205552,60.48529138845705,123.65520560879324,93.87846151950971,84.48236553935305,80.96226697521331,73.92206984693394,17.600492820698605,45.76128133381621,14.08039425655886,5.280147846209616,26.40073923104785,22.880640666908107,23.760665307943043,65.12182343658469,63.36177415451482,59.84167559037508,{}
113,98,113,0,3.770433333333332,17.299814736194662,133.48911919344798,13.839851788955798,27.7337128069813,36.493999165405846,39.93972376222069,63.1383989150559,121.70269045703404,93.99389115280114,84.76909220735422,83.03911073373479,74.3892033656374,16.434823999385003,42.38454610367705,12.974861052146023,6.054935157668183,26.007324222015864,22.489759157053182,22.489759157053182,69.19925894477899,64.00931452392058,64.10275882845025,{}
114,98,114,0,3.803799999999999,17.450618497690016,131.06564648506486,15.802207139528855,29.6660514460732,34.94483630906304,40.17434076055505,61.96812667697613,124.50010431703625,95.0217824947234,85.50803063868136,82.01790693914336,75.03765954006735,17.450618497690016,45.37160809399427,13.960494798152126,5.235185549306948,26.23403198616917,20.940742197228133,21.813273122112605,69.80247399076035,62.82222659168434,64.66154730688024,{}
115,98,115,0,3.8371666666666657,15.833088149056609,137.77156843084245,14.183381956580575,31.715006205758232,38.86270547183986,42.367917426937865,63.940279304794686,125.51106403982853,93.8348697693658,85.3227528032495,84.4431367949685,72.12851267903557,14.953472140775602,46.61964843888893,13.19424012421382,6.157312057966465,24.6292482318658,19.351552182180285,21.110784198742124,59.81388856310269,63.33235259622637,61.59824733875149,{}
116,98,116,0,3.870533333333333,17.36078756850578,137.0042560603041,15.54716635379873,29.41763363712996,38.16090337154974,41.6028164625521,61.65857025929445,123.6313248252938,94.3011237554907,84.64568348179307,84.64568348179307,72.553442984394,18.13836074609856,44.05030466909625,12.955971961498904,7.7735831768994785,22.457018066598152,20.72955513839827,20.72955513839827,62.18866541519486,63.916128343394746,65.64359127159457,{}
117,98,117,0,3.9038999999999993,15.6380304473465,131.65517387838156,15.542384103948391,29.408584883752265,34.710894911193,38.14916522131176,63.33390559084842,123.59329629513084,94.27211708477678,85.48311257171645,82.89271522105844,72.53112581842606,15.542384103948509,44.90022074473984,13.815452536843054,5.180794701316245,25.90397350658077,22.450110372369977,23.313576155922647,63.89646798289914,63.89646798289914,62.3850293892044,{}
118,98,118,0,3.937266666666666,15.40474394145224,132.50556347317996,15.499543260471,30.9990865209419,37.81132404681499,39.51623676845852,62.77303352651477,124.42091156979836,93.43726257161892,84.72609167798703,85.5819107858456,71.88880506011026,17.11638215716914,44.5025936086397,11.981467510018431,5.134914647150708,29.09784966718752,25.73156458942169,25.67457323575365,61.61897576580884,66.75389041295955,56.48406111865813,"{'neutral': (['m1', 'm3', 'm12', 'e1', 'e2'], 5.226093850978802, 136)}"
119,98,119,0,3.970633333333333,14.02914344111623,138.00658207262845,15.757285487962935,31.37011840043112,36.707472564060026,40.1733530921878,63.50773000811833,124.53581419207651,93.27006735046618,85.26495307840639,83.52485199517366,71.3441444125441,14.79085920747866,46.11267870566871,13.050758124245933,4.350252708081939,27.84161733172453,26.15945531256617,25.231465706875383,62.64363899638022,69.60404332931137,55.68323466344907,"{'neutral': (['m1', 'm3', 'm12', 'e1', 'e2'], 5.226093850978802, 136)}"
120,98,120,0,4.004,19.38043622953781,142.81590432574998,12.4070529328424,31.777560539758063,37.01379696893222,40.50860032165071,64.70727145701018,128.07540592047047,96.3605569550854,85.09917925452703,84.22186812819166,70.1848901068264,14.036978021365258,49.1294230747784,17.54622252670663,5.263866758012,26.319333790059886,23.078452508240268,22.81008928471863,59.6571565908024,68.43026785415572,61.41177884347303,"{'neutral': (['m1', 'm3', 'm12', 'e1', 'e2'], 5.226093850978802, 136)}"
121,98,121,0,4.037366666666666,12.366311455483066,149.67835196030424,12.366311455483066,31.673211443298843,38.83100562537823,42.29929326199123,64.89663049223651,121.07623083447535,89.53414457911849,81.32201500246379,83.94530580899482,66.4567004321209,12.242023763811744,43.7215134421848,12.242023763811744,5.246581613062176,28.036367227799328,24.54642736764774,24.48404752762349,59.461258281371386,69.95442150749574,66.4797077724093,"{'neutral': (['m1', 'm3', 'm12', 'e1', 'e2'], 5.226093850978802, 136)}"
122,98,122,0,4.070733333333333,14.351414064830037,154.56945990907468,12.306236034563096,29.790243196102185,40.62922044770678,44.06251206227413,64.58136329173485,120.82693462394872,91.18248268761472,81.7971357386657,85.27786491903441,64.39348983682191,12.18255213129055,43.50911475460941,13.922916721475076,5.221093770553125,22.89092223722761,21.17244903646272,21.754557377304707,41.768750164425,71.35494819755934,63.25453205771138,"{'neutral': (['m1', 'm3', 'm12', 'e1', 'e2'], 5.226093850978802, 136)}"
123,98,123,0,4.1041,12.535853477164927,155.41329755872854,14.199414234041344,28.03102053091797,36.81069969483424,39.93991261687479,62.67926738582478,117.35695476271307,89.40790455040054,80.06983349887037,84.3746632568741,58.54568470885147,11.192557370809824,42.18733162843705,14.63642117721281,2.5828978548022405,25.886312644204068,22.648478092634164,24.1070466448212,53.37988899924687,77.48693564406807,71.35117347244459,"{'neutral': (['m1', 'm3', 'm12', 'e1', 'e2'], 5.226093850978802, 136)}"
124,98,124,0,4.137466666666667,12.643148297358191,157.04144983133352,12.280111196910337,26.56594235331592,38.83312130237324,42.00444301260575,63.21574148679092,114.56758024405651,88.04077540455893,79.01848409964725,85.09682903038936,57.31010934699691,10.420019881272196,39.94340954487677,13.893359841696224,3.473339960424028,24.375324739855703,22.84232723015215,23.445044732862414,52.100099406360926,76.41347912932935,70.00740502100962,"{'neutral': (['m1', 'm3', 'm12', 'e1', 'e2'], 5.226093850978802, 136)}"
125,98,125,0,4.170833333333333,7.302358928844807,158.6851863085931,15.58597048257345,26.32902954979211,37.15522380004554,40.51182477775697,60.437774164085646,108.32516131013836,82.20335933811215,74.87143900004207,84.33794278165658,49.91429266669468,10.327095034488591,36.14483262070996,13.769460045984715,1.721182505748061,24.34119642948256,20.939088907538604,21.51478132185116,51.63547517244274,82.6167602759084,69.61752394907914,"{'neutral': (['m1', 'm3', 'm12', 'e1', 'e2'], 5.226093850978802, 136)}"
126,98,126,0,4.2042,7.270457695272295,161.2756576502861,12.475657231036138,21.67631684555387,39.07753592492402,41.19926027320984,65.02895053666143,105.70677660152454,84.03941866518505,76.25801742341184,83.9695023313974,42.841582822141504,1.7136633128857284,35.98692957059882,18.850296441742216,1.713663312885615,20.635238858319177,19.538767962462,19.70712809818508,39.41425619637016,80.54217570562605,65.25435485390132,"{'neutral': (['m1', 'm3', 'm12', 'e1', 'e2'], 5.226093850978802, 136)}"
127,98,127,0,4.237566666666667,9.80190936006958,162.78948074232582,9.05253520874211,19.675759581057388,38.80921231065871,42.02533967367592,62.76284339658096,101.14059610162452,81.47281687867905,71.44307744524895,77.32662499956359,31.939258151993613,4.202533967367572,39.50381929325533,24.374697010732007,4.202533967367572,20.79298973124309,17.550297093370197,16.810135869470344,30.25824456504665,82.36966576040476,68.11735878423266,"{'neutral': (['m1', 'm3', 'm12', 'e1', 'e2'], 5.226093850978802, 136)}"
128,98,128,0,4.270933333333334,8.492205344262516,164.01172747764974,10.7418844982898,22.0797338950829,39.21155697376099,40.83329270586593,61.82418810856727,102.82233738783329,80.74296666251931,71.33452489180615,76.42984809836378,32.270380308198014,3.3968821377050062,40.76258565246064,23.778174963935385,5.095323206557509,17.732245346142015,17.73224534614203,16.98441068852526,30.57193923934545,81.52517130492129,65.56070527308049,"{'neutral': (['m1', 'm3', 'm12', 'e1', 'e2'], 5.226093850978802, 136)}"
129,98,129,0,4.3043000000000005,7.658606369096292,169.60830656661855,11.48790955364444,23.852593982889875,40.70605121291593,44.45951277415092,60.7400396806287,103.67445003686632,79.82972145320453,70.21317426226983,73.63820715311226,25.68774668131823,6.850065781684862,46.237944026372816,27.400263126739446,10.275098672527292,21.18265857023692,17.879196591747473,17.98142267692276,42.81291113553039,92.47588805274565,75.60328571106209,"{'neutral': (['m1', 'm3', 'm12', 'e1', 'e2'], 5.226093850978802, 136)}"
130,98,130,0,4.337666666666667,11.654880602733623,171.12356694132023,10.988326810816565,21.97665362163316,41.29769341235676,45.10570966969807,59.09738325408682,103.57627394389836,81.67661089380141,69.49628079294916,67.75887377312552,22.586291257708467,8.687035099118702,50.384803574888224,31.27332635682717,10.424442118942466,20.92115095106511,19.809487873977528,19.98018072797288,36.485547416298346,90.34516503083404,68.73196224256813,"{'neutral': (['m1', 'm3', 'm12', 'e1', 'e2'], 5.226093850978802, 136)}"
131,98,131,0,4.371033333333334,20.250997503986227,170.87460048997897,10.94248934042838,25.72066976448641,43.25398698483401,48.72173330803022,56.48911084915037,113.1370849898476,87.48860676860991,70.07145891543121,69.20637917573447,22.49207323211374,4.325398698483355,57.96034255967754,35.46826932756392,6.055558177876719,19.343771039196,18.6343878783186,18.166674533630328,38.06350854665391,93.42861188724146,60.183691372355966,"{'neutral': (['m1', 'm3', 'm12', 'e1', 'e2'], 5.226093850978802, 136)}"
132,98,132,0,4.404400000000001,14.861384586713337,161.57645578085717,11.000890420604089,23.658309406282463,42.6417558320859,46.05288607197794,52.98730498025372,102.40286850229302,78.8119943861216,66.09695303616957,66.09695303616957,26.090902514277445,2.6090902514278014,49.5727147771272,26.96059926475334,6.087877253331385,22.87814955256543,22.00178084120819,20.872722011422013,40.00605052189212,90.44846204949522,61.644262729379385,"{'neutral': (['m1', 'm3', 'm12', 'e1', 'e2'], 5.226093850978802, 136)}"
133,98,133,0,4.437766666666668,11.46272456351621,155.86308327548917,12.439975780799044,26.527121180234527,41.8908175315683,45.241876409594354,52.05417743954992,102.19768780346988,75.842861995562,64.9329593728263,66.6417214615849,25.63143133137873,1.70876208875859,49.55410057399911,25.63143133137885,6.83504835503436,24.16554520791376,23.241677156695136,21.35952610948237,42.71905221896475,90.56439070420517,62.1998789039951,"{'neutral': (['m1', 'm3', 'm12', 'e1', 'e2'], 5.226093850978802, 136)}"
134,98,134,0,4.471133333333334,8.696967504759117,151.95570993155624,14.34340625787462,27.00264857431552,39.24250607870387,43.03021877362372,52.32655372555976,101.79539477648596,74.93536533667425,66.09695303616968,71.31513353902506,29.569689516181143,1.7393935009517918,45.22423102474761,19.133328510470164,5.218180502855489,22.87814955256543,21.51510938681185,20.87272201142196,40.00605052189212,90.44846204949522,61.644262729379385,"{'neutral': (['m1', 'm3', 'm12', 'e1', 'e2'], 5.226093850978802, 136)}"
135,98,135,0,4.504500000000001,10.15375028918327,141.12488211151936,12.677247081889872,27.033080730923164,39.28673263253142,43.07871410373818,58.53643128470139,108.02009422409834,81.17398805397421,70.52482924365347,76.61956757335201,38.30978378667601,3.482707616970515,43.53384521213184,17.41353808485269,1.7413538084853144,24.62646172849916,22.026576988088387,20.89624570182326,47.01655282910235,88.80904423274887,64.61807115560731,"{'neutral': (['m1', 'm3', 'm12', 'e1', 'e2'], 5.226093850978802, 136)}"
136,98,136,0,4.537866666666668,14.67647100943943,139.21203532439597,10.864011249689543,30.438625336930528,38.75422908554306,42.49481296147452,61.57604271486036,117.4117680755158,87.08167472462058,73.86329316062859,80.73429717557076,42.943775093388695,5.15325301120663,48.09702810459544,20.61301204482664,1.7177510037354295,27.537643459171683,23.36393961865975,23.18963855042989,48.09702810459533,92.75855420171962,68.75297051296654,"{'neutral': (['m1', 'm3', 'm12', 'e1', 'e2'], 5.226093850978802, 136)}"
137,98,137,0,4.571233333333335,13.136502129107289,137.22501647759998,14.2239494471695,31.805717872391444,38.57009831954861,41.00057691483135,57.33857332092442,116.1850190139028,84.5908295849268,73.30855748015699,81.07064003687958,46.57249534033508,10.349443408963452,46.57249534033497,15.524165113444951,1.7249072348273558,27.81329343816397,25.11502843671433,24.148701287581048,50.02230980998951,87.97026897618838,76.85037646613848,"{'neutral': (['m1', 'm3', 'm12', 'e1', 'e2'], 5.226093850978802, 136)}"
138,98,138,0,4.604600000000001,11.571029495864718,143.58233919439098,14.223949447169362,30.124209789994225,39.33393679451423,44.34722747083404,58.36714991525112,114.01362817009804,84.00847210785983,74.17101109757061,82.79554727170671,43.1226808706806,7.762082556722476,45.71004172292146,16.386618730858686,2.587360852240863,27.813293438164028,25.11502843671433,24.148701287581048,51.74721704481669,89.69517621101562,73.74861004040683,"{'neutral': (['m1', 'm3', 'm12', 'e1', 'e2'], 5.226093850978802, 136)}"
139,98,139,0,4.637966666666668,12.477374923454311,140.5501892156564,17.478411502218385,32.01828040889999,39.08291625767439,44.49541262698538,55.377779741055086,117.07324536203564,85.09298371147182,74.55461763969402,82.26716429207613,44.561380658207895,11.997294792594404,47.98917917037784,18.85289181693417,3.427798512169716,25.93600202694963,23.31155018658264,22.280690329103948,51.41697768254761,89.1227613164159,76.35993425951044,"{'neutral': (['m1', 'm3', 'm12', 'e1', 'e2'], 5.226093850978802, 136)}"
140,98,140,0,4.671333333333335,10.85400755396793,141.51894430383055,14.15189443038306,29.971607979213225,38.71854378415797,42.07240707070879,56.45127486161914,111.28666399468035,81.4050566547593,72.07910978354425,75.51144834466538,41.18806273345388,5.148507841681749,48.05273985569613,18.87786208616637,1.7161692805606208,25.79968143012614,23.34242585754234,22.310200647287445,53.20124769737788,89.24080258914995,76.4610714291039,"{'neutral': (['m1', 'm3', 'm12', 'e1', 'e2'], 5.226093850978802, 136)}"
141,98,141,0,4.704700000000002,10.956642697819609,146.22090213402575,14.285714285714324,30.25501853343637,39.08466508002562,42.47024238917689,56.98507628816358,112.33898708466118,82.17482023364687,72.76068751089986,77.9578794759642,43.30993304220226,6.929589286752389,46.774727685578455,19.056370538569013,0.0,26.21592855429659,23.113063091554725,22.521165181945207,53.7043169723309,90.08466072778084,82.08346409619425,"{'neutral': (['m1', 'm3', 'm12', 'e1', 'e2'], 5.226093850978802, 136)}"
142,98,142,0,4.738066666666668,12.32725638093406,153.54239905179887,12.691687235121922,27.0638730492842,41.03328708115623,44.1377754704291,57.344933929955,109.20585556957496,82.15910612784477,72.34849861718419,73.2201672752226,40.09675826976468,2.6150059741150926,47.94177619210996,21.79171645095903,2.6150059741150926,26.3814807100789,23.711951091395573,22.66338510899743,55.78679411445529,90.65354043598984,84.33140870662555,"{'neutral': (['m1', 'm3', 'm12', 'e1', 'e2'], 5.226093850978802, 136)}"
143,98,143,0,4.771433333333335,11.1315290509699,151.57897567409714,12.81335218401784,27.32331252887948,39.70852174200329,43.14813853069549,57.89465346895528,109.0946639032303,81.81863161991225,72.16202056486418,73.92206984693405,40.48113348760671,2.6400739231048647,46.64130597485121,20.24056674380336,2.640073923104751,26.45934249789867,25.626704368035654,23.7606653079431,56.321577026235445,89.76251338556273,83.39365354798484,"{'neutral': (['m1', 'm3', 'm12', 'e1', 'e2'], 5.226093850978802, 136)}"
144,98,144,0,4.804800000000002,9.319373654697214,150.72807237403066,12.236937110851551,28.17154483217347,40.40042902518252,42.42530389822026,55.29687605677027,104.59539443590084,76.61534500551136,68.35728757508821,70.95313393869912,38.07241333296054,2.5958463636109173,45.85995242379329,18.170924545276648,4.326410606018271,24.289626625958032,21.40589749008686,21.632053030091186,50.18636302981156,86.52821212036474,76.63488724406544,"{'neutral': (['m1', 'm3', 'm12', 'e1', 'e2'], 5.226093850978802, 136)}"
145,98,145,0,4.838166666666669,6.186996107068863,151.13152419452086,10.852709102252318,26.249201414899225,38.37012100223791,40.059582404734925,55.8940859672236,98.78350205876713,72.72124957073518,66.06461312674026,70.35452307003504,37.75120750099438,0.8579819886589348,40.3251534669713,16.30165778452033,4.289909943294788,25.96724692882712,21.705418204504635,21.44954971647411,49.76295534221987,82.36627091126047,74.28360292892684,"{'neutral': (['m1', 'm3', 'm12', 'e1', 'e2'], 5.226093850978802, 136)}"
146,98,146,0,4.871533333333336,4.940860945144607,151.4234836025795,12.717319217314138,23.305994466304856,37.05645708858473,40.5180723582691,56.388624039100456,96.7103326853689,73.47194793712328,68.12746744462493,71.62118372383645,41.924595350538425,2.620287209408616,35.81059186191828,13.101436047043308,4.367145349014436,24.518322371273005,21.60744186769361,22.70915581487497,50.6588860485673,85.59604884068267,77.57309034540565,"{'neutral': (['m1', 'm3', 'm12', 'e1', 'e2'], 5.226093850978802, 136)}"
147,98,147,0,4.904900000000002,4.962486978032046,156.92761709507266,12.406217445080204,27.23722810493068,39.23190427376813,42.68892711849519,52.16515704269198,95.9859671269473,68.80698914080043,63.16214748689538,66.67115568061172,38.59909013088043,3.5090081937163404,38.59909013088054,12.281528678007476,3.509008193716454,26.37598008513888,23.40800425941553,23.68580530758578,52.63512290574613,85.97070074605199,74.20950879584892,"{'neutral': (['m1', 'm3', 'm12', 'e1', 'e2'], 5.226093850978802, 136)}"
148,98,148,0,4.938266666666669,3.8135036905855326,150.86251447275183,14.063506725361416,26.08837914918295,34.49060583065114,38.13503690585533,49.10395059469806,91.68284686956036,65.875447799585,60.54349974062848,64.80712648292626,37.519915332220535,5.116352090757346,35.814464635301306,11.938154878433693,3.4109013938382304,23.93714121789632,23.196637358247653,23.023584408408,51.1635209075734,85.27253484595565,73.65098966405561,{}
149,98,149,0,4.971633333333336,5.0158465007681485,158.94180011331198,14.62357982895359,28.86836454409488,39.65374834053208,43.14794308916517,47.11959992959834,94.78821917355336,66.2110737247362,60.29456425942749,65.61467287055348,35.46739074083973,6.206793379646911,39.900814583444685,11.5269019907729,2.660054305562994,24.89042756637532,21.93536974343041,22.16711921302482,53.20108611125954,88.66847685209927,75.00745224423581,{}
150,98,150,0,5.005000000000003,3.965374834053201,162.42554814611978,14.62357982895359,29.247159657907204,41.74016161036403,45.212229370940456,46.10760796309163,93.65338972551834,64.55162551984084,58.52119472238553,63.84130333351152,33.694021203797774,6.206793379647024,39.90081458344457,13.300271527814855,0.8866847685209223,24.89042756637532,22.431547480844063,22.16711921302488,51.427716574217584,86.89510731505726,73.24681708056607,{}
151,98,151,0,5.038366666666669,6.420276632838421,168.0347200696548,12.59119839750265,23.757025622404267,43.325433646873584,45.08282058870334,45.64200872990256,87.85011854580006,64.20276632838433,57.87159150590571,62.32325239097531,33.832622726529394,5.341993062083475,35.61328708055737,12.464650478195152,1.1368683772161605e-13,21.66271682343673,18.59068164554209,19.58730789430649,48.07793755875235,81.9105602852818,69.81021871904798,{}
152,98,152,0,5.071733333333336,6.339568615566806,172.85779141498213,10.695199565026808,23.126562367256703,46.5529320668479,47.99170362793678,50.04152543907029,89.60330016722546,66.7220339187604,60.66065922440919,61.53979921316875,33.407319572863,0.0,38.68215950542037,17.582799775191006,3.5165599550382467,19.65816776604764,18.356981893779803,17.58279977519112,42.19871946045856,75.60603903332162,67.39053877331148,{}
153,98,153,0,5.105100000000003,7.18762257833466,171.38062912122453,10.60380336360394,23.71082514105933,45.8578670416607,47.58158884842891,47.96326546231161,89.33222774329681,65.62143582325966,59.27065417509573,62.75716324421899,34.86509069123281,3.486509069123372,36.60834522579421,15.68929081105466,1.7432545345615154,21.207606727207992,18.200111663871663,19.17579988017804,43.5813633640409,76.70319952071202,66.60966223840033,{}
154,98,154,0,5.13846666666667,25.05953818625484,179.45149117986458,9.035344986999007,23.64112104271809,50.40020770659924,53.89257463001002,46.00319695787661,103.59626422179504,79.95524387320168,65.56314672414487,65.56314672414499,37.21151570829841,7.087907753961645,49.6153542777314,26.579654077356054,5.3159308154712335,19.81130444513256,16.336820161710037,16.83378091565885,33.6675618313177,72.65105447810663,57.39126659865919,{}
155,98,155,0,5.171833333333336,26.951682913526856,182.1258959994879,7.34332260679567,22.02996782038693,50.37477749241821,54.16752765558489,46.23789938722837,102.38913623703044,80.36316530513257,65.00713284731546,67.67865885473941,39.18238144221755,8.90508669141309,46.30645079534804,26.715260074239268,7.1240693531303805,19.912379187528387,16.42016852950602,16.02915604454347,37.40136410393495,73.02171086958725,59.73713756258501,{}
156,98,156,0,5.205200000000003,32.255595871698894,180.36702974491865,7.34332260679567,23.761735019751164,47.15493562972567,52.411560838444885,46.23789938722842,109.34054042148944,85.58154328556446,67.67865885473947,69.45967619302206,40.9633987805002,10.686104029695798,51.64950281019583,30.27729475080445,8.905086691413203,21.66701106223396,18.594366909354573,18.700682051967533,39.1823814422176,74.8027282078699,65.00103318670183,{}
157,98,157,0,5.23856666666667,42.71301169785424,179.61194009008128,7.931607151793372,21.937741426122376,48.7003262698653,52.522573143889005,46.55387207051201,118.31129372257575,96.37800257492704,72.71601232515752,70.94245104893412,42.56547062936056,12.414928933563488,58.52752211537063,37.24478680069046,10.641367657340083,19.589624581990304,19.82901787948354,20.39595467656852,33.69766424824371,72.71601232515752,61.23282913453094,{}
158,98,158,0,5.271933333333337,39.5862260684448,180.8452992213975,9.601070082339811,23.786505386985944,50.710150756049,54.54545454545454,48.00535041169925,120.67040955912064,96.88406767028694,74.88070614367024,74.88070614367024,44.5718488950418,13.371554668512545,57.94340356355429,34.76604213813255,11.588680712710923,21.46864536085144,19.93313680243252,20.503050491719307,35.65747911603347,73.09783218786862,64.79955891320922,{}
159,98,159,0,5.305300000000004,41.029903192874606,179.14238857563916,7.910871903634391,21.88039056345204,50.3133940760566,54.11869041378714,47.20079910568632,117.6168683890462,95.75096611205473,73.41037645195172,70.75698935127889,42.45419361076733,10.61354840269189,58.374516214805,38.91634414320333,10.61354840269189,19.538412296853725,18.039563471262387,18.573709704710662,38.91634414320339,74.29483881884278,64.29256657585545,{}
160,98,160,0,5.33866666666667,38.54234128446448,178.41515257203028,7.8026689204592286,24.980729240628264,47.90864132954239,54.78562735350784,45.29582039121853,116.00813344978248,91.02742177289824,69.78919244828705,68.04446263707985,40.12878565776509,10.468378867243018,59.32081358104404,36.63932603535079,10.468378867243018,19.506672301148107,18.215514004236525,17.447298112071735,34.89459622414353,73.27865207070141,61.95633580110307,{}
161,98,161,0,5.372033333333337,40.9356048289648,183.58698055393307,7.952034847483441,25.889949731223314,50.57519169336549,56.1449702292844,45.71555603976941,119.6113985842384,93.83738064610014,72.01422643760179,69.34703286583874,40.89696810036651,10.668774287052088,62.23451667447068,39.11883905252444,10.668774287052088,19.88008711870861,18.13342942526524,18.67035500234124,39.11883905252444,74.68142000936484,64.62710255875481,{}
162,98,162,0,5.405400000000004,39.75998697840479,186.3876743570068,9.13081298660416,25.63891865013173,52.69649377463029,57.99766617995576,43.051341920604486,117.31475298363492,91.67613264853952,69.83729039049194,64.46519112968497,37.60469482564952,9.84884864481296,63.56984125288386,38.50004470245074,8.058148891210635,18.2616259732085,14.766488455740117,15.22094790562005,39.39539457925196,75.20938965129915,68.42254151246703,{}
163,98,163,0,5.438766666666671,42.6368019598862,186.0265065798149,7.917455358729052,25.777367072475723,53.58193119487209,57.340089913595,42.08185246455364,117.71474955572982,92.0095523205389,69.04547672465878,63.73428620737741,37.17833362097008,9.737182615015968,64.6194846269243,39.83392887961088,7.966785775922176,18.05457605868468,14.599066333686894,15.048373132297456,38.94873046006393,74.35666724194022,62.36723871657981,{}
164,98,164,0,5.472133333333337,42.460828736580346,183.2680906131534,7.269406085989548,26.97009015805016,53.36078456309169,58.84601592547728,44.0772487177097,120.3300817210222,93.3605656202409,70.52359794833558,63.4712381535021,38.78797887158464,8.81544974354199,66.9974180509189,38.78797887158464,8.81544974354199,22.98788046841669,19.71194487879292,20.275534410146463,42.31415876900133,74.04977784575237,60.35847734992364,{}
165,98,165,0,5.505500000000004,38.23790078583122,183.92423311780016,7.764941185130743,26.274890445400057,51.09543710205194,56.235546088464986,41.27122851262408,112.75218668682436,86.5015842087283,65.9791580587123,60.77027715934025,36.462166295604106,8.681468165620004,62.50657079246423,36.462166295604106,8.681468165620004,22.83737715706125,19.412352962826777,19.96737678092603,39.93475356185212,69.4517453249602,61.38725010565065,{}
166,98,166,0,5.538866666666671,37.31404867713788,177.115356814843,5.593612385649839,25.326157232757268,50.311426249316256,55.54319087665224,43.75906958195941,111.70431329600866,86.38464641204142,66.33208307543066,65.44765530109169,38.9148220709194,9.72870551772985,57.4878053320399,32.723827650545786,11.497561066407911,23.063054694797337,21.519056506019105,21.22626658413776,45.99024426563193,74.29193304448239,60.78792473359888,{}
167,98,167,0,5.572233333333338,33.722462870964435,171.24338822241327,7.277753028108331,26.711027478898394,48.468382423133576,53.68385804754845,43.27231092132548,110.85143156517336,84.15357509129663,66.19178923246147,67.07434642222768,42.36274510877536,12.35580065672616,54.71854576550152,30.0069444520492,12.35580065672616,23.01427581700957,21.473543219019405,21.18137255438762,45.89297386783994,70.6045751812922,63.935162078117926,{}
168,98,168,0,5.605600000000004,36.74767265397985,171.06301440651117,7.816884629826661,25.026241717229777,49.43831927402902,54.63437587899772,42.52845030510997,111.49683752261494,86.51705872955068,67.294478807578,66.42052453734982,43.69771351141435,13.109314053424328,55.059119024382085,30.588399457990025,11.361405512967735,24.53306544977216,19.54221157456666,20.100948215250583,43.69771351141435,68.16843307780641,63.31194008029578,{}
169,98,169,0,5.638966666666671,46.3076502500458,170.41954306953218,7.338087243938945,27.224902862161624,50.33886319951285,53.86493585544369,45.37483810360271,125.84715799878224,98.6757285862768,74.74939820375471,72.96965062747495,51.612679712116346,17.797475762798854,62.29116516979559,35.59495152559748,16.01772818651898,23.20506935987468,19.65795449947523,20.46709712721855,44.49368940699685,71.18990305119496,53.658725335812406,{}
170,98,170,0,5.672333333333338,51.95491073232202,169.07521195515852,7.382356569762318,27.094946535332163,48.6405792402482,53.98243852103188,47.100292529373576,133.26786480354718,106.18342787387398,79.67655868753252,73.40986306042316,57.29550287642781,18.800086881327843,67.14316743331392,38.49541599509996,17.00960241643952,21.78218362820808,17.9941461736773,18.800086881327843,41.1811426924325,64.45744073598132,62.69252940264952,{}
171,98,171,0,5.705700000000005,37.56158699995396,164.98953340943578,5.649796412371604,27.03650437054608,48.53566444576627,53.86600165840549,50.31174634664234,120.35525137552516,93.33285832915584,74.14483366426987,73.25152241530282,58.95854243182907,16.07960248140796,53.59867493802642,25.01271497107893,14.292979983473742,19.975046777556887,16.47184554810419,16.07960248140796,41.092317452486895,62.53178742769745,66.20153617191363,{}
172,98,172,0,5.739066666666671,16.77480556896792,157.99277140962604,9.445767311724223,24.1532195801262,46.45964549496068,50.153651312206414,56.06583644329042,106.38389686444256,82.26290164220552,73.17246145430329,79.65609727936817,66.68882562923841,17.598440096604577,32.418179125324286,6.48363582506488,12.041037960834728,22.306661143418424,18.61706674701292,19.450907475194526,48.16415184333886,66.68882562923847,63.01112715046538,{}
173,98,173,0,5.772433333333338,16.77480556896792,157.99277140962604,9.445767311724223,24.1532195801262,46.45964549496068,50.153651312206414,56.06583644329042,106.38389686444256,82.26290164220552,73.17246145430329,79.65609727936817,66.68882562923841,17.598440096604577,32.418179125324286,6.48363582506488,12.041037960834728,22.306661143418424,18.61706674701292,19.450907475194526,48.16415184333886,66.68882562923847,63.01112715046538,{}
174,98,174,0,5.805800000000005,16.60255942544734,160.66094846600623,11.221047375573407,24.05232118642129,44.42695323812069,49.84182821403676,55.61788573933791,107.39110680255509,83.34010365901429,74.71151741451297,81.16806830218684,73.78915300198798,22.13674590059645,29.5156612007952,5.534186475149113,14.757830600397597,22.44209475114676,20.375695851485627,20.29201707554671,46.11822062624248,60.87605122664007,68.25496652683887,{}
175,98,175,0,5.839166666666672,38.30987084671128,158.70015310727587,7.513183808099982,25.576002532310035,45.59179800131077,51.15200506461997,56.51803957654637,127.6070838209294,102.06029340855544,82.9107702564229,81.99966289096767,74.71080396732611,21.866576770924667,49.19979773458067,21.86657677092478,16.399932578193443,21.94237102512606,20.12701955374204,20.95546940546956,51.02201246549106,61.95530085095339,61.98209233365473,{}
176,98,176,0,5.8725333333333385,37.48170285326546,160.64578485951918,5.354528979037923,25.051465194917075,48.2238021322004,50.102930389834384,55.330132783391946,123.16709948367505,98.16636461569531,79.4255131890626,74.96340570653092,73.17856271351832,18.74085142663273,49.08318230784755,24.095380405670653,15.171165440607524,19.71423521682164,19.63327292313903,19.63327292313909,51.76044679736657,55.33013278339189,57.2264197375487,{}
177,98,177,0,5.905900000000005,32.04902813874294,160.03792068310466,7.329893163004496,24.88864307634401,44.44400549347142,48.03243613628966,53.33280659216575,117.38603366305016,92.5118815514156,76.44368944877078,67.55488835007657,71.1104087895543,15.99984197764968,47.99952593294916,21.33312263686628,10.666561318433082,21.407067824400016,21.33312263686628,21.33312263686628,56.88832703164337,53.332806592165696,62.323111196656754,{}
178,98,178,0,5.939266666666672,32.0480785988671,161.81045271426828,7.110830194973232,24.88790568240632,46.22039626732612,49.77581136481274,53.36084669588666,117.3825557816196,92.5091406345884,76.44142459596242,67.55288685224582,71.10830194973244,15.99936793868983,47.998103816069374,21.332490584919697,10.666245292459848,23.11019813366306,21.332490584919697,21.332490584919697,55.10893401104266,51.55351891355599,62.44790833176032,{}
179,98,179,0,5.972633333333339,30.26699224152393,163.7564946377139,7.109355931247023,24.946141392708327,46.24498051788648,51.57346517319132,51.57346517319144,113.87459547489334,88.93801428520358,73.75956778668774,62.20686439841131,71.09355931247012,15.107381353899882,47.09948304451143,18.662059319523337,7.998025422652859,19.63135071507619,19.55072881092923,19.55072881092923,58.652186432787744,49.76549151872899,60.84628570185485,{}
180,98,180,0,6.006000000000006,27.016943202816773,164.17051505592062,7.188561316913365,27.01694320281666,44.96443667166124,50.44813306749778,54.03388640563344,115.2414046617158,88.22476525717194,74.58132366297718,59.305630864536056,73.68275349836301,12.579982304598502,48.522788889165895,17.97140329228364,5.391420987685137,21.56568395074038,21.64043524576528,21.56568395074044,61.1027711937644,48.52278888916584,56.17321386204857,{}
181,98,181,0,6.039366666666672,20.329267886260105,166.66666666666669,11.1954791495288,27.66916434998644,47.995031359822576,53.66007635139873,59.35516178355767,118.4961092748582,90.85934214047856,80.06285640426381,62.577864775746434,80.98311912155418,12.883678042065412,46.01313586451943,11.043152607484672,1.8405254345807407,20.5776999301998,22.162861095177178,22.08630521496923,68.09944107948871,47.85366129910017,68.49623651956495,{}
182,98,182,0,6.072733333333339,16.43279148738892,165.94321504514738,11.038378467937024,27.46136746714416,47.32154056599944,52.90709075279442,58.32497739832576,113.22611869093568,85.77209201132383,77.12467526893965,61.69974021515168,78.03202438975075,11.795538570543613,42.64540867811968,9.98084032892166,2.722047362433159,18.23749161816902,20.04399721597117,19.961680657843203,67.14383494001805,45.36745604055278,58.52225983736646,{}
183,98,183,0,6.106100000000006,21.91630770934158,159.35977386202254,10.958153854670847,29.04846618022949,45.36084755460608,50.57077862872604,59.8849471616342,121.78523310331342,92.73837220650992,81.067922839988,63.05282887554631,79.26641344354391,11.70981107688715,49.54150840221496,15.312829869775555,0.9007546982220448,21.91630770934164,23.69515659892261,23.4196221537743,68.4573570648788,41.4347161182161,62.19774785093263,{}
184,98,184,0,6.139466666666673,20.2469164891342,162.3483087372765,11.150127622134011,29.55736061314271,45.973153925175865,49.79745606780653,61.181704435567895,122.1022566758153,92.54733002824392,81.57160117849298,64.15743912915184,82.48813602319512,12.831487825830322,47.65981192451272,14.66455751523472,1.8330696894043967,20.49434216501265,22.30025524426817,21.996836272851965,71.48971788676909,38.49446347749108,57.879737842826,{}
185,98,185,0,6.172833333333339,18.513604821416127,155.59648494862537,12.836875284094775,29.55270622827708,43.90886920196234,45.710813319314816,58.79793364486823,119.67933867131572,90.13278313703994,79.87796575113919,63.53929093840623,83.508782376191,15.43097065646998,44.47750365688432,9.98474571889244,0.9077041562628664,22.085395321248804,23.877968297691112,23.60030806283657,70.80092418850978,36.30816625051784,57.6945787279878,{}
186,98,186,0,6.206200000000006,7.349079875797219,150.03011227607442,11.272973929958669,21.683998305996354,39.85598155006458,43.3679966119926,66.81079954278835,106.9745236369797,85.29552529389467,80.20861565032965,64.16689252026379,89.12068405592186,10.694482086710536,28.518618897895067,3.564827362236884,1.1368683772161605e-13,23.443991678048448,23.443991678048448,24.06258469509885,71.2965472447375,35.64827362236872,54.90875709370623,{}
187,98,187,0,6.239566666666673,7.392732547894869,149.1535454629681,9.655605934062716,22.17819764368461,39.81108314548124,41.85803002303899,68.97812607101154,107.95295616257292,85.80217070528904,80.6850454153556,64.54803633228448,89.65005046150623,8.965005046150623,28.688016147681992,1.7930010092301245,0.0,23.58324623762264,25.35686344601889,24.20551362460668,69.92703935997486,34.067019175372366,58.73275798304182,{}
188,98,188,0,6.27293333333334,7.267923621428604,148.67666966349327,12.832871004358912,21.80377086428576,39.41584996468824,41.15135549405769,64.067429958875,105.79319865508008,84.0399164235833,79.32286792077815,63.45829433662249,89.89925031021522,13.220477986796368,27.322321172712464,0.8813651991197275,0.8813651991197275,21.444540834857925,23.51775680893524,22.915495177113712,66.98375513310151,28.20368637183219,57.39034382446492,{}
189,98,189,0,6.306300000000007,13.269366154964676,150.1478683967465,13.269366154964784,25.776695497518425,40.75653416238268,44.34790379583333,68.32040080511672,120.47675619060162,94.72716403214534,86.57766186866104,69.2621294949289,96.60244376924288,15.492844755444708,35.542408556608166,4.556719045718978,0.9113438091438866,22.173951897916663,20.37826708119134,20.04956380116363,71.0848171132165,29.16300189260164,65.05743812982705,{}
190,98,190,0,6.339666666666673,16.448890546141502,144.89969501499365,11.283845823309113,29.0435757911778,37.84716946281929,43.40982162080724,64.62403416149503,121.13722218635012,92.10341952712972,82.96216954521537,69.58117445727737,94.55903195476162,17.841326783917225,37.46678624622632,5.35239803517527,5.352398035175156,21.704910810403625,23.80329884093241,21.40959214070073,71.36530713566913,30.330255532659407,62.31707539036462,{}
191,98,191,0,6.37303333333334,13.589712732251373,139.9829126186141,11.2856421492431,27.296326758677782,37.8531945231663,40.25827580413499,62.861128078582055,114.43941640651276,87.14459810410472,79.40654325948299,73.161084800872,99.9273353377763,24.08962548321392,25.874042185674284,6.245458458610983,13.38312526845209,19.95038523443618,22.07201563308042,20.52079207829331,69.5922513959514,28.550667239364657,53.68099650767886,{}
192,98,192,0,6.406400000000007,12.911720986278622,131.82941929959165,11.216986405481622,27.13027066804618,34.11513230506411,37.91440962796588,62.47871496953263,113.42475552595542,86.30521660959448,78.92347679193927,72.71601232515752,97.5458701922845,23.05629659090357,26.603419143350266,3.5471225524466945,10.641367657340195,19.829017879483505,23.6622587445152,21.28273531468028,65.62176722026408,24.82985786712697,38.735162958835865,{}
193,98,193,0,6.4397666666666735,10.810810810810812,132.8216875925174,11.24054583589268,25.446867926723748,35.94339199064306,37.701936889887335,62.60994120840677,109.86160110588244,84.45383472870252,78.20059936687267,72.86874031913135,101.30532190708504,24.882008889459485,21.32743619096528,7.109145396988424,14.218290793976848,19.870665461994808,21.98381803474265,21.32743619096528,65.75959492214292,23.10472254021238,39.34191042562438,{}
194,98,194,0,6.47313333333334,11.174884732313169,129.59975910847837,9.515071485062736,27.429732844168264,36.03792040777423,39.50918386598359,62.06841229545064,109.51957170006582,82.21328597157454,75.97688993949441,72.44308110509928,97.17974294586496,22.96975742356807,22.96975742356813,7.067617668790149,12.368330920382846,23.239999160404647,23.23999916040472,22.086305214969343,67.14236785350667,26.503566257963143,41.36217194844443,{}
195,98,195,0,6.506500000000007,12.955603819268338,125.2936853191566,11.255109374650692,27.222477829117693,35.98996116886571,39.513289254511626,62.51400223182464,113.51769627979183,86.32382738765995,79.19171258751658,78.3019180640614,103.21616472080814,28.4734247505678,21.3550685629258,8.89794523455248,16.016301422194374,19.89641040452957,20.290436980629327,20.46527403947061,65.844794735688,24.9142466567468,50.11368256749677,{}
196,98,196,0,6.539866666666674,19.653990872877465,118.25105805770882,16.207096066759775,26.890796878053106,32.07878126836776,33.81400445679564,58.25013196481549,120.8232985333524,93.97814226581094,83.50055327973735,82.62160008731905,105.47438309019446,36.03708088914976,25.48964258013029,4.394765962091469,20.215923425620645,26.601950726355888,25.16938906408109,23.731736195293703,73.83206816313611,33.40022131189488,28.39984679357696,{}
197,98,197,0,6.573233333333341,21.590591232514583,120.61180747102908,14.78546509578974,27.834860897858984,30.691233559379327,34.2552361832697,61.3824671187586,125.27932984513998,97.63215666793504,86.06404844304592,87.85704945227604,111.16606257226766,38.54952169844773,24.205513624606624,4.482502523075368,22.412512615376613,27.13302876152893,27.13302876152893,26.895015138451868,71.72004036920495,32.27401816614224,28.96681780218804,{}
198,98,198,0,6.606600000000007,10.755742944696168,116.23359903942942,12.8729323540439,27.45036184296724,32.60461007836801,34.01264563252626,62.29102009136486,113.08401155130709,85.77298333643107,79.57049615211537,79.57049615211537,106.09399486948718,30.94408183693372,18.56644910216039,11.493516110861036,16.798215854335353,26.758224520421308,25.317247240491263,24.75526546954705,72.49756316081624,28.29173196519656,35.803994409455704,{}
199,98,199,0,6.639966666666674,9.027111195327644,114.65059982039904,12.888431062001434,27.483411433365987,30.56118924310677,34.053596058351715,66.09878933103391,115.2776319118192,87.89629719018517,82.32184039769919,84.97738363633465,111.53281602268925,32.751699943170706,15.048078352267568,16.81844051135795,18.588802670448217,25.347728611050574,25.34772861105052,24.78507022726427,74.35521068179278,31.86651886362546,52.06791315967182,{}
200,98,200,0,6.673333333333341,9.314151603165646,117.50378918914544,15.062986431212604,27.942454809496915,33.33333333333333,35.46723264166413,68.20057173258384,120.4207948591154,92.49444247388716,86.76613218893857,89.5061153106945,113.25263569924611,33.7931251683234,17.353226437787725,15.526571023283736,15.526571023283736,22.22222222222221,24.37062290122936,22.83319268129964,69.41290575115084,31.05314204656748,63.40889018127256,{}
201,98,201,0,6.706700000000008,10.612777121105378,110.52556954815304,14.38741059954225,30.11870631362304,30.11870631362315,33.560548002417285,64.76685227221179,119.67625640414728,89.59489123226464,83.74703093794437,85.49176074915158,108.17324829484494,32.27750150733283,21.80912264008964,13.08547358405383,16.574933206468245,21.225554242210624,21.5811158993135,21.80912264008976,73.27865207070138,34.89459622414347,59.67894162528844,{}
202,98,202,0,6.740066666666674,9.567486204156154,111.1925349932826,14.650528852566788,30.66951991095329,30.66951991095329,34.496062086379496,67.8852268499003,122.38183312691008,91.71649560030208,86.16692292997561,87.0552417230682,111.92816792965904,31.97947655133112,21.319651034220783,12.43646310329541,15.98973827566556,23.36801901076916,21.97579327885025,21.319651034220783,69.28886586121752,31.97947655133117,61.672615809107846,{}
203,98,203,0,6.773433333333341,14.485719366802904,111.2807876200838,12.421401880890798,28.59621462429876,30.324506576894407,32.39105320715662,67.32812325686928,122.7395420327093,94.15717588421924,86.07592351784751,87.83257501821174,110.66904452294682,32.49805275673839,21.958143754552907,9.661583252003313,18.44484075382445,21.37058785041548,23.436654195603083,22.83646950473502,70.2660600145694,31.61972700655621,59.648601335428665,{}
204,98,204,0,6.806800000000008,7.408229394058277,112.06364948674748,14.81645878811661,29.24912631181036,29.249126311810468,34.88675988413909,68.86536583076146,120.22187809949445,90.98063662889754,86.24445823202188,89.83797732502273,113.1958514295286,33.24005161025843,17.06921569175438,15.27245614525384,17.069215691754266,27.18990575118599,27.48513596651984,26.95139319750683,75.46390095301908,37.73195047650955,59.26583515246606,{}
205,98,205,0,6.840166666666675,12.297741711712076,113.24611014263206,16.034293469110974,30.022613630388573,30.022613630388552,31.73675227626768,66.29383947324251,124.46869960655164,94.4927616239436,87.8277472320865,90.43649219937618,111.30645193769384,34.78326623052931,22.60912304984401,10.434979869158838,17.391633115264653,24.595483423424323,22.87512188338305,23.47870470560736,73.04485908411155,40.0007561651087,51.88422912120923,{}
206,98,206,0,6.8735333333333415,17.63271757137344,115.38560202906729,14.145400323622178,30.28772800327601,31.77572631948292,35.265435142746966,68.62846415331241,130.59105993361558,100.39172161189738,91.2350906895262,89.48056971472755,107.0257794627134,29.82685657157583,31.58137754637437,1.754520974798652,15.790688773187185,22.87615471777077,23.40822943922614,23.686033159780777,70.18083899194318,40.35398242036735,62.304025520998856,{}
207,98,207,0,6.906900000000008,19.92177284233318,116.5682579041707,14.541350636526689,29.082701273053605,32.51544850793372,36.25256592448738,70.54947460434137,134.0646286625429,104.99868326466265,94.69070975543627,95.59252603882146,111.82521913975336,33.36720248524898,29.75993735170857,2.705448850155335,18.938141951087346,25.50721637464237,23.72308254449964,24.34903965139796,64.93077240372776,41.48354903571493,54.58782684168095,{}
208,98,208,0,6.940266666666675,29.749748515456872,130.63239574329108,7.666334716549503,29.807796860440583,35.376723030990405,41.074589065469006,74.74531808499191,141.75099596613,111.9482532638,96.68668267523503,92.96796411080275,104.12411980409912,24.1716706688087,42.76526349096935,11.15615569329634,16.734233539944398,24.1716706688087,22.38965065276,22.312311386592683,72.51501200642619,46.48398205540138,67.57946121581273,{}
209,98,209,0,6.973633333333342,26.59963897623644,128.4243232309796,10.546521720532382,26.424831130951777,35.15507240177442,40.46652725569077,66.88708693296418,130.37034761375594,103.9455298120403,90.52431143456931,89.64543462452502,94.9186954847912,25.48742749128656,37.79170283190763,9.66764491048798,16.698659390842863,24.67124772726744,24.60855068124215,24.60855068124215,56.248115842839184,52.73260860266174,45.83660651134427,{}
210,98,210,0,7.0070000000000086,21.11565508403029,124.552125583599,8.767798544396783,28.111700672842733,35.11500580513457,36.86648166629743,66.658338098203,124.61383087625404,96.50952873028017,85.92442573508879,87.67798544396817,91.18510486172693,22.796276215431703,35.071194177587245,5.260679126638024,17.53559708879368,22.863621343585585,22.863621343585585,22.796276215431703,54.360350975260246,52.60679126638087,42.12194966467155,{}
211,98,211,0,7.040366666666675,21.033152435904885,117.0424862809594,8.906499384386965,27.947331790025373,33.18745650065512,34.93416473753166,66.37491300131029,124.06547811046114,96.13244870799836,85.58870360695272,90.82882831758246,92.575536554459,25.3272694347105,32.31410238221679,2.620062355314872,18.34043648720421,24.51621838620683,24.516218386206777,24.453915316272173,52.40124710629755,48.9078306325444,24.453915316272287,{}
212,98,212,0,7.073733333333342,19.46902654867256,118.597278355759,10.6194690265487,28.37383989713517,33.628318584070826,37.16814159292039,65.58232677397848,124.00753313701496,95.64075105208003,85.84070796460179,90.26548672566372,92.03539823008856,25.66371681415933,32.74336283185835,2.6548672566370897,16.81415929203547,23.00884955752213,23.07682267328372,23.00884955752213,49.55752212389382,47.78761061946904,24.84189176569588,{}
213,98,213,0,7.107100000000009,21.14024683107266,123.36843016757832,10.570123415536273,30.00045259644888,37.037353137179615,38.75711919029982,66.96729104848733,128.6031682223583,98.67021330825858,88.08436179613574,96.89279797574936,93.369423503904,28.186995774763545,33.47205748253157,1.7616872359226363,21.14024683107266,24.663621302918045,24.726458656487093,24.663621302918045,49.327242605836034,59.89736602137236,47.85826924266286,{}
214,98,214,0,7.140466666666676,16.140901348790635,123.79888300590966,10.76060089919372,30.488369214382374,32.33158191403916,37.70477976500258,68.17406608647086,125.55315340957613,95.06889228781536,86.98152393514971,93.25854112634607,89.67167415994817,23.31463528158656,34.075236180780166,3.586866966397793,16.14090134879075,23.314635281586504,21.52120179838749,21.52120179838749,48.42270404637196,53.80300449596882,50.24815292174867,{}
215,98,215,0,7.173833333333342,10.90357293473528,119.95306862959718,11.05397414896359,30.89345664841641,32.710718804205726,34.52798095999492,72.69048623156817,125.40425662439294,94.51510416037286,89.04584563367104,94.49763210103872,92.68036994524942,20.89851479157585,31.80208772631113,0.9086310778945972,11.812204012629763,27.319440585180008,25.441670181048835,25.441670181048835,50.88334036209778,54.51786467367617,43.65213494930472,{}
216,98,216,0,7.207200000000009,17.850740279970978,116.15332812498175,10.710444167982589,30.34625847595055,34.103791419457615,37.486554587939054,71.49215910734102,130.35930100762656,100.0278778953623,91.03877542785192,98.17907153984032,92.82384945584904,24.09849937796082,34.80894354594329,2.6776110419956467,16.95820326597243,23.20596236396227,23.20596236396227,22.313425349963723,42.84177667193029,49.98207278391868,50.26814103729934,{}
217,98,217,0,7.240566666666676,16.058472061245425,114.20751789737145,12.489922714301995,32.11694412249085,32.16646912357016,33.948140920558785,71.39328688846392,132.04838119651515,99.93531146847708,91.89014568379316,99.9193817144158,98.13510704094408,27.656257438811625,33.00908145922665,0.8921373367359138,18.73488407145305,24.979845428604,25.04348845004107,24.979845428604,46.3911415102645,55.312514877623016,51.86687298538191,{}
218,98,218,0,7.273933333333343,21.78916547657376,115.82160475853424,12.666441918302326,30.76135894444837,32.621075581518106,36.23504310683624,70.5933712017423,135.76012223288336,105.01289648003836,94.09356853595988,101.33153534641838,99.52204364380373,29.856613093141164,35.28508820098489,2.714237553921862,20.809154580068025,27.142375539219188,23.523392133989944,24.42813798529727,43.4278008627507,52.47525937582378,52.59990387298536,{}
219,98,219,0,7.3073000000000095,21.94897684556485,116.78494484479106,9.113816572192832,29.164213031017084,32.86033296621466,34.63250297433274,73.11530589175625,133.26132712447037,104.15302116603203,92.96092903636696,100.2519822941212,94.78369235080544,24.60730474492061,35.54388463155203,4.556908286096473,19.13901480160496,25.58370226904671,23.69592308770132,24.60730474492061,43.746319546525626,54.68289943315699,47.426886362204925,{}
220,98,220,0,7.340666666666676,17.996129466598976,125.66708447674998,7.162727239639821,28.706813224320253,35.992258933197725,37.64692914700169,73.61423009132649,127.45327948090976,98.74761884797742,89.53409049549867,96.6968177351386,87.74340868558869,18.802159004054715,34.918295293244455,4.476704524774959,17.01147719414473,23.278863528829618,21.48818171891964,22.383522623874622,44.767045247749365,59.09249972702915,48.87610153781831,{}
221,98,221,0,7.374033333333343,25.65341471179466,140.25170175708504,11.033950878059674,27.269953898092886,36.46035280243663,38.13654267090114,72.76259950612992,136.63905504089178,109.38105840730988,96.1404285674938,99.76836926815396,87.07057681584342,20.860659028795794,42.62830323275671,13.604777627475642,13.604777627475528,25.39558490462099,25.39558490462105,25.39558490462105,41.721318057591645,54.41911050990217,50.82355181432268,{}
222,98,222,0,7.40740000000001,27.429494842676963,139.09976385355048,9.303583587430069,23.71957712932385,38.48961751508346,40.18226922920907,75.1630701217751,135.46222176119556,111.83665974813069,97.61518280144804,100.35205708560072,89.40455994898974,20.07041141712012,40.14082283424034,14.596662848814615,14.596662848814615,27.36874284152748,23.789649887981145,24.63186855737473,43.789988546443965,52.91290282695314,49.398706510457,{}
223,98,223,0,7.440766666666676,16.471188356691872,143.63694005368606,12.505858508620804,35.909235013421515,36.130762315199895,41.43874638751032,73.59636962442856,138.30491356881507,102.39603914221188,93.79393881465586,101.83341928448344,87.54100956034546,21.438614586206995,42.8772291724141,5.359653646551806,12.505858508620804,25.01171701724155,25.01171701724155,25.01171701724155,39.30412674137966,53.59653646551766,41.24573766997116,{}
224,98,224,0,7.474133333333343,32.57621269253504,151.7761970569969,10.792322644126216,28.83568227913444,39.73503327277991,45.11167915005341,72.75373932693357,144.80537436542022,116.01398247965994,98.92962423782416,100.72834467851186,86.33858115301024,21.584645288252545,50.364172339256015,21.584645288252545,14.389763525501737,23.45244524643705,23.45244524643705,23.383365728940305,39.571849695129686,50.36417233925596,34.36450576784048,{}
225,98,225,0,7.50750000000001,27.696151222378795,146.28767840671844,13.027173714399876,29.706526655312423,37.03018525851602,42.53327330622125,72.43858311798253,142.82440985075033,113.11908338507853,98.5641507426759,101.32763160462014,86.5890670075845,22.107846895553507,47.90033494036584,18.423205746294457,12.896244022406222,27.69615122237891,24.020921442557405,24.87132775749768,42.37337321647749,57.11193781351318,38.86379509733765,{}
226,98,226,0,7.540866666666677,23.861999450875828,129.1285296821456,11.1651443198295,31.258092931729703,37.12146720007545,38.93764990242448,71.96153403563501,138.1052080677664,106.85608624439868,94.5302285938539,102.79015148069556,89.94138254560863,24.77976866052484,41.29961443420802,10.095461306139782,19.27315340263044,25.76300941034914,23.86199945087577,23.86199945087577,40.38184522455896,53.23061415964588,38.72072537388962,{}
227,98,227,0,7.574233333333344,21.95170411838899,130.70279279631978,11.127250273960684,31.152004235211912,36.76864934357601,38.58930880627905,71.71729951493238,135.8130801138486,104.6709899935812,93.29474250315305,102.44128588581516,87.80681647355578,23.781012794921367,40.244790883712994,9.146543382662005,16.46377808879174,23.85126704781636,22.0277934422704,21.95170411838893,36.58617353064824,51.220642942907546,34.94889319311015,{}
228,98,228,0,7.60760000000001,27.10247166990939,119.46968447719188,12.776227669806122,30.71613455923068,32.72310922219839,36.18177148282239,67.07215323853151,137.50925104751403,106.84776845279536,93.05181940002224,102.98939234565574,95.76206656701316,32.52296600389127,37.94346033787315,5.420494333981878,23.48880878058821,25.295640225248743,25.36008782072017,25.295640225248803,43.36395467185503,54.20494333981878,32.72310922219838,{}
229,98,229,0,7.640966666666677,27.2095862051998,119.79931759907991,10.859728506787292,30.98143487533705,32.62942330736641,36.19909502262442,67.35853055539695,136.3365761829248,105.36672997522447,91.40271493212664,99.54751131221724,90.4977375565611,28.05429864253392,40.723981900452486,8.144796380090497,20.81447963800906,25.40392551605101,23.529411764705912,24.43438914027149,45.24886877828055,59.72850678733028,49.16951206228461,{}
230,98,230,0,7.674333333333344,27.26126531636288,119.80747462763918,10.880354366823212,27.26126531636288,34.454455494940134,36.26784788941063,69.00428669087549,134.38693661948355,107.12837157993808,93.3897083152325,99.7365816958794,94.2964045124678,28.107582114293336,37.17454408664594,6.346873380646798,19.04062014194062,23.57410112811692,23.57410112811698,24.480797325352228,45.33480986176335,58.02855662305706,40.05914732549739,{}
231,98,231,0,7.707700000000011,23.25969915757613,117.79392068024684,8.919687452491758,32.110874828970395,35.723320407994386,39.24662479096378,69.66498603501249,133.9023052565241,101.82517673089563,90.08884327016688,96.3326244869112,92.76474950591444,24.97512486697701,39.24662479096378,5.351812471495009,19.62331239548189,25.03875586148593,23.19118737647864,24.083156121727768,44.5984372624589,55.30206220544903,53.63692203030516,{}
232,98,232,0,7.741066666666677,21.75713172881685,122.98404983979404,10.840988667963757,32.57311709922281,34.51946628116164,37.94346033787315,68.8732294165094,134.01038736474368,101.4403512828806,90.34157223303134,97.5688980116738,92.14840367769192,26.19905594757904,38.8468760602035,6.323910056312229,18.97173016893657,23.4888087805881,23.4888087805881,23.4888087805881,41.55712322719438,52.3981118951582,45.31510209479459,{}
233,98,233,0,7.774433333333344,23.078311930332006,122.49257870714666,10.798453159412158,31.95458574969041,33.77652543626993,37.280350041305496,65.89998193340041,131.5606319753635,99.6675519434388,87.87511081164865,95.8637572490714,95.8637572490714,30.179330985818865,35.505095277433725,0.0,21.30305716646035,26.68793101240156,24.853566694203664,25.741194076139493,46.15662386066396,53.25764291615076,44.41686000138196,{}
234,98,234,0,7.807800000000011,17.84513224183697,122.5203346894176,10.653942146905932,31.961826440717573,35.51314048968629,39.0644545386549,67.568357932789,127.9582362008882,96.03333674124008,87.00719419973126,94.10982229766849,94.10982229766849,26.634855367264663,33.73748346520199,0.0,17.756570244843033,24.85919834278036,24.85919834278036,24.85919834278036,46.16708263659211,51.49405371004502,39.4259841883502,{}
235,98,235,0,7.841166666666678,15.928579831310913,122.170401043588,10.619053220873866,31.85715966262171,33.62700186610073,37.16668627305864,65.50807394928526,123.90159532863336,92.0488107213098,84.0675046652517,88.49211017394919,92.03179458090722,24.777790848705763,33.62700186610073,0.0,15.9285798313108,24.77779084870582,24.77779084870582,24.77779084870582,49.55558169741158,54.86510830784852,47.81850311759254,{}
236,98,236,0,7.874533333333344,17.692880888118452,122.08087812801703,10.615728532871003,30.077897509801343,35.38576177623679,38.96452829802452,65.55922672273776,123.90070699274077,93.83901054373833,84.92582826296837,92.0029806182157,92.0029806182157,26.539321332177565,31.84718559861324,0.0,17.69288088811834,23.06869432815713,23.00074515455396,23.00074515455401,47.770778397919685,51.30935457554341,42.49975831553652,{}
237,98,237,0,7.907900000000011,17.62114537444927,125.12254080054085,8.810572687224749,30.00772927916555,35.28631611365775,38.7665198237886,66.96035242290742,123.36060351145122,93.39207048458144,84.5814977973568,89.86784140969161,88.10572687224663,22.026431718061644,34.36123348017634,2.643171806167516,16.74008810572684,24.73245611915104,22.97516266150712,22.90748898678413,49.33920704845815,52.86343612334804,47.60971307878872,{}
238,98,238,0,7.941266666666678,15.652025973988655,123.47709379479907,10.578617457536923,31.3040519479772,34.825730652382475,38.2605079364165,66.08633189017411,123.48934046914552,92.18944712270982,84.3470288598275,88.69481385260207,88.69481385260207,22.60848196242796,34.782279942196965,1.7391139971098255,15.652025973988543,22.675272305760217,20.86936796531819,20.86936796531819,52.17341991329539,52.17341991329539,52.20239709959673,{}
239,98,239,0,7.974633333333345,19.195680347459074,118.71552003784092,8.725309248845065,31.45954989099097,33.20206606742967,34.901236995380145,68.0797810527345,127.43731597854712,95.99426462505556,86.38056156356589,88.99815433821942,92.48827803775742,22.68580404699719,36.64629884514909,3.490123699538003,15.705556647921073,22.752822816483025,24.493110241969884,24.430865896766136,52.35185549307028,45.37160809399421,48.892883681805785,{}
240,98,240,0,8.008000000000012,14.033872928304504,122.90910858019028,10.670589550407184,31.62490527271749,35.08468232076143,38.59315055283753,70.16936464152286,126.35357568397993,94.74488378220872,87.71170580190358,89.46593991794157,94.72864226605576,21.927926450475866,34.207565262742264,0.8771170580189391,13.156755870285563,23.07334736790122,22.87241453712786,22.80504350849492,52.62702348114209,45.61008701698984,40.38550218769221,{}
241,98,241,0,8.041366666666677,14.033872928304504,122.90910858019028,10.670589550407184,31.62490527271749,35.08468232076143,38.59315055283753,70.16936464152286,126.35357568397993,94.74488378220872,87.71170580190358,89.46593991794157,94.72864226605576,21.927926450475866,34.207565262742264,0.8771170580189391,13.156755870285563,23.07334736790122,22.87241453712786,22.80504350849492,52.62702348114209,45.61008701698984,40.38550218769221,{}
242,98,242,0,8.074733333333343,15.828955242516711,121.67352461631415,12.436401767868842,31.852730234517484,35.219397968072144,36.97608073008231,70.43879593614433,130.44593924029314,98.63250576667626,90.57679944329033,89.69741304092832,98.49127706454868,23.74343286377507,36.054842496843776,0.8793864023621154,13.190796035430594,24.87280353573767,24.685552665303923,24.622819266137185,56.280729751170725,42.210547313378015,47.51942443259424,{}
243,98,243,0,8.10810000000001,19.32260751669628,125.02752671667508,8.956941161920808,30.068160344192915,36.93041449304207,40.43998465836992,68.70981239870889,126.91363959337134,96.8682061694048,86.95173382513315,82.56023211679303,91.34323553347316,18.444307175028257,39.52351537506047,7.904703075012094,9.66130375834814,26.582191877260936,26.40749869104281,25.470709908372328,63.23762460009681,45.671617766736574,51.06242098440519,{}
244,98,244,0,8.141466666666675,17.809545896037427,126.13184600214672,9.036054323027784,28.40918146295868,37.25660641266262,40.79717523979762,65.7834684371505,120.97207150918128,92.5750439709169,83.28945438435176,77.97310623215913,86.83368648581359,16.835102481943522,38.10049509071405,6.202406177558032,7.974522228289061,23.308547497123044,23.10556644044606,23.923566684866955,62.02406177558112,47.84713336973402,44.302901268272194,{}
245,98,245,0,8.174833333333341,10.684263669801071,121.81934871586704,7.242161340856926,26.58039780068348,35.304853822559856,37.05303106972369,62.10102116653738,106.56795792717536,79.99228655448232,73.77224935158608,72.01576722416735,84.31114211609838,16.686580210477814,27.22547297499011,0.8782410637093108,7.904169573384252,23.102915341182747,22.90172501952714,22.83426765644333,66.74632084191126,49.18149956772408,66.83870333711691,{}
246,98,246,0,8.208200000000007,10.632112576277496,121.62730867288232,8.912619755763535,26.450655887301394,33.39374577697711,37.07873945552176,59.83874964869182,105.80262354920583,79.35196766190445,73.41215869917608,69.916341618263,85.6475184823721,18.35303967479399,27.09258237707684,2.621862810684888,9.613496972511143,21.26422515255497,21.264225152554992,21.84885675570717,68.16843307780636,43.69771351141435,57.78681858798352,{}
247,98,247,0,8.241566666666673,7.144867723914664,127.25795570520091,8.836014221882197,28.209323364847407,34.83055661177574,38.476290218456455,57.83787490937495,101.99025412503327,73.78509389489204,69.31539836886259,65.84962845041946,79.71270812419198,15.595964632994082,27.726159347545035,3.465769918443129,6.931539836886259,21.081455398540584,20.8666981306331,20.794619510658777,79.71270812419198,60.650973572754765,69.66111322355148,{}
248,98,248,0,8.274933333333339,10.725082597720862,134.7429983028905,7.269829813939771,26.681947460579565,37.402965819524645,40.896950074491016,58.84944601335644,103.48904913051906,76.81532768456516,70.52770871326538,67.00132327760207,81.10686502025521,15.868734460484688,28.21108348530629,1.7631927178315436,7.052770871326516,21.45016519544193,24.9353105463498,24.68469804964297,79.34367230242361,59.94855240627561,61.93802647247247,{}
249,98,249,0,8.308300000000004,10.867600386222067,132.98041406045766,9.11002298039046,27.036504370545966,39.46778098222456,43.02756757094593,59.631453314831205,106.63008516522964,79.59999749370286,73.2515224153027,67.89165492150005,82.18463490497379,16.07960248140796,30.37258246488159,0.0,7.146489991736871,21.73520077244408,23.49935002019356,23.22609247314472,69.67827741943432,44.66556244835533,56.10108439970608,{}
250,98,250,0,8.34166666666667,8.753342979279523,123.15801149507848,8.92669333210323,29.966619362670883,35.18800328430816,36.930394487056894,62.16722538044243,109.67907316405196,79.72753140815455,74.40341532387538,70.02674383423562,82.28142400522688,14.880683064774985,32.387369023334145,0.8753342979280205,6.127340085495575,25.06575969656191,24.571804673358084,24.50936034198253,77.02941821765927,59.52273225910034,61.49807490584406,{}
251,98,251,0,8.375033333333336,8.70652153751439,124.23202533509584,9.377210675276192,28.34638042505491,34.999783417851944,38.46666943430503,63.28868661336237,109.3561287107308,81.02212411881887,75.74673737637522,71.39347660761803,83.5826067601381,14.801086613774489,30.47282538130025,0.8706521537515073,6.094565076260096,24.93168349153852,24.440370623041563,24.378260305040328,78.35869383762952,60.945650762600735,64.80366392025526,{}
252,98,252,0,8.408400000000002,10.689933765502026,125.38137939967032,8.961089734771651,30.08208696840806,37.07269496408908,38.82255047822835,65.87373895294364,115.57587982656072,85.51947012401583,79.08364284344407,72.05398570180466,84.35588569967376,13.180607140574123,36.026992850902275,2.636121428114734,4.393535713524784,26.59450391074921,24.85359117134862,24.6037999957382,79.08364284344418,61.50949998934544,65.23771799684116,{}
253,98,253,0,8.441766666666668,12.345443809514377,126.47905676570691,8.902426134712714,28.15194328710126,35.09234477003959,38.56839940487339,65.1858138091877,114.56678280974768,86.41810666660062,79.43887801363246,71.58228568261381,85.54956093775797,13.96727525514416,34.91818813786051,3.49181881378604,5.23772822067906,23.293336793164727,26.420403506963247,26.18864110339529,73.32819508950689,52.3772822067906,68.447665211665,{}
254,98,254,0,8.475133333333334,12.342349024821488,131.05872079028228,9.495083372262732,28.702697929930665,37.06900408177718,40.59174468920613,67.57883200348392,117.698892026713,89.01940788382483,81.98846137917099,72.29090143109704,84.63325045591841,11.460752665905602,37.90864343338024,6.171174512410744,4.407981794578973,23.19117937745102,24.93531054634978,24.68469804964292,79.34367230242361,61.71174512410721,63.69495561722242,{}
255,98,255,0,8.5085,12.908868793110674,139.33208925017072,8.164285480499707,27.62618562725014,38.51085758987914,40.32859532308571,69.9703558055224,118.25538441867803,90.63827806409894,83.0643328156093,69.37240982402534,82.15153794950379,6.389564062739282,41.07576897475178,10.040743527161451,0.912794866105628,24.011883965474347,25.62337293292832,26.471051117062306,74.84917902065894,65.721230359603,62.17734579098513,{}
256,98,256,0,8.541866666666666,11.183646352820332,140.50409661725183,9.374955984572184,28.124867953716933,40.490527316058255,44.27887316740237,68.91610523960348,117.58291359795896,89.46917082256229,82.73610606532077,68.02746498704164,82.73610606532088,7.354320539139621,40.44876296526797,9.192900673924555,0.0,26.00144962122571,25.80570192165017,26.6594119543812,77.22036566096614,64.35030471747177,62.61978295993844,{}
257,98,257,0,8.575233333333331,5.587442366156692,140.2993315701269,10.747659983547653,24.987801902176912,37.27288951346441,40.98304229919447,65.75638705878225,106.9524626565124,81.96608459838895,78.62724656529076,63.60855901911168,77.74379435669198,5.300713251592697,35.33808834395086,5.300713251592583,3.5338088343950176,23.239999160404665,23.037615052714816,22.96975742356813,77.74379435669192,63.60855901911157,67.35128151677011,{}
258,98,258,0,8.608599999999997,1.7965964279812852,142.8491885159771,12.70385517281131,21.63388580745773,38.11156551843389,38.111565518434006,66.86139270291868,101.3923643044064,79.78182879434156,79.05024283117893,64.6774714073282,80.84683925916022,6.288087497934612,27.84724463371083,2.694894641972041,6.288087497934725,25.407710345622657,25.2164325159598,25.15234999173873,84.4400321151229,62.880874979346856,72.42311736029023,{}
259,98,259,0,8.641966666666663,3.938030419965102,136.53100920106684,8.980091016274084,21.42520184786338,31.895615426108723,37.15130467941568,65.75449569796322,99.3913942246482,77.98891192623066,75.7290519619346,59.87878527222733,75.72905196193449,2.641711114951136,30.81996300776416,4.40285185825212,6.163992601552877,24.90629124423833,26.47575075806893,26.41711114951209,75.72905196193454,51.07308155572332,60.29174730558847,{}
260,98,260,0,8.67533333333333,1.731926329837279,137.70720398497053,6.927705319348661,22.779934250851216,34.81128839961604,36.739705570301886,66.38046839849378,97.74265530548438,74.9746087262659,73.60686901808003,57.15356888462679,72.7409058531614,0.8659631649186394,32.04063710198784,6.061742154430135,6.061742154430135,23.106779276502884,24.30874443406545,23.3810054528019,72.74090585316145,48.49393723544097,61.01200616002762,{}
261,98,261,0,8.708699999999995,1.7469247754303296,140.84157806407697,8.907603518697833,22.777112395386656,35.11275342505826,40.51961796469182,65.22372392305618,98.58910464485388,75.84551095719549,74.24430295578816,57.6485175892002,75.11776534350327,1.7469247754303296,31.44464595774548,5.240774326290875,5.240774326290875,23.30688349909052,22.77711239538672,23.58348446830911,71.62391579264255,52.40774326290921,56.14671668633549,{}
262,98,262,0,8.74206666666666,1.782555266127929,141.5420720500643,7.349663645746229,23.241677156695108,33.915426964755945,37.603044533336856,71.85710003054967,104.13845919601115,80.92486795469816,79.3237093426909,64.17198958060385,78.43243170962694,0.0,32.085994790301925,5.347665798383559,5.347665798383559,25.20913833037635,25.01935541794892,25.847051358854287,65.95454484673178,49.911547451580816,53.4766579838365,{}
263,98,263,0,8.775433333333327,5.639679379241913,143.3854516149306,8.917116055744373,26.81072970127068,37.62135385361288,41.1735220813623,69.91837858567162,111.08880050774994,84.29387115350875,81.14575610727434,67.77008202365766,82.03746771284875,5.350269633446601,35.66846422297772,5.350269633446715,3.566846422297772,23.457269972466456,23.18450174493552,23.18450174493552,78.47062129055098,60.63638917906212,73.20729622010954,{}
264,98,264,0,8.808799999999993,10.662981334671144,144.34463299826788,9.061791649760618,26.893364601944167,37.36272412930327,41.02900671507007,69.67297135352125,116.18355408250343,89.30136346981557,83.52668712159061,69.3093786753625,79.97236001003364,5.331490667335629,40.87476178290592,10.66298133467103,1.777163555778429,23.374937060659967,21.39988303888992,22.21454444723156,85.30385067736916,63.97788800802687,71.44109077585237,{}
265,98,265,0,8.842166666666659,21.617538192362108,145.812741641247,7.401959329365871,26.98835743805381,37.87060465783144,41.329501650971885,68.43133947526448,124.33892064445432,97.35757459515128,86.17146395718078,71.80955329765072,82.58098629229835,8.976194162206411,46.67620964347293,17.952388324412595,1.7952388324413278,23.612680206456428,25.19737775453036,24.235724237957072,80.78574745985708,68.21907563276818,82.65900330194388,{}
266,98,266,0,8.875533333333324,19.93271809261701,144.77535114797797,9.201810457353403,27.12943997453641,41.545552995996125,43.34854409537051,67.16012502705388,123.36288000380549,96.25598545759952,85.7196164005885,70.38031662364108,81.20805764266277,9.023117515851368,46.920211082427386,18.04623503170285,1.804623503170319,25.52123033160665,23.529411764705884,23.460105541213693,75.79418713315187,66.77106961730044,81.22810654005309,{}
267,98,267,0,8.90889999999999,21.625598382527013,144.22160375113793,8.979540974006113,26.99842016079533,35.96303357485045,41.344911529736194,70.4078472704922,127.9639725140272,100.97093551003344,89.7954097400609,73.63223598684999,86.2035933504585,9.87749507140677,47.5915671622322,17.06112785061157,2.6938622922018567,25.397977258648616,25.20677270295372,25.142714727217083,84.40768515565725,66.44860320764502,88.29222418832042,{}
