,video_id,frame_seq,time_seconds,m1,m3,m4,m5,m6,m7,m8,m9,m10,m11,m12,m13,m14,m15,m16,m17,e1,e2,e3,b1,b2,b3,label_measures
0,161,0,0.0,10.18030891566252,131.99115017621173,13.273498873738584,24.622882330611983,30.962200809526465,34.41034770079044,36.315318054411975,84.33389042998719,59.73074493182381,53.118389705060736,67.60522326098646,38.63155614913512,17.706129901686836,28.97366711185145,6.438592691522672,8.048240864403056,23.43683116330121,23.04665451413461,22.535074420328897,37.02190797625451,85.31135316267341,55.503694011340336,"{'others': ['m1', 'm3', 'm12', 'e1', 'e2']}"
1,161,1,0.0333666666666666,8.175453887858014,128.3472154434301,13.69892946110992,23.344959767143827,29.564099677095392,33.053668285782415,36.17296352924969,81.28150961090259,57.94244107861782,52.10849863333294,65.73687519897373,36.87678364820477,16.033384194871587,27.25675313128193,8.016692097435907,8.016692097435794,22.956312594093568,22.956312594093596,22.44673787282028,38.48012206769198,84.97693623281975,50.70201265633944,"{'others': ['m1', 'm3', 'm12', 'e1', 'e2']}"
2,161,2,0.0667333333333332,9.727674101244418,129.57628234890598,13.663739713703103,24.46335845779828,31.051231237001534,34.52241020434461,36.08004258581692,83.78751780674222,59.343768312692745,52.77425244567769,63.96879084324564,35.182834963785126,14.392977939730258,31.984395421622708,9.5953186264868,4.797659313243457,24.826567103976554,22.897342523193497,22.389076795135907,36.78205473486622,84.7586478673004,54.11415654214958,"{'others': ['m1', 'm3', 'm12', 'e1', 'e2']}"
3,161,3,0.1000999999999998,3.5768504228867504,125.31233966538656,13.667126275720689,26.3815451927129,27.9360948561176,32.97693149089104,39.21507166274411,82.63995345040422,56.26011645617389,52.78733256009605,65.58426166557376,35.19155504006403,11.997121036385352,29.59289855641748,7.198272621831279,3.999040345461708,23.290762533302654,24.832720376136542,23.19443400367857,33.591938901879246,84.77965532379056,57.67498007284729,"{'others': ['m1', 'm3', 'm12', 'e1', 'e2']}"
4,161,4,0.1334666666666664,2.315797652762301,133.05260183457457,11.92129805710366,23.44566428522193,30.194307255702554,33.758261778632765,43.69438272364261,81.01982826871881,57.593100787697146,54.8567935081598,67.13816518909113,36.02535693073179,9.00633923268299,27.019017698048856,5.731306784434537,2.4562743361863117,25.04918154190181,25.42108793126375,24.5627433618626,36.02535693073179,86.78835987858116,53.3388076986199,"{'others': ['m1', 'm3', 'm12', 'e1', 'e2']}"
5,161,5,0.166833333333333,1.6088667649380568,130.72475614382506,13.746163665348057,23.03546645503611,30.056111546497878,33.16763804692788,44.17796973108992,81.16409933175828,58.14222786515032,56.31033677283369,69.1812708923386,38.6128023585145,10.45763397209771,24.937434856540563,4.022166912345256,4.022166912345369,21.464959901741896,21.46495990174192,21.719701326664392,33.786202063700216,83.66107177678151,52.40560900923754,"{'others': ['m1', 'm3', 'm12', 'e1', 'e2']}"
6,161,6,0.2001999999999996,2.2704927695616,126.9548625815458,16.761712001058594,26.47826823381625,29.603603848643107,31.54269362958601,40.647528117100535,85.67914379406247,59.20720769728627,56.994569606718585,70.6411566956512,41.74250168379382,16.054808339920783,27.29317417786524,3.2109616679840656,4.816442501976212,22.986987301618196,24.559134303674394,24.08221250988112,35.32057834782563,83.48500336758781,53.36865580740285,"{'others': ['m1', 'm3', 'm12', 'e1', 'e2']}"
7,161,7,0.2335666666666662,10.17166503425135,127.55203061781214,13.74116277697961,24.601975570647262,28.49881999516393,33.58190269032187,40.718434183345394,88.96573425779995,64.37145268858676,57.89813238815231,73.98094694041691,43.42359929111427,18.495236735104186,28.14492546646295,5.628985093292613,10.453829458971882,26.18092527766566,25.42916258562859,24.124221828396852,38.59875492543495,82.02235421654922,55.01168975675647,"{'others': ['m1', 'm3', 'm12', 'e1', 'e2']}"
8,161,8,0.2669333333333328,9.515870954959496,122.326141748997,15.045913068956796,26.156627378030112,26.156627378030198,29.62852333055535,38.58852219198713,88.95628809497695,62.84158346574596,57.095225729756976,74.54098914718259,45.99337628230416,22.20369889490547,26.96163437238522,4.757935477479691,11.101849447452764,23.0921954147726,23.092195414772565,21.41070964865889,39.6494623123312,80.8849031171556,57.31507723905126,"{'others': ['m1', 'm3', 'm12', 'e1', 'e2']}"
9,161,9,0.3002999999999994,11.292526072045804,119.34542791664182,13.783340721950692,23.488808780588094,26.605873014334943,30.1373995179947,41.12915057079762,89.23881099116998,65.80664091327621,58.88245737566723,74.20802847344356,46.7833222984753,20.16522512865305,26.61809716982225,5.646263036023015,10.48591706689956,24.677490342478507,25.04387821492995,23.39166114923768,40.330450257306325,82.2741185249049,55.62678871408544,"{'others': ['m1', 'm3', 'm12', 'e1', 'e2']}"
10,161,10,0.333666666666666,4.80657990504784,118.529822983967,13.212024430988969,24.508844729481822,26.42404886197813,30.399480511093927,41.19226203435938,83.59089441652073,59.08596949615874,55.27566890805002,73.70089187740001,46.46360574879566,20.027416271032564,21.629609572715253,0.801096650841373,10.41425646093694,24.87272871249844,25.332900425911667,23.23180287439777,41.65702584374782,84.91624498917821,56.78187527901401,"{'others': ['m1', 'm3', 'm12', 'e1', 'e2']}"
11,161,11,0.3670333333333326,5.147489341239567,121.2121713951536,13.423009957665624,24.900231495415778,27.286549198473576,29.345204239205582,40.26902987299693,83.70013942285577,58.8256919659571,54.53059834168516,74.87783652888118,43.95003448434329,20.34723818719596,21.97501724217159,0.813889527487845,12.20834291231762,23.30624923969085,23.700820791384277,21.975017242171702,35.81113920946484,83.01673180375946,59.2520519784606,"{'others': ['m1', 'm3', 'm12', 'e1', 'e2']}"
12,161,12,0.4003999999999992,3.265959107498474,129.5108249623826,17.048807063925683,23.77654119648481,30.11065518728232,33.6647359229098,36.0736974096906,79.74894357774667,56.11845369679432,53.88832527372375,73.48407991871414,42.45746839747932,22.04522397561425,20.41224442186501,0.8164897768746187,10.614367099369815,23.776541196484956,25.350659867823403,23.67820352936343,34.2925706287333,81.64897768746022,54.28275560778075,"{'others': ['m1', 'm3', 'm12', 'e1', 'e2']}"
13,161,13,0.4337666666666658,3.2297736368831806,127.69864938855656,14.888520816118438,24.703018198432204,31.355430271547775,34.860615274997606,35.85630630912165,78.58378423911176,53.89949361657575,51.67637819013072,72.66990682987131,43.6019440979228,22.608415458182208,19.37864182129897,1.6148868184416187,11.30420772909116,21.964835435978816,21.54527743323341,20.99352863974059,35.52751000571487,83.97411455896236,54.6442957192327,"{'others': ['m1', 'm3', 'm12', 'e1', 'e2']}"
14,161,14,0.4671333333333324,9.813591388140653,124.960158508754,13.974560262548184,26.974982573303784,30.555502778074096,34.152300681797804,37.93742576495127,88.21624777755349,61.30768013933447,55.6103511994636,75.23753397574478,44.16116124663285,22.080580623316397,26.987376317386747,4.088996411725248,13.902587799865898,14.06995085977234,13.974560262548238,13.084788517520847,32.711971293802094,89.95792105795579,56.49329977197198,"{'others': ['m1', 'm3', 'm12', 'e1', 'e2']}"
15,161,15,0.5004999999999991,13.57483969179777,130.69427288755884,15.973470572854822,27.40949084767541,32.69254320814525,36.34720242300561,37.649831203831226,94.440307055026,67.03361867955545,58.93130733921152,82.50383027489619,48.82879750963247,28.6237778504742,26.940026212211023,3.367503276526349,16.83751638263186,11.294949361149436,12.25789695281212,10.102509829579162,38.72628768005336,70.71756880705391,61.1969024079372,"{'others': ['m1', 'm3', 'm12', 'e1', 'e2']}"
16,161,16,0.5338666666666656,19.780574351566315,131.59203735337448,15.63791709431459,28.787739977258006,30.39464743750901,35.583659512739715,33.13205199126271,96.7502876172936,68.08432953077819,57.69334185873532,74.17715381837405,46.15467348698832,27.198289733403897,35.440195713223034,10.714477773765111,15.659621361656775,11.88664584711668,12.000396246040667,10.714477773765225,39.5611487031328,70.8803914264463,51.76021946694552,"{'others': ['m1', 'm3', 'm12', 'e1', 'e2']}"
17,161,17,0.5672333333333321,13.200750534776097,129.4750716251962,16.697775405431198,31.495086657619908,31.79161721510981,35.34556302075664,34.73347235219061,96.10291451414813,64.60799324910002,57.307305613575295,76.9555246810869,47.483196079819606,27.83497701230806,32.74703177918593,4.912054766877873,16.373515889592966,11.807110219910497,11.920099495011758,10.642785328235448,40.93378972398239,72.04346991420897,56.26870166219904,"{'others': ['m1', 'm3', 'm12', 'e1', 'e2']}"
18,161,18,0.6005999999999987,14.636928096201244,124.7191147612436,16.97933507480285,29.987957622472702,29.677652594080723,31.952223273181705,35.81610043591551,96.83125255691226,66.99591934933233,59.36087505681621,78.06361651307338,52.04241100871559,29.27385619240249,30.900181536424952,3.2526506880448096,16.263253440223593,16.01744705273339,15.428676910702718,13.823765424190128,43.91078428860379,73.18464048100634,60.524654171536575,"{'others': ['m1', 'm3', 'm12', 'e1', 'e2']}"
19,161,19,0.6339666666666652,14.77839455138106,126.42476187504394,16.643206456167306,29.781217451429267,31.68772103105477,34.88818936730006,38.41273350488567,99.55204045795745,69.7763787346,61.20002487169518,76.70403117252465,52.224021223846535,26.92801094354587,33.456013596526645,5.712002321358227,15.504006300829474,17.038587147025222,16.643206456167363,14.68800596920687,47.32801923411091,70.17602851954376,60.73586451425053,"{'others': ['m1', 'm3', 'm12', 'e1', 'e2']}"
20,161,20,0.6673333333333318,9.870710098999714,122.21250501033926,16.548712252736713,29.61213029699907,28.012744938124367,29.92175023420362,35.847382170976445,91.7957393386789,62.19542399395048,56.79571604911104,73.02306349171414,50.304777072069726,25.96375590816496,29.209225396685724,1.622734744260356,12.981877954082393,18.502022768601453,20.072120258834804,17.85008218686346,45.43657283928877,74.64579823597444,62.19542399395041,"{'others': ['m1', 'm3', 'm12', 'e1', 'e2']}"
21,161,21,0.7006999999999983,6.633581268066604,116.7519171570194,15.263173749842398,27.77357115627263,27.77357115627239,29.66627729933239,42.597351967181375,92.14261115675508,64.39540059614707,59.52855182595414,77.22622939583238,53.09303270963477,23.32875679665773,24.937636575737542,0.8044398895399354,12.066598343098804,19.900743804199784,21.46513353204909,20.110997238498044,56.31079226779445,88.4883878493913,70.0925237412932,"{'others': ['m1', 'm3', 'm12', 'e1', 'e2']}"
22,161,22,0.7340666666666649,0.0,117.14102668860504,16.77894112391562,28.40246363932807,28.16317998517911,28.40246363932807,44.90823813019591,90.07229986579176,61.67171740367559,60.876490071269245,77.32959549593659,55.94055844386901,22.21169232330089,22.21169232330101,4.113276356166807,9.049207983567044,20.0160666368426,21.64068143888562,20.56638178083421,59.2311795288025,87.20145875073706,66.81257473050971,"{'others': ['m1', 'm3', 'm12', 'e1', 'e2']}"
23,161,23,0.7674333333333314,0.0,112.54206057109153,14.849965266408596,29.39260590927185,26.220375805981888,29.39260590927176,43.96368741801901,88.17781772781545,58.7852118185436,57.985375748996944,72.48171968624627,54.76396598516385,20.133811023957264,23.355220787790472,4.026762204791453,8.85887685054115,24.37438777914744,22.778806889869877,21.744515905873925,59.59608063091355,82.14594897774572,63.556545117657066,"{'others': ['m1', 'm3', 'm12', 'e1', 'e2']}"
24,161,24,0.800799999999998,1.6124313943932975,112.66269426004789,16.44363828868165,31.015737144250405,27.600379625579794,29.42411180547525,40.82350225105135,89.86321892213257,58.84822361095064,57.24131450096036,74.17184414208941,56.43509880376371,24.99268661309532,23.38025521870225,5.643509880376314,10.48080406355598,24.400514653837007,24.665457433022432,23.38025521870213,62.88482438133673,82.23400111405573,62.03147428850083,"{'others': ['m1', 'm3', 'm12', 'e1', 'e2']}"
25,161,25,0.8341666666666645,4.818033925281497,113.56214868511272,16.378166001441592,27.724053675341047,25.896154230444083,29.30695623040772,40.66095865707289,89.50541790642717,61.78448864996762,58.61941275759148,70.66449757079522,54.6043844865236,22.48415831798036,25.69618093483461,1.1368683772161605e-13,9.636067850562997,25.89615423044397,24.567249002162335,23.287163972193863,61.02842972023223,77.0885428045039,62.96301740019555,"{'others': ['m1', 'm3', 'm12', 'e1', 'e2']}"
26,161,26,0.867533333333331,6.439218364563544,124.62216750722044,13.274788731756043,26.20572013395974,29.02116498417864,32.35667183054997,43.93911426207151,89.71682323884644,63.52102068860238,59.562769872212186,66.00198823677562,53.12355150764864,16.09804591140869,28.97648264053555,3.219609182281715,4.82941377342263,25.807130820107883,24.62527506989564,23.34216657154252,61.17257446335304,75.66081578362082,61.3629130979732,"{'others': ['m1', 'm3', 'm12', 'e1', 'e2']}"
27,161,27,0.9008999999999976,8.203709388552998,127.92364900755962,13.267162536133208,27.539585764039234,29.004492697647795,32.21779246870183,41.01854694276478,89.93911384118422,62.47758932966492,57.11523215733433,62.74631138411377,48.26639337239527,15.284357901258431,32.98203547113678,5.631079226779548,4.022199447699563,24.18676655607837,25.942406929934588,24.937636575737542,57.919672046874325,74.00846983767269,59.723905848387794,"{'others': ['m1', 'm3', 'm12', 'e1', 'e2']}"
28,161,28,0.934266666666664,5.149195078786607,134.51132620078735,14.745050751593991,26.255846186028744,31.32133088643897,32.72879591979773,40.70796141373948,86.54631311344535,60.423560896469816,56.17698675096051,61.87610134888405,45.592916783388205,14.654866108946294,30.938050674442025,4.884955369648765,4.884955369648765,24.47899395568463,24.640929529347336,24.42477684824371,58.61946443578495,74.90264900128079,58.98020300637577,"{'others': ['m1', 'm3', 'm12', 'e1', 'e2']}"
29,161,29,0.9676333333333308,6.457390013533768,136.56273070711558,13.312250545804025,24.429510644398597,32.44798323654102,34.05469789100654,39.93675163741213,83.89948953598272,59.53419430785309,54.88781511503646,58.116510121803344,41.97303508796904,11.300432523684094,32.286950067668386,6.457390013533654,1.614347503383442,27.491347363985028,26.030571335198868,25.022386302443067,58.11651012180329,75.87433265902092,58.31795443508612,"{'others': ['m1', 'm3', 'm12', 'e1', 'e2']}"
