,frame_seq,m1,m3,m4,m5,m6,m7,m8,m9,m10,m11,m12,m13,m14,m15,m16,m17,e1,e2,e3,b1,b2,b3,label_measures
0,53,7.071067811865476,27.892651361962702,2.0,4.123105625617661,7.280109889280518,8.246211251235321,8.54400374531753,21.587033144922906,17.46424919657298,13.5,9.0,16.0,4.5,8.5,2.5,1.5,3.1622776601683795,3.0,3.0,15.0,5.0,11.40175425099138,{}
1,105,4.0,29.017236257093817,3.0,5.0,7.071067811865476,8.0,7.071067811865476,19.026297590440446,14.0356688476182,12.0,11.0,12.0,4.5,7.5,2.5,1.5,3.0,4.0,3.5,10.0,8.0,13.038404810405298,{}
2,155,2.0,26.0768096208106,2.23606797749979,4.123105625617661,6.082762530298219,6.082762530298219,3.0,11.180339887498947,7.071067811865476,6.0,5.0,3.0,1.0,7.0,3.0,0.0,5.0,5.0990195135927845,4.5,9.0,14.0,12.16552506059644,"{'others': (['m1', 'm3', 'm12', 'e1', 'e2'], None, 15)}"
3,159,4.0,21.02379604162864,2.23606797749979,4.123105625617661,5.0990195135927845,6.0,7.0,17.11724276862369,13.038404810405298,11.0,13.0,12.0,5.5,4.5,0.5,3.5,5.0,4.123105625617661,4.5,11.0,13.0,12.041594578792296,"{'others': (['m1', 'm3', 'm12', 'e1', 'e2'], None, 15)}"
4,178,2.23606797749979,29.120439557122072,2.23606797749979,3.1622776601683795,8.246211251235321,8.246211251235321,8.54400374531753,16.15549442140351,13.0,11.0,6.0,14.0,2.0,5.0,0.0,1.0,4.123105625617661,4.123105625617661,4.0,16.0,6.0,13.341664064126334,"{'others': (['m1', 'm3', 'm12', 'e1', 'e2'], None, 15)}"
5,179,1.0,29.8328677803526,2.0,4.47213595499958,7.280109889280518,8.246211251235321,9.486832980505138,16.15549442140351,11.704699910719626,11.0,6.0,13.0,0.5,5.5,0.5,1.5,4.47213595499958,4.123105625617661,4.0,17.0,6.0,13.601470508735444,"{'others': (['m1', 'm3', 'm12', 'e1', 'e2'], None, 15)}"
6,180,1.0,28.861739379323623,2.23606797749979,4.123105625617661,8.246211251235321,8.246211251235321,9.219544457292889,15.811388300841896,11.704699910719626,11.0,6.0,13.0,0.5,5.5,0.5,1.5,4.47213595499958,4.123105625617661,4.0,17.0,6.0,13.601470508735444,{}
7,181,1.0,28.861739379323623,2.0,4.123105625617661,7.280109889280518,8.246211251235321,9.486832980505138,15.811388300841896,11.704699910719626,11.0,6.0,13.0,0.5,5.5,0.5,1.5,4.47213595499958,4.123105625617661,4.0,17.0,6.0,13.341664064126334,{}
8,185,1.0,28.861739379323623,2.23606797749979,4.123105625617661,8.246211251235321,8.246211251235321,10.198039027185567,16.76305461424021,12.649110640673518,12.0,7.0,14.0,0.5,5.5,0.5,2.5,3.605551275463989,4.123105625617661,4.0,17.0,7.0,13.341664064126334,{}
9,186,1.4142135623730951,28.861739379323623,2.0,4.123105625617661,7.280109889280518,7.280109889280518,10.44030650891055,15.811388300841896,11.704699910719626,11.5,7.0,14.0,0.5,4.5,0.5,1.5,4.123105625617661,4.123105625617661,4.0,17.0,6.0,12.649110640673518,{}
10,187,1.0,29.8328677803526,2.23606797749979,3.1622776601683795,7.280109889280518,8.246211251235321,10.44030650891055,16.15549442140351,13.0,12.0,7.0,14.0,0.5,4.5,0.5,2.5,4.123105625617661,4.123105625617661,4.5,16.0,6.0,13.601470508735444,{}
11,188,1.0,29.120439557122072,2.0,3.605551275463989,7.280109889280518,7.280109889280518,10.770329614269007,16.55294535724685,13.0,12.0,7.0,15.0,1.0,4.0,0.0,2.0,4.47213595499958,4.123105625617661,4.0,17.0,6.0,13.341664064126334,{}
12,189,1.0,29.120439557122072,2.0,4.47213595499958,7.280109889280518,8.246211251235321,11.704699910719626,18.384776310850235,13.92838827718412,13.0,8.0,16.0,1.0,5.0,0.0,1.0,4.47213595499958,4.0,4.5,17.0,6.0,13.341664064126334,{}
13,190,2.0,27.202941017470888,1.4142135623730951,4.47213595499958,7.280109889280518,7.280109889280518,11.704699910719626,19.313207915827967,14.866068747318506,13.0,8.0,16.0,1.0,6.0,1.0,1.0,4.123105625617661,4.123105625617661,4.0,17.0,6.0,12.36931687685298,{}
14,191,2.23606797749979,25.29822128134704,2.23606797749979,5.0990195135927845,6.324555320336759,7.615773105863909,10.770329614269007,20.248456731316587,15.231546211727816,13.0,8.0,16.0,2.0,7.0,0.0,1.0,4.123105625617661,4.123105625617661,4.0,16.0,6.0,13.341664064126334,{}
15,192,2.23606797749979,26.570660511172846,1.4142135623730951,4.123105625617661,7.280109889280518,8.246211251235321,11.40175425099138,18.97366596101028,14.866068747318506,13.0,8.0,17.0,1.5,5.5,0.5,0.5,4.123105625617661,4.123105625617661,4.0,16.0,7.0,12.36931687685298,{}
16,193,0.0,26.92582403567252,2.23606797749979,4.47213595499958,6.324555320336759,7.280109889280518,11.704699910719626,18.384776310850235,13.92838827718412,13.0,9.0,16.0,1.5,4.5,0.5,0.5,4.123105625617661,4.123105625617661,4.5,17.0,7.0,14.317821063276352,{}
17,194,1.4142135623730951,25.96150997149434,2.23606797749979,5.0990195135927845,6.324555320336759,7.280109889280518,11.40175425099138,19.92485884517128,14.866068747318506,13.5,9.0,16.0,1.5,6.5,0.5,1.5,4.123105625617661,4.123105625617661,4.0,16.0,7.0,14.317821063276352,{}
18,195,2.23606797749979,27.65863337187866,3.1622776601683795,5.0990195135927845,6.324555320336759,8.54400374531753,10.44030650891055,20.8806130178211,15.811388300841896,14.0,10.0,16.0,3.0,7.0,0.0,1.0,4.47213595499958,4.0,4.0,17.0,8.0,14.142135623730953,{}
19,196,3.0,26.68332812825267,2.23606797749979,5.385164807134504,6.324555320336759,8.246211251235321,11.40175425099138,21.840329667841555,16.492422502470642,14.5,10.0,16.0,2.0,8.0,1.0,1.0,4.123105625617661,4.123105625617661,4.0,16.0,8.0,13.152946437965904,{}
20,197,1.4142135623730951,27.65863337187866,2.0,4.123105625617661,7.280109889280518,7.280109889280518,11.40175425099138,18.68154169226941,14.560219778561036,13.5,10.0,16.0,2.0,5.0,0.0,1.0,4.123105625617661,4.123105625617661,4.5,15.0,7.0,14.142135623730953,{}
21,198,0.0,28.635642126552707,2.23606797749979,4.123105625617661,7.280109889280518,8.246211251235321,11.40175425099138,17.72004514666935,13.601470508735444,13.0,9.0,15.0,1.0,5.0,0.0,1.0,5.0990195135927845,4.123105625617661,4.5,15.0,8.0,14.317821063276352,{}
22,199,0.0,27.65863337187866,2.23606797749979,5.0990195135927845,7.280109889280518,7.280109889280518,11.40175425099138,18.68154169226941,13.601470508735444,13.0,10.0,16.0,2.0,5.0,1.0,1.0,3.1622776601683795,4.0,4.0,16.0,9.0,14.142135623730953,{}
23,200,1.4142135623730951,28.635642126552707,3.0,6.082762530298219,7.280109889280518,8.246211251235321,11.40175425099138,21.587033144922906,15.524174696260024,14.5,11.0,17.0,3.0,7.0,0.0,1.0,4.123105625617661,4.123105625617661,4.5,15.0,9.0,14.142135623730953,{}
24,201,3.1622776601683795,27.459060435491963,2.23606797749979,6.082762530298219,6.324555320336759,7.280109889280518,11.180339887498947,22.56102834535696,16.492422502470642,14.5,11.0,16.0,2.5,8.5,1.5,0.5,4.123105625617661,4.0,4.0,16.0,9.0,14.142135623730953,{}
25,202,3.1622776601683795,27.459060435491963,3.1622776601683795,6.082762530298219,6.082762530298219,8.06225774829855,11.180339887498947,23.53720459187964,17.46424919657298,15.5,12.0,17.0,3.5,8.5,1.5,0.5,4.123105625617661,4.123105625617661,4.0,15.0,9.0,15.132745950421556,{}
26,203,4.0,28.442925306655784,3.1622776601683795,5.0990195135927845,7.071067811865476,7.280109889280518,10.44030650891055,22.56102834535696,17.46424919657298,15.0,11.0,16.0,3.5,8.5,2.5,0.5,3.1622776601683795,4.0,4.5,15.0,9.0,14.142135623730953,{}
27,204,5.0990195135927845,28.442925306655784,2.0,6.082762530298219,7.071067811865476,7.071067811865476,11.40175425099138,24.515301344262525,18.43908891458577,15.5,12.0,17.0,3.5,9.5,2.5,0.5,4.0,4.123105625617661,4.0,14.0,9.0,13.038404810405298,{}
28,205,6.082762530298219,29.27456233660889,2.0,5.0990195135927845,7.071067811865476,8.06225774829855,11.40175425099138,24.515301344262525,19.4164878389476,16.0,13.0,17.0,4.0,9.0,4.0,2.0,4.123105625617661,4.0,4.0,14.0,9.0,14.142135623730953,{}
29,206,4.0,29.27456233660889,3.1622776601683795,6.082762530298219,7.071067811865476,8.06225774829855,11.180339887498947,24.33105012119288,18.24828759089466,16.0,12.0,16.0,3.0,10.0,4.0,0.0,3.0,3.0,3.5,15.0,10.0,13.038404810405298,{}
30,207,3.1622776601683795,29.42787793912432,3.1622776601683795,5.0990195135927845,8.06225774829855,8.06225774829855,10.198039027185567,21.587033144922906,16.492422502470642,14.5,13.0,18.0,5.5,5.5,0.5,2.5,3.0,4.123105625617661,4.0,13.0,9.0,14.0,{}
31,208,3.0,30.26549190084312,3.1622776601683795,4.123105625617661,8.06225774829855,8.06225774829855,9.055385138137416,19.235384061671343,15.132745950421556,13.5,11.0,15.0,4.0,6.0,1.0,0.0,4.123105625617661,4.0,4.5,15.0,9.0,14.0356688476182,{}
32,209,1.0,24.186773244895647,3.0,5.0990195135927845,7.071067811865476,7.071067811865476,12.36931687685298,21.37755832643195,16.278820596099706,15.5,14.0,17.0,3.5,5.5,0.5,0.5,3.1622776601683795,3.0,3.0,14.0,9.0,12.041594578792296,{}
33,210,2.23606797749979,27.29468812791236,3.0,5.0990195135927845,7.071067811865476,7.071067811865476,11.180339887498947,21.37755832643195,16.278820596099706,15.0,13.0,17.0,4.0,6.0,0.0,1.0,3.0,4.0,4.0,14.0,10.0,13.038404810405298,{}
34,211,2.23606797749979,26.30589287593181,3.0,4.123105625617661,7.071067811865476,7.071067811865476,11.180339887498947,20.39607805437113,16.278820596099706,15.0,13.0,17.0,4.0,5.0,0.0,1.0,3.0,3.0,3.0,14.0,10.0,13.152946437965904,{}
35,212,2.0,26.30589287593181,3.0,5.0990195135927845,7.071067811865476,8.06225774829855,11.180339887498947,21.213203435596427,16.1245154965971,15.0,13.0,17.0,4.0,6.0,0.0,1.0,4.0,4.123105625617661,4.0,13.0,9.0,13.038404810405298,{}
36,213,2.0,26.30589287593181,3.0,5.0990195135927845,7.071067811865476,8.246211251235321,11.180339887498947,21.213203435596427,16.1245154965971,15.0,13.0,17.0,4.0,6.0,1.0,1.0,3.0,3.1622776601683795,3.5,13.0,9.0,13.038404810405298,{}
37,214,3.1622776601683795,27.16615541441225,2.0,4.0,7.0,7.071067811865476,11.04536101718726,20.09975124224178,16.1245154965971,14.5,14.0,17.0,4.5,4.5,0.5,2.5,3.0,3.0,3.5,13.0,10.0,13.038404810405298,{}
38,215,3.0,26.1725046566048,2.0,4.123105625617661,7.071067811865476,7.071067811865476,11.180339887498947,20.223748416156685,16.1245154965971,14.5,13.0,16.0,3.5,5.5,0.5,1.5,3.0,4.0,4.0,13.0,10.0,14.0,{}
39,216,2.0,26.0768096208106,3.0,5.0990195135927845,6.082762530298219,7.071067811865476,11.180339887498947,21.213203435596427,16.1245154965971,15.0,14.0,16.0,4.0,6.0,0.0,1.0,3.0,3.1622776601683795,3.5,13.0,10.0,14.0,{}
40,217,1.0,26.1725046566048,3.0,5.0990195135927845,6.082762530298219,7.071067811865476,11.180339887498947,20.223748416156685,15.132745950421556,14.5,13.0,16.0,3.5,5.5,0.5,0.5,3.0,4.0,3.5,12.0,10.0,14.0,{}
41,218,1.0,28.16025568065745,3.0,4.123105625617661,6.082762530298219,6.082762530298219,11.180339887498947,19.235384061671343,15.132745950421556,14.5,13.0,16.0,3.5,4.5,0.5,0.5,3.0,3.0,3.0,12.0,10.0,14.0356688476182,{}
42,219,2.0,27.073972741361768,2.23606797749979,4.0,7.0,7.071067811865476,11.04536101718726,19.1049731745428,15.132745950421556,14.0,13.0,15.0,3.0,5.0,0.0,1.0,3.1622776601683795,3.0,3.0,12.0,10.0,14.0356688476182,{}
43,220,1.0,29.068883707497267,2.23606797749979,5.0,7.071067811865476,7.071067811865476,11.180339887498947,19.235384061671343,14.317821063276352,13.5,13.0,15.0,3.0,5.0,0.0,0.0,3.0,3.0,3.0,12.0,10.0,14.0356688476182,{}
44,221,1.4142135623730951,28.0713376952364,2.0,4.0,7.0,8.0,11.180339887498947,18.24828759089466,14.317821063276352,13.5,12.0,14.0,2.0,5.0,0.0,0.0,2.0,3.0,3.0,13.0,11.0,14.0,{}
45,222,1.0,29.068883707497267,2.0,4.123105625617661,7.0,8.0,11.04536101718726,18.110770276274835,14.0356688476182,13.5,13.0,15.0,3.0,4.0,0.0,1.0,3.0,3.1622776601683795,3.0,12.0,10.0,14.0356688476182,{}
46,223,1.0,27.073972741361768,2.0,3.1622776601683795,6.082762530298219,7.0,12.16552506059644,18.24828759089466,15.132745950421556,14.5,13.0,15.0,2.0,4.0,0.0,0.0,3.0,3.0,3.0,12.0,10.0,14.0,{}
47,224,1.0,27.073972741361768,2.0,5.0990195135927845,6.0,7.0,11.180339887498947,19.235384061671343,14.142135623730953,13.5,12.0,14.0,2.0,6.0,1.0,0.0,2.23606797749979,3.0,3.0,13.0,10.0,14.0,{}
48,225,1.0,29.068883707497267,2.0,4.123105625617661,7.0,7.0,11.180339887498947,18.24828759089466,14.142135623730953,13.5,12.0,14.0,2.0,5.0,1.0,0.0,2.0,2.23606797749979,2.5,12.0,10.0,13.0,{}
49,226,0.0,29.068883707497267,2.0,5.0,8.06225774829855,7.071067811865476,12.36931687685298,19.235384061671343,14.317821063276352,14.0,12.0,14.0,1.0,6.0,1.0,1.0,3.0,2.0,2.0,12.0,10.0,14.0,{}
50,227,1.0,29.017236257093817,2.0,4.123105625617661,6.0,7.0,11.180339887498947,18.24828759089466,14.142135623730953,13.5,12.0,13.0,1.5,5.5,0.5,0.5,3.0,3.1622776601683795,3.0,12.0,10.0,14.0,{}
51,228,1.4142135623730951,28.0178514522438,2.0,5.0,7.071067811865476,7.071067811865476,11.180339887498947,19.235384061671343,14.317821063276352,13.5,12.0,13.0,1.5,6.5,0.5,0.5,2.23606797749979,2.23606797749979,2.5,12.0,10.0,13.0,{}
52,229,1.0,29.068883707497267,2.23606797749979,5.0,8.06225774829855,7.071067811865476,12.16552506059644,20.223748416156685,15.297058540778355,14.5,12.0,14.0,1.0,7.0,1.0,1.0,2.23606797749979,2.0,2.5,12.0,10.0,14.0,{}
53,230,1.4142135623730951,30.066592756745816,2.0,5.0,7.071067811865476,7.071067811865476,12.16552506059644,20.223748416156685,15.297058540778355,14.5,12.0,14.0,1.0,7.0,1.0,1.0,3.0,3.1622776601683795,3.0,12.0,10.0,15.033296378372908,{}
54,231,1.0,29.068883707497267,2.0,5.0990195135927845,7.0,7.0,11.40175425099138,19.4164878389476,14.317821063276352,13.5,12.0,14.0,2.0,6.0,1.0,0.0,3.1622776601683795,3.1622776601683795,3.0,12.0,9.0,12.041594578792296,{}
55,232,1.4142135623730951,29.068883707497267,3.0,5.0,7.0,8.06225774829855,10.44030650891055,19.4164878389476,14.560219778561036,13.5,11.0,13.0,2.0,7.0,1.0,0.0,2.23606797749979,2.23606797749979,2.5,13.0,10.0,13.038404810405298,{}
56,233,1.0,29.068883707497267,3.0,5.0990195135927845,7.0,8.06225774829855,11.40175425099138,20.39607805437113,15.297058540778355,14.5,12.0,14.0,2.0,7.0,1.0,0.0,1.4142135623730951,3.1622776601683795,2.5,12.0,10.0,12.041594578792296,{}
57,234,1.0,31.064449134018133,3.0,5.0990195135927845,7.071067811865476,8.06225774829855,11.180339887498947,20.223748416156685,15.132745950421556,14.5,12.0,14.0,2.0,7.0,2.0,1.0,2.23606797749979,3.1622776601683795,3.0,13.0,10.0,13.0,{}
58,235,1.0,30.01666203960727,2.23606797749979,4.0,7.0,7.071067811865476,11.180339887498947,18.24828759089466,14.317821063276352,13.5,11.0,12.0,0.5,6.5,1.5,0.5,2.23606797749979,2.0,2.5,12.0,10.0,13.038404810405298,{}
59,236,1.0,31.064449134018133,3.1622776601683795,4.0,9.055385138137416,9.0,10.198039027185567,18.24828759089466,14.317821063276352,13.5,11.0,13.0,2.0,6.0,1.0,1.0,3.0,3.0,3.0,13.0,10.0,13.038404810405298,{}
60,237,1.4142135623730951,31.064449134018133,2.0,4.0,9.0,9.0,10.198039027185567,17.26267650163207,13.341664064126334,12.5,10.0,12.0,1.0,6.0,1.0,1.0,2.0,3.0,3.0,12.0,10.0,13.038404810405298,{}
61,238,1.0,32.0624390837628,2.23606797749979,4.0,10.04987562112089,10.04987562112089,11.180339887498947,18.24828759089466,14.317821063276352,13.5,11.0,13.0,1.0,6.0,1.0,1.0,2.0,3.1622776601683795,3.5,13.0,11.0,13.038404810405298,{}
62,239,1.0,30.066592756745816,2.23606797749979,3.0,8.06225774829855,7.0,11.04536101718726,17.11724276862369,14.142135623730953,13.5,11.0,13.0,1.0,5.0,1.0,1.0,2.23606797749979,3.1622776601683795,3.0,12.0,9.0,12.041594578792296,{}
63,240,1.0,29.068883707497267,2.0,3.1622776601683795,8.06225774829855,8.06225774829855,11.40175425099138,17.46424919657298,14.317821063276352,13.5,11.0,13.0,1.0,5.0,1.0,1.0,3.0,2.23606797749979,2.5,12.0,10.0,13.038404810405298,{}
64,241,1.0,29.068883707497267,2.23606797749979,4.0,7.071067811865476,8.06225774829855,11.180339887498947,18.24828759089466,14.317821063276352,13.5,11.0,13.0,1.0,6.0,1.0,1.0,2.23606797749979,2.23606797749979,2.5,12.0,10.0,12.041594578792296,{}
65,242,1.0,28.16025568065745,2.23606797749979,4.0,7.071067811865476,7.0,11.180339887498947,18.24828759089466,14.317821063276352,13.5,11.0,14.0,1.5,5.5,0.5,0.5,3.0,3.1622776601683795,3.0,13.0,10.0,12.041594578792296,{}
66,243,2.0,30.066592756745816,3.1622776601683795,5.0990195135927845,8.0,8.0,9.055385138137416,19.235384061671343,14.142135623730953,13.0,11.0,13.0,3.0,7.0,2.0,1.0,3.0,3.1622776601683795,2.5,12.0,9.0,12.0,{}
67,244,1.4142135623730951,28.0713376952364,2.0,4.0,9.0,9.055385138137416,11.180339887498947,18.24828759089466,14.317821063276352,13.5,12.0,14.0,2.0,5.0,0.0,0.0,2.0,3.0,3.0,11.0,9.0,12.041594578792296,{}
68,245,1.4142135623730951,27.16615541441225,3.0,5.0,7.071067811865476,7.071067811865476,11.40175425099138,20.39607805437113,15.524174696260024,14.5,12.0,15.0,2.5,6.5,0.5,0.5,1.0,2.23606797749979,1.5,13.0,10.0,12.041594578792296,{}
69,246,3.0,28.0713376952364,2.0,4.123105625617661,8.06225774829855,8.0,11.180339887498947,20.223748416156685,16.1245154965971,14.5,13.0,15.0,3.0,6.0,1.0,1.0,2.0,2.23606797749979,2.0,13.0,10.0,11.04536101718726,{}
70,247,4.0,27.29468812791236,2.23606797749979,4.123105625617661,7.071067811865476,8.06225774829855,10.04987562112089,20.223748416156685,16.1245154965971,14.0,13.0,17.0,5.0,5.0,0.0,2.0,2.0,2.23606797749979,2.0,14.0,10.0,14.0356688476182,{}
71,248,3.0,27.29468812791236,3.0,4.0,6.082762530298219,7.071067811865476,11.180339887498947,21.095023109728988,17.11724276862369,15.5,13.0,17.0,4.0,6.0,1.0,0.0,2.0,2.0,2.0,15.0,11.0,13.038404810405298,{}
72,249,5.0,29.154759474226505,3.0,5.0990195135927845,8.06225774829855,8.06225774829855,9.055385138137416,22.09072203437452,17.029386365926403,14.5,12.0,15.0,4.5,8.5,2.5,1.5,2.0,2.0,2.0,15.0,11.0,16.0312195418814,{}
73,250,5.0,27.16615541441225,3.0,5.0,7.071067811865476,7.071067811865476,9.055385138137416,22.02271554554524,17.029386365926403,14.5,15.0,18.0,7.5,5.5,0.5,4.5,2.0,2.0,2.0,14.0,10.0,14.142135623730953,{}
74,251,5.0,27.29468812791236,3.1622776601683795,4.0,7.071067811865476,7.280109889280518,9.055385138137416,21.095023109728988,17.11724276862369,14.5,13.0,17.0,6.0,6.0,1.0,3.0,2.0,3.0,3.0,15.0,10.0,15.033296378372908,{}
75,252,6.082762530298219,25.317977802344327,2.0,5.0,6.082762530298219,7.071067811865476,10.04987562112089,23.08679276123039,18.110770276274835,15.0,15.0,19.0,7.0,6.0,0.0,5.0,2.23606797749979,3.1622776601683795,3.0,14.0,9.0,14.142135623730953,{}
76,253,6.0,26.30589287593181,2.0,5.0990195135927845,6.082762530298219,6.324555320336759,10.04987562112089,23.08679276123039,18.027756377319943,15.0,14.0,18.0,6.0,7.0,1.0,4.0,2.0,2.23606797749979,2.0,13.0,9.0,13.038404810405298,{}
77,254,8.0,26.476404589747453,2.23606797749979,5.0990195135927845,6.082762530298219,6.324555320336759,9.055385138137416,24.186773244895647,19.1049731745428,15.0,13.0,18.0,6.5,8.5,2.5,3.5,2.0,3.1622776601683795,3.0,14.0,9.0,13.038404810405298,{}
78,255,5.0,25.179356624028344,2.0,5.0990195135927845,6.082762530298219,7.071067811865476,11.40175425099138,23.345235059857504,18.24828759089466,15.5,14.0,17.0,4.5,7.5,2.5,2.5,2.23606797749979,2.23606797749979,2.0,14.0,9.0,14.0356688476182,{}
79,256,1.0,27.459060435491963,3.1622776601683795,4.123105625617661,6.082762530298219,7.071067811865476,11.180339887498947,19.4164878389476,15.297058540778355,14.5,13.0,18.0,4.5,3.5,1.5,1.5,3.0,3.0,3.0,14.0,8.0,12.16552506059644,{}
80,257,1.4142135623730951,27.65863337187866,3.0,3.1622776601683795,7.071067811865476,7.280109889280518,12.16552506059644,19.4164878389476,16.278820596099706,15.5,14.0,20.0,5.0,2.0,2.0,2.0,2.23606797749979,2.23606797749979,2.5,14.0,8.0,12.041594578792296,{}
81,258,5.0990195135927845,27.459060435491963,3.0,4.123105625617661,7.280109889280518,8.246211251235321,11.40175425099138,23.53720459187964,19.4164878389476,16.5,14.0,19.0,5.5,6.5,1.5,1.5,2.0,3.1622776601683795,3.0,15.0,7.0,14.142135623730953,{}
82,259,7.0,25.96150997149434,4.123105625617661,5.0990195135927845,7.071067811865476,7.280109889280518,10.44030650891055,26.476404589747453,21.37755832643195,17.5,14.0,21.0,7.5,8.5,2.5,3.5,2.23606797749979,3.0,3.0,16.0,8.0,13.152946437965904,{}
83,260,7.071067811865476,27.65863337187866,3.1622776601683795,5.0990195135927845,7.280109889280518,8.246211251235321,11.04536101718726,26.30589287593181,21.213203435596427,17.5,14.0,20.0,6.0,9.0,3.0,2.0,2.0,2.23606797749979,2.5,15.0,7.0,14.317821063276352,{}
84,261,6.0,26.68332812825267,3.1622776601683795,5.0990195135927845,6.324555320336759,7.280109889280518,10.198039027185567,24.33105012119288,19.235384061671343,16.0,13.0,19.0,6.0,8.0,1.0,2.0,2.0,3.1622776601683795,3.0,16.0,7.0,13.341664064126334,{}
85,262,6.082762530298219,25.96150997149434,3.1622776601683795,4.123105625617661,7.615773105863909,7.280109889280518,10.04987562112089,23.345235059857504,19.235384061671343,16.0,13.0,20.0,6.5,6.5,1.5,2.5,2.0,2.23606797749979,2.0,15.0,7.0,12.16552506059644,{}
86,263,4.0,26.92582403567252,2.23606797749979,4.123105625617661,6.082762530298219,7.615773105863909,11.180339887498947,21.37755832643195,17.26267650163207,15.0,11.0,18.0,3.5,6.5,0.5,1.5,2.0,2.23606797749979,2.0,15.0,7.0,13.341664064126334,{}
87,264,4.123105625617661,25.96150997149434,2.0,3.1622776601683795,7.280109889280518,7.280109889280518,10.44030650891055,19.6468827043885,16.492422502470642,14.0,11.0,18.0,4.5,4.5,0.5,1.5,2.23606797749979,3.0,3.0,16.0,7.0,13.601470508735444,{}
88,265,2.0,27.892651361962702,2.23606797749979,4.123105625617661,6.324555320336759,7.280109889280518,10.198039027185567,18.43908891458577,14.317821063276352,13.0,10.0,17.0,3.5,4.5,0.5,0.5,2.23606797749979,3.0,3.0,15.0,7.0,12.36931687685298,{}
89,266,3.1622776601683795,26.68332812825267,2.0,4.123105625617661,7.280109889280518,7.615773105863909,10.198039027185567,19.4164878389476,15.297058540778355,13.5,11.0,17.0,4.0,5.0,1.0,1.0,2.23606797749979,3.1622776601683795,3.0,15.0,7.0,13.341664064126334,{}
90,267,3.1622776601683795,25.70992026436488,2.0,4.123105625617661,7.071067811865476,8.54400374531753,10.44030650891055,19.6468827043885,15.524174696260024,13.5,10.0,16.0,3.0,6.0,0.0,1.0,3.1622776601683795,3.0,3.0,16.0,7.0,12.36931687685298,{}
91,268,4.123105625617661,25.70992026436488,2.23606797749979,4.123105625617661,7.280109889280518,8.246211251235321,10.198039027185567,20.615528128088304,16.492422502470642,14.0,11.0,17.0,4.0,6.0,0.0,1.0,3.1622776601683795,3.1622776601683795,3.0,15.0,7.0,13.341664064126334,{}
92,269,4.123105625617661,27.65863337187866,2.0,5.0990195135927845,6.324555320336759,7.280109889280518,10.44030650891055,21.587033144922906,16.492422502470642,14.0,10.0,16.0,3.0,8.0,1.0,0.0,3.1622776601683795,3.1622776601683795,3.0,15.0,7.0,13.341664064126334,{}
93,270,1.4142135623730951,26.476404589747453,2.0,5.0990195135927845,7.280109889280518,7.280109889280518,11.40175425099138,19.6468827043885,14.560219778561036,13.5,11.0,16.0,2.5,5.5,0.5,0.5,3.0,3.1622776601683795,3.0,14.0,7.0,13.341664064126334,{}
94,271,0.0,26.476404589747453,2.23606797749979,5.0990195135927845,7.071067811865476,7.071067811865476,11.180339887498947,18.43908891458577,13.341664064126334,13.0,11.0,16.0,2.5,4.5,1.5,0.5,2.23606797749979,3.0,3.0,15.0,8.0,12.36931687685298,{}
95,272,1.4142135623730951,25.495097567963924,2.0,5.0990195135927845,6.324555320336759,7.280109889280518,10.44030650891055,18.68154169226941,13.601470508735444,12.5,10.0,15.0,2.5,5.5,0.5,0.5,3.1622776601683795,3.1622776601683795,3.0,14.0,7.0,12.16552506059644,{}
96,273,1.4142135623730951,25.495097567963924,2.0,5.0990195135927845,6.324555320336759,6.324555320336759,11.40175425099138,19.6468827043885,14.560219778561036,13.5,10.0,15.0,1.5,6.5,0.5,0.5,3.1622776601683795,3.0,3.0,13.0,7.0,13.152946437965904,{}
97,274,1.4142135623730951,28.635642126552707,3.0,5.0990195135927845,7.280109889280518,7.280109889280518,10.44030650891055,19.6468827043885,14.560219778561036,13.5,9.0,15.0,2.0,7.0,1.0,1.0,3.1622776601683795,4.123105625617661,4.0,14.0,8.0,14.0356688476182,{}
98,275,2.23606797749979,27.29468812791236,2.0,5.0990195135927845,6.324555320336759,7.071067811865476,10.44030650891055,19.6468827043885,14.560219778561036,13.0,10.0,14.0,2.0,7.0,1.0,1.0,2.0,3.0,2.5,14.0,8.0,13.152946437965904,{}
99,276,4.0,28.284271247461906,2.23606797749979,4.123105625617661,8.06225774829855,8.06225774829855,10.198039027185567,20.39607805437113,16.278820596099706,14.0,11.0,15.0,3.0,7.0,2.0,1.0,3.0,3.1622776601683795,3.0,14.0,8.0,13.152946437965904,{}
100,277,3.0,26.30589287593181,2.23606797749979,4.123105625617661,7.071067811865476,7.280109889280518,10.198039027185567,19.4164878389476,15.297058540778355,13.5,11.0,15.0,3.0,6.0,1.0,1.0,3.1622776601683795,3.1622776601683795,3.0,14.0,8.0,12.16552506059644,{}
101,278,3.1622776601683795,27.29468812791236,2.0,5.0,7.071067811865476,7.071067811865476,10.44030650891055,20.39607805437113,15.524174696260024,13.5,11.0,15.0,3.0,7.0,1.0,0.0,3.0,2.23606797749979,2.0,13.0,8.0,13.152946437965904,{}
102,279,2.23606797749979,27.29468812791236,2.0,5.0,7.071067811865476,7.071067811865476,11.180339887498947,20.223748416156685,15.297058540778355,14.0,11.0,15.0,2.0,7.0,1.0,0.0,3.1622776601683795,4.0,4.0,14.0,9.0,12.16552506059644,{}
103,280,2.23606797749979,27.459060435491963,2.0,5.0990195135927845,7.071067811865476,7.071067811865476,10.44030650891055,19.6468827043885,14.560219778561036,13.0,10.0,15.0,2.5,6.5,0.5,0.5,3.1622776601683795,4.123105625617661,4.0,14.0,9.0,12.041594578792296,{}
104,281,1.4142135623730951,26.476404589747453,2.0,5.0990195135927845,7.071067811865476,7.280109889280518,11.180339887498947,19.4164878389476,14.317821063276352,13.5,10.0,15.0,1.5,6.5,0.5,0.5,3.1622776601683795,3.1622776601683795,3.0,13.0,8.0,13.152946437965904,{}
105,282,1.4142135623730951,26.30589287593181,2.0,4.0,7.071067811865476,7.280109889280518,11.40175425099138,18.43908891458577,14.560219778561036,13.5,11.0,15.0,2.0,5.0,0.0,0.0,2.23606797749979,3.0,3.0,13.0,8.0,13.038404810405298,{}
106,283,1.4142135623730951,26.30589287593181,1.0,4.0,7.071067811865476,7.071067811865476,11.40175425099138,17.46424919657298,13.601470508735444,12.5,10.0,14.0,1.0,5.0,0.0,0.0,3.1622776601683795,3.0,3.0,13.0,8.0,12.16552506059644,{}
107,284,1.0,27.459060435491963,2.0,4.123105625617661,7.071067811865476,7.280109889280518,11.40175425099138,17.72004514666935,13.601470508735444,13.0,10.0,15.0,1.5,4.5,0.5,0.5,3.1622776601683795,3.1622776601683795,3.5,14.0,9.0,13.038404810405298,{}
108,285,1.0,27.29468812791236,2.23606797749979,5.0990195135927845,7.071067811865476,8.06225774829855,11.40175425099138,19.6468827043885,14.560219778561036,13.5,11.0,15.0,2.0,6.0,0.0,0.0,3.1622776601683795,3.0,3.5,14.0,8.0,12.041594578792296,{}
109,286,3.1622776601683795,27.29468812791236,2.0,5.0990195135927845,7.071067811865476,8.06225774829855,11.40175425099138,21.587033144922906,16.492422502470642,14.5,11.0,15.0,2.0,8.0,2.0,0.0,3.1622776601683795,3.0,3.0,14.0,8.0,12.041594578792296,{}
110,287,3.1622776601683795,27.29468812791236,2.0,5.0990195135927845,7.071067811865476,8.06225774829855,10.44030650891055,20.615528128088304,15.524174696260024,13.5,10.0,14.0,2.0,8.0,2.0,0.0,3.0,3.1622776601683795,3.0,14.0,8.0,13.038404810405298,{}
111,288,0.0,27.29468812791236,2.23606797749979,5.0990195135927845,7.071067811865476,7.071067811865476,11.180339887498947,18.43908891458577,13.341664064126334,13.0,10.0,14.0,1.0,6.0,0.0,1.0,3.0,3.1622776601683795,3.0,13.0,8.0,12.041594578792296,{}
112,289,1.0,27.29468812791236,2.0,4.123105625617661,7.071067811865476,8.06225774829855,9.486832980505138,16.492422502470642,12.36931687685298,11.5,9.0,13.0,2.0,5.0,0.0,0.0,3.0,3.0,3.0,13.0,8.0,13.038404810405298,{}
113,290,1.4142135623730951,26.30589287593181,2.0,5.0,7.071067811865476,7.071067811865476,9.219544457292889,17.26267650163207,12.36931687685298,11.5,9.0,13.0,2.0,6.0,0.0,0.0,3.0,3.1622776601683795,3.0,13.0,8.0,13.038404810405298,{}
114,291,4.123105625617661,27.29468812791236,2.0,5.0,7.071067811865476,7.071067811865476,9.486832980505138,20.39607805437113,15.524174696260024,13.0,9.0,13.0,2.0,9.0,3.0,0.0,3.1622776601683795,3.0,3.0,12.0,8.0,13.038404810405298,{}
115,292,4.123105625617661,28.442925306655784,1.0,5.0,8.246211251235321,9.219544457292889,10.44030650891055,20.39607805437113,15.524174696260024,13.0,9.0,14.0,1.5,8.5,2.5,0.5,2.23606797749979,3.1622776601683795,3.0,12.0,8.0,13.038404810405298,{}
116,293,3.1622776601683795,27.29468812791236,2.0,6.0,8.06225774829855,9.219544457292889,9.486832980505138,20.39607805437113,14.560219778561036,12.5,10.0,14.0,3.0,8.0,1.0,1.0,3.0,3.1622776601683795,3.0,12.0,7.0,13.152946437965904,{}
117,294,2.23606797749979,26.30589287593181,2.0,4.123105625617661,7.071067811865476,8.246211251235321,11.40175425099138,19.6468827043885,15.524174696260024,14.0,11.0,15.0,2.0,6.0,1.0,0.0,3.1622776601683795,3.1622776601683795,3.0,12.0,8.0,13.152946437965904,{}
118,295,0.0,25.317977802344327,2.23606797749979,5.0990195135927845,7.071067811865476,7.071067811865476,12.16552506059644,19.4164878389476,14.317821063276352,14.0,12.0,16.0,2.0,5.0,1.0,0.0,2.23606797749979,3.1622776601683795,3.0,12.0,7.0,13.038404810405298,{}
119,296,3.1622776601683795,26.476404589747453,3.0,5.0,8.06225774829855,7.071067811865476,10.44030650891055,21.37755832643195,16.492422502470642,14.5,11.0,16.0,3.5,7.5,1.5,0.5,2.0,2.0,2.0,11.0,7.0,11.04536101718726,{}
120,297,5.0,26.476404589747453,2.23606797749979,5.0990195135927845,7.280109889280518,8.06225774829855,9.219544457292889,21.37755832643195,16.278820596099706,13.5,11.0,16.0,4.5,7.5,1.5,1.5,2.0,3.1622776601683795,3.0,11.0,7.0,10.04987562112089,{}
121,298,5.0,26.68332812825267,2.0,4.123105625617661,8.246211251235321,8.246211251235321,9.219544457292889,20.223748416156685,16.1245154965971,13.5,10.0,16.0,4.0,7.0,1.0,1.0,2.23606797749979,3.1622776601683795,3.0,11.0,7.0,10.0,{}
122,299,4.123105625617661,28.442925306655784,2.0,5.0,9.055385138137416,9.219544457292889,9.219544457292889,20.223748416156685,15.297058540778355,13.0,10.0,15.0,3.5,7.5,1.5,1.5,2.0,2.0,2.0,11.0,7.0,11.04536101718726,{}
123,300,3.1622776601683795,28.635642126552707,2.0,4.123105625617661,7.071067811865476,8.246211251235321,9.219544457292889,18.43908891458577,14.317821063276352,12.5,9.0,15.0,3.0,6.0,1.0,1.0,2.0,2.23606797749979,2.0,11.0,7.0,10.04987562112089,{}
124,301,4.123105625617661,27.29468812791236,1.0,4.0,7.280109889280518,8.246211251235321,10.198039027185567,19.235384061671343,15.297058540778355,13.0,11.0,15.0,3.0,6.0,1.0,1.0,2.0,3.1622776601683795,2.5,12.0,8.0,12.041594578792296,{}
125,302,4.123105625617661,27.29468812791236,2.0,5.0990195135927845,7.280109889280518,8.06225774829855,10.44030650891055,21.587033144922906,16.492422502470642,14.0,12.0,16.0,4.0,7.0,1.0,1.0,2.23606797749979,2.0,2.0,12.0,8.0,11.04536101718726,{}
126,303,4.123105625617661,26.30589287593181,2.0,5.0990195135927845,7.280109889280518,8.06225774829855,10.44030650891055,21.587033144922906,16.492422502470642,14.0,12.0,16.0,4.0,7.0,1.0,1.0,2.0,3.0,3.0,13.0,8.0,13.038404810405298,{}
127,304,4.123105625617661,26.30589287593181,2.0,5.0990195135927845,7.071067811865476,8.06225774829855,11.180339887498947,22.36067977499789,17.26267650163207,15.0,13.0,17.0,4.0,7.0,1.0,2.0,3.1622776601683795,3.0,3.0,12.0,8.0,12.041594578792296,{}
128,305,5.0990195135927845,26.30589287593181,2.0,4.123105625617661,7.071067811865476,8.246211251235321,10.44030650891055,21.587033144922906,17.46424919657298,14.5,12.0,16.0,4.0,7.0,2.0,2.0,3.0,3.1622776601683795,3.0,12.0,8.0,12.16552506059644,{}
129,306,5.0,26.30589287593181,2.23606797749979,4.123105625617661,6.082762530298219,7.280109889280518,10.198039027185567,21.37755832643195,17.26267650163207,14.5,13.0,17.0,5.0,6.0,1.0,2.0,3.0,4.0,4.0,13.0,9.0,13.038404810405298,{}
130,307,5.0990195135927845,26.30589287593181,2.0,4.123105625617661,7.071067811865476,8.06225774829855,10.44030650891055,21.587033144922906,17.46424919657298,14.5,12.0,16.0,4.0,7.0,2.0,2.0,3.0,4.0,3.5,13.0,8.0,14.0356688476182,{}
131,308,4.123105625617661,26.30589287593181,2.0,4.123105625617661,7.280109889280518,8.246211251235321,10.44030650891055,20.615528128088304,16.492422502470642,14.0,12.0,16.0,4.0,6.0,1.0,1.0,3.0,4.0,4.0,12.0,8.0,13.038404810405298,{}
132,309,1.4142135623730951,26.30589287593181,3.0,5.0990195135927845,7.280109889280518,8.06225774829855,10.198039027185567,19.4164878389476,14.317821063276352,13.5,12.0,16.0,4.0,5.0,1.0,0.0,3.0,3.1622776601683795,3.0,12.0,8.0,12.16552506059644,{}
133,310,1.4142135623730951,27.29468812791236,2.0,4.0,7.071067811865476,7.071067811865476,11.180339887498947,18.24828759089466,14.317821063276352,13.5,12.0,16.0,3.0,4.0,1.0,1.0,3.0,3.1622776601683795,3.0,12.0,8.0,12.041594578792296,{}
134,311,0.0,27.16615541441225,2.23606797749979,4.0,7.071067811865476,7.071067811865476,11.04536101718726,17.11724276862369,13.152946437965904,13.0,12.0,15.0,2.5,3.5,1.5,0.5,3.0,3.1622776601683795,3.0,13.0,9.0,13.038404810405298,{}
135,312,1.0,27.16615541441225,2.0,5.0990195135927845,7.0,8.06225774829855,11.180339887498947,19.235384061671343,14.142135623730953,13.5,12.0,15.0,2.5,5.5,0.5,0.5,4.0,3.0,3.0,13.0,9.0,13.038404810405298,{}
136,313,2.0,25.079872407968907,3.1622776601683795,5.0,6.082762530298219,7.071067811865476,10.04987562112089,20.09975124224178,15.132745950421556,14.0,13.0,15.0,4.0,6.0,0.0,1.0,2.0,3.0,3.0,12.0,9.0,12.041594578792296,{}
137,314,2.0,24.08318915758459,2.0,5.0,6.0,6.0,11.180339887498947,20.09975124224178,15.132745950421556,14.0,13.0,15.0,3.0,6.0,1.0,1.0,2.0,3.0,2.5,13.0,11.0,11.0,{}
138,315,1.0,24.0,3.0,5.0,5.0990195135927845,6.0,11.04536101718726,20.024984394500787,15.033296378372908,14.5,15.0,15.0,4.0,5.0,0.0,1.0,1.4142135623730951,2.0,1.5,12.0,12.0,11.04536101718726,{}
139,316,0.0,23.021728866442675,3.0,5.0,7.0,7.0,12.041594578792296,20.024984394500787,15.033296378372908,15.0,16.0,15.0,3.5,4.5,0.5,0.5,1.0,1.0,1.5,11.0,12.0,10.0,{}
140,317,1.0,26.0768096208106,3.0,4.0,6.082762530298219,6.082762530298219,11.04536101718726,18.110770276274835,14.142135623730953,14.0,15.0,13.0,3.0,4.0,1.0,1.0,2.0,1.0,1.5,10.0,13.0,10.04987562112089,{}
141,318,0.0,27.16615541441225,2.0,4.0,6.0,6.082762530298219,12.16552506059644,18.110770276274835,14.142135623730953,14.0,16.0,13.0,2.5,3.5,0.5,0.5,2.23606797749979,2.0,2.0,10.0,14.0,11.04536101718726,{}
142,319,1.0,27.65863337187866,3.1622776601683795,4.123105625617661,6.324555320336759,6.324555320336759,10.198039027185567,18.0,14.0356688476182,13.5,17.0,11.0,4.0,4.0,1.0,2.0,4.123105625617661,4.0,4.0,9.0,14.0,10.198039027185567,{}
143,321,0.0,25.70992026436488,3.0,4.123105625617661,6.082762530298219,6.324555320336759,11.0,18.027756377319943,14.0,14.0,19.0,13.0,5.0,2.0,1.0,3.0,4.123105625617661,4.47213595499958,4.0,7.0,14.0,11.180339887498947,{}
144,322,0.0,27.65863337187866,2.23606797749979,4.123105625617661,6.082762530298219,6.324555320336759,12.0,18.110770276274835,14.0356688476182,14.0,19.0,13.0,4.0,2.0,1.0,2.0,4.0,4.123105625617661,4.0,6.0,14.0,11.04536101718726,{}
145,323,0.0,26.68332812825267,3.1622776601683795,3.1622776601683795,6.082762530298219,6.324555320336759,12.041594578792296,18.24828759089466,15.132745950421556,15.0,19.0,13.0,4.0,2.0,1.0,2.0,4.123105625617661,4.123105625617661,4.0,6.0,15.0,11.40175425099138,{}
146,324,1.0,25.96150997149434,3.0,4.123105625617661,6.082762530298219,6.708203932499369,11.04536101718726,18.24828759089466,14.142135623730953,14.0,19.0,12.0,4.5,2.5,1.5,2.5,4.123105625617661,4.123105625617661,4.0,6.0,16.0,11.40175425099138,{}
147,325,1.0,25.96150997149434,2.23606797749979,4.123105625617661,6.324555320336759,6.708203932499369,12.0,18.24828759089466,14.142135623730953,14.0,19.0,12.0,3.5,2.5,0.5,2.5,4.123105625617661,4.47213595499958,4.0,5.0,16.0,13.601470508735444,{}
148,326,1.0,26.248809496813376,2.0,4.47213595499958,6.324555320336759,6.708203932499369,12.041594578792296,18.43908891458577,14.142135623730953,14.0,19.0,11.0,3.0,3.0,1.0,2.0,4.123105625617661,4.47213595499958,4.0,5.0,16.0,12.649110640673518,{}
149,327,1.4142135623730951,26.570660511172846,2.23606797749979,4.123105625617661,6.324555320336759,7.615773105863909,13.038404810405298,18.43908891458577,14.317821063276352,14.5,20.0,11.0,2.5,2.5,0.5,2.5,3.1622776601683795,4.47213595499958,4.0,4.0,16.0,13.341664064126334,{}
150,328,1.0,27.85677655436824,4.123105625617661,4.47213595499958,7.615773105863909,8.06225774829855,10.04987562112089,18.68154169226941,14.317821063276352,14.0,19.0,9.0,4.0,4.0,1.0,2.0,3.1622776601683795,2.23606797749979,2.5,4.0,16.0,14.560219778561036,{}
151,329,4.123105625617661,28.16025568065745,2.23606797749979,4.123105625617661,7.280109889280518,7.615773105863909,11.0,21.213203435596427,17.11724276862369,15.0,19.0,11.0,4.0,6.0,3.0,3.0,4.123105625617661,4.47213595499958,4.0,6.0,15.0,13.341664064126334,{}
152,330,4.123105625617661,27.202941017470888,2.23606797749979,4.123105625617661,7.280109889280518,8.54400374531753,11.04536101718726,21.37755832643195,17.26267650163207,15.0,19.0,11.0,4.0,6.0,3.0,3.0,4.123105625617661,4.123105625617661,4.0,4.0,18.0,13.92838827718412,{}
153,331,4.0,27.202941017470888,2.23606797749979,3.605551275463989,7.071067811865476,7.280109889280518,12.16552506059644,21.587033144922906,18.24828759089466,16.0,20.0,12.0,4.0,5.0,2.0,3.0,4.47213595499958,3.1622776601683795,3.5,4.0,18.0,16.15549442140351,{}
154,332,4.123105625617661,27.202941017470888,2.23606797749979,3.605551275463989,7.280109889280518,7.280109889280518,12.041594578792296,21.587033144922906,18.24828759089466,16.0,20.0,12.0,4.0,5.0,2.0,3.0,3.605551275463989,3.1622776601683795,3.5,4.0,17.0,13.92838827718412,{}
155,333,3.1622776601683795,26.92582403567252,2.23606797749979,4.47213595499958,7.280109889280518,8.54400374531753,13.152946437965904,22.80350850198276,18.43908891458577,16.5,20.0,13.0,3.5,5.5,2.5,3.5,3.1622776601683795,3.605551275463989,3.0,4.0,18.0,14.866068747318506,{}
156,334,4.123105625617661,28.16025568065745,2.23606797749979,4.123105625617661,7.280109889280518,8.246211251235321,12.16552506059644,22.56102834535696,18.43908891458577,16.0,20.0,12.0,4.0,6.0,2.0,3.0,3.1622776601683795,3.605551275463989,3.5,3.0,17.0,14.866068747318506,{}
157,335,4.123105625617661,28.16025568065745,3.1622776601683795,3.605551275463989,7.280109889280518,8.246211251235321,11.04536101718726,21.587033144922906,18.24828759089466,16.0,20.0,12.0,5.0,5.0,2.0,3.0,3.1622776601683795,3.1622776601683795,3.0,4.0,18.0,14.866068747318506,{}
158,336,4.123105625617661,27.51363298439521,2.23606797749979,3.605551275463989,7.280109889280518,7.615773105863909,13.038404810405298,22.56102834535696,19.235384061671343,17.0,21.0,12.0,3.5,5.5,2.5,3.5,3.1622776601683795,3.1622776601683795,3.5,3.0,17.0,14.866068747318506,{}
159,337,4.123105625617661,27.202941017470888,2.23606797749979,3.1622776601683795,7.280109889280518,8.246211251235321,12.16552506059644,21.587033144922906,18.43908891458577,16.0,20.0,12.0,4.0,5.0,2.0,4.0,3.605551275463989,3.605551275463989,3.0,3.0,17.0,13.92838827718412,{}
160,338,4.123105625617661,27.202941017470888,2.23606797749979,3.605551275463989,7.280109889280518,7.280109889280518,12.16552506059644,21.840329667841555,18.43908891458577,16.0,20.0,12.0,4.0,5.0,2.0,3.0,4.123105625617661,3.605551275463989,3.5,3.0,17.0,13.92838827718412,{}
161,339,4.123105625617661,25.96150997149434,1.4142135623730951,4.47213595499958,7.280109889280518,7.280109889280518,13.038404810405298,22.56102834535696,18.24828759089466,16.0,20.0,13.0,3.5,5.5,2.5,3.5,3.1622776601683795,3.1622776601683795,3.0,4.0,18.0,14.317821063276352,{}
162,340,4.123105625617661,28.16025568065745,2.23606797749979,3.605551275463989,7.071067811865476,7.280109889280518,12.041594578792296,21.587033144922906,18.24828759089466,16.0,19.0,11.0,3.0,6.0,3.0,2.0,2.23606797749979,2.8284271247461903,2.0,5.0,19.0,13.0,{}
163,341,4.123105625617661,27.892651361962702,2.23606797749979,3.605551275463989,8.246211251235321,7.280109889280518,12.041594578792296,21.587033144922906,18.24828759089466,16.0,19.0,12.0,3.5,5.5,2.5,2.5,2.8284271247461903,2.23606797749979,2.0,5.0,19.0,13.92838827718412,{}
164,342,3.605551275463989,27.202941017470888,1.0,3.1622776601683795,7.280109889280518,8.246211251235321,12.16552506059644,19.6468827043885,16.492422502470642,14.5,19.0,11.0,3.0,4.0,1.0,3.0,1.4142135623730951,2.23606797749979,1.0,4.0,18.0,13.0,{}
165,343,3.1622776601683795,25.6320112359526,2.23606797749979,3.1622776601683795,7.280109889280518,8.246211251235321,11.04536101718726,19.4164878389476,16.278820596099706,14.5,20.0,11.0,4.5,3.5,0.5,3.5,2.23606797749979,1.4142135623730951,1.0,3.0,18.0,12.529964086141668,{}
166,344,1.4142135623730951,25.6320112359526,2.0,5.385164807134504,7.615773105863909,7.615773105863909,12.16552506059644,20.615528128088304,15.297058540778355,14.5,20.0,11.0,3.5,4.5,0.5,3.5,1.4142135623730951,1.4142135623730951,1.0,2.0,17.0,13.41640786499874,{}
167,345,1.4142135623730951,25.079872407968907,2.23606797749979,5.385164807134504,7.280109889280518,7.615773105863909,11.04536101718726,19.6468827043885,14.317821063276352,13.5,20.0,10.0,4.0,4.0,0.0,3.0,2.23606797749979,1.4142135623730951,1.0,1.0,15.0,12.083045973594572,{}
168,346,1.4142135623730951,23.259406699226016,2.23606797749979,4.47213595499958,7.615773105863909,8.06225774829855,11.04536101718726,18.68154169226941,14.317821063276352,13.5,20.0,10.0,4.0,3.0,0.0,4.0,2.23606797749979,1.4142135623730951,1.5,2.0,15.0,10.295630140987,{}
169,347,1.0,23.769728648009423,2.23606797749979,5.0990195135927845,6.708203932499369,7.615773105863909,11.180339887498947,18.68154169226941,13.601470508735444,13.0,19.0,10.0,3.5,3.5,0.5,3.5,1.4142135623730951,2.23606797749979,1.5,1.0,14.0,11.180339887498947,{}
170,348,1.0,25.079872407968907,2.23606797749979,5.0990195135927845,7.615773105863909,7.615773105863909,11.04536101718726,18.43908891458577,13.341664064126334,13.0,20.0,10.0,4.0,3.0,1.0,4.0,2.23606797749979,2.23606797749979,1.5,2.0,15.0,12.083045973594572,{}
171,349,1.4142135623730951,25.495097567963924,2.23606797749979,4.123105625617661,7.280109889280518,7.615773105863909,11.180339887498947,18.68154169226941,14.560219778561036,13.5,21.0,10.0,4.5,2.5,0.5,3.5,2.23606797749979,1.4142135623730951,1.5,2.0,15.0,12.083045973594572,{}
172,350,1.0,25.079872407968907,2.23606797749979,5.385164807134504,7.280109889280518,8.94427190999916,11.04536101718726,18.68154169226941,13.341664064126334,13.0,20.0,10.0,4.0,3.0,0.0,3.0,2.23606797749979,2.23606797749979,2.0,1.0,15.0,11.180339887498947,{}
173,351,1.0,26.0,2.23606797749979,5.385164807134504,7.280109889280518,8.94427190999916,11.04536101718726,18.68154169226941,13.341664064126334,13.0,20.0,10.0,4.0,3.0,1.0,3.0,2.23606797749979,2.23606797749979,2.0,2.0,15.0,12.529964086141668,{}
174,352,1.0,23.769728648009423,1.4142135623730951,5.0990195135927845,7.615773105863909,7.615773105863909,12.041594578792296,18.43908891458577,13.341664064126334,13.0,19.0,10.0,2.5,3.5,0.5,3.5,2.23606797749979,2.23606797749979,2.0,1.0,14.0,11.180339887498947,{}
175,353,1.0,25.079872407968907,2.23606797749979,5.385164807134504,7.615773105863909,7.615773105863909,11.04536101718726,18.68154169226941,13.341664064126334,13.0,20.0,10.0,4.0,3.0,1.0,4.0,2.23606797749979,2.23606797749979,2.0,1.0,15.0,12.083045973594572,{}
176,354,1.4142135623730951,25.079872407968907,2.23606797749979,5.385164807134504,8.54400374531753,7.615773105863909,11.04536101718726,19.6468827043885,14.317821063276352,13.5,20.0,10.0,4.0,4.0,0.0,4.0,2.8284271247461903,1.4142135623730951,1.0,1.0,14.0,11.180339887498947,{}
177,355,1.4142135623730951,24.166091947189145,1.4142135623730951,5.0990195135927845,8.246211251235321,8.06225774829855,12.041594578792296,19.4164878389476,14.317821063276352,13.5,20.0,10.0,3.0,4.0,0.0,3.0,1.4142135623730951,2.23606797749979,2.0,1.0,14.0,10.295630140987,{}
178,356,1.4142135623730951,25.079872407968907,2.0,5.385164807134504,7.615773105863909,7.615773105863909,12.041594578792296,20.39607805437113,15.132745950421556,14.5,20.0,10.0,3.0,5.0,1.0,3.0,1.4142135623730951,2.23606797749979,2.0,1.0,14.0,10.295630140987,{}
179,357,1.4142135623730951,23.769728648009423,2.23606797749979,5.0990195135927845,7.615773105863909,8.54400374531753,12.041594578792296,20.39607805437113,15.297058540778355,14.5,20.0,11.0,3.5,4.5,0.5,3.5,1.4142135623730951,2.23606797749979,2.0,1.0,14.0,11.180339887498947,{}
180,358,1.4142135623730951,24.35159132377184,2.23606797749979,5.0990195135927845,7.280109889280518,7.615773105863909,11.04536101718726,19.4164878389476,14.317821063276352,13.5,18.0,10.0,3.0,5.0,1.0,2.0,1.4142135623730951,1.4142135623730951,1.5,1.0,14.0,11.180339887498947,{}
181,359,3.1622776601683795,25.96150997149434,2.23606797749979,5.0990195135927845,7.280109889280518,7.615773105863909,11.04536101718726,21.37755832643195,16.278820596099706,14.5,17.0,10.0,2.5,7.5,3.5,2.5,1.4142135623730951,2.23606797749979,2.0,3.0,15.0,10.770329614269007,{}
182,360,1.4142135623730951,25.96150997149434,2.23606797749979,5.0990195135927845,7.615773105863909,7.615773105863909,11.0,19.235384061671343,14.142135623730953,13.5,17.0,10.0,2.5,5.5,1.5,2.5,1.4142135623730951,2.0,2.0,3.0,14.0,12.083045973594572,{}
183,361,1.0,25.0,2.23606797749979,4.123105625617661,8.246211251235321,8.246211251235321,11.0,18.110770276274835,14.0356688476182,13.5,17.0,10.0,2.5,4.5,1.5,1.5,1.4142135623730951,1.4142135623730951,1.5,4.0,14.0,9.848857801796104,{}
184,362,1.4142135623730951,25.495097567963924,3.0,4.123105625617661,8.06225774829855,7.280109889280518,10.0,18.110770276274835,14.0356688476182,13.5,16.0,11.0,3.5,4.5,0.5,1.5,1.4142135623730951,2.0,1.5,5.0,13.0,8.54400374531753,{}
185,363,1.0,25.495097567963924,2.0,5.0990195135927845,7.071067811865476,8.06225774829855,11.0,19.026297590440446,14.0,13.5,17.0,12.0,3.5,4.5,0.5,2.5,1.4142135623730951,2.0,2.0,7.0,12.0,8.06225774829855,{}
186,364,1.0,25.079872407968907,3.1622776601683795,6.0,7.071067811865476,8.06225774829855,10.04987562112089,20.0,14.0,13.5,15.0,13.0,4.0,6.0,0.0,2.0,2.0,2.0,2.0,9.0,11.0,12.16552506059644,{}
187,365,4.0,26.0,3.0,5.0,7.071067811865476,7.0,10.0,22.0,17.0,15.0,15.0,15.0,5.0,7.0,2.0,3.0,3.0,3.0,3.0,10.0,10.0,12.041594578792296,{}
188,366,5.0,25.019992006393608,2.0,6.0,8.0,8.0,11.180339887498947,24.08318915758459,18.110770276274835,15.5,16.0,17.0,5.5,7.5,1.5,3.5,2.0,3.0,3.0,11.0,10.0,14.0,{}
189,367,3.0,25.079872407968907,3.0,5.0,6.082762530298219,7.071067811865476,12.16552506059644,23.08679276123039,18.110770276274835,16.5,16.0,18.0,5.0,6.0,1.0,2.0,3.0,3.1622776601683795,3.0,12.0,9.0,13.0,{}
190,368,1.0,26.1725046566048,2.0,4.123105625617661,7.071067811865476,7.071067811865476,13.152946437965904,20.223748416156685,16.1245154965971,15.5,16.0,19.0,4.5,2.5,2.5,2.5,3.0,4.123105625617661,4.0,11.0,7.0,12.041594578792296,{}
191,369,1.0,26.30589287593181,2.0,4.123105625617661,7.071067811865476,7.280109889280518,14.142135623730953,21.213203435596427,17.11724276862369,16.5,16.0,20.0,4.0,3.0,2.0,2.0,3.0,4.123105625617661,3.5,12.0,6.0,13.038404810405298,{}
192,370,3.1622776601683795,24.33105012119288,3.0,6.082762530298219,6.082762530298219,7.071067811865476,12.041594578792296,24.186773244895647,18.110770276274835,16.5,16.0,20.0,6.0,6.0,1.0,3.0,3.0,4.0,3.5,12.0,6.0,13.152946437965904,{}
193,371,5.0,23.345235059857504,2.23606797749979,6.082762530298219,6.324555320336759,7.071067811865476,12.041594578792296,25.179356624028344,19.1049731745428,16.5,16.0,20.0,6.0,7.0,0.0,3.0,2.0,4.123105625617661,3.5,13.0,6.0,12.16552506059644,{}
194,372,4.123105625617661,23.53720459187964,3.1622776601683795,5.0990195135927845,6.082762530298219,6.324555320336759,12.041594578792296,24.33105012119288,19.235384061671343,17.0,16.0,21.0,6.5,5.5,0.5,3.5,3.1622776601683795,4.123105625617661,3.5,15.0,6.0,11.40175425099138,{}
195,373,5.0,22.56102834535696,2.23606797749979,6.082762530298219,6.082762530298219,6.324555320336759,11.180339887498947,24.33105012119288,18.24828759089466,15.5,14.0,19.0,5.5,7.5,0.5,2.5,3.1622776601683795,3.1622776601683795,3.0,15.0,6.0,12.36931687685298,{}
196,374,4.123105625617661,22.13594362117865,3.1622776601683795,6.082762530298219,5.385164807134504,6.324555320336759,10.198039027185567,23.53720459187964,17.46424919657298,15.0,12.0,19.0,5.5,7.5,0.5,1.5,3.1622776601683795,3.1622776601683795,3.0,16.0,6.0,12.36931687685298,{}
197,375,4.123105625617661,21.840329667841555,2.23606797749979,5.0990195135927845,5.0990195135927845,6.324555320336759,11.40175425099138,22.80350850198276,17.72004514666935,15.0,13.0,19.0,5.0,6.0,0.0,2.0,2.23606797749979,3.605551275463989,2.5,16.0,5.0,10.770329614269007,{}
198,376,2.0,22.13594362117865,3.605551275463989,6.324555320336759,5.385164807134504,6.324555320336759,11.180339887498947,22.80350850198276,16.492422502470642,15.0,12.0,19.0,4.5,6.5,0.5,1.5,3.605551275463989,3.1622776601683795,3.5,16.0,5.0,9.486832980505138,{}
199,377,3.1622776601683795,22.47220505424423,2.8284271247461903,6.324555320336759,5.385164807134504,6.324555320336759,11.40175425099138,23.40939982143925,17.08800749063506,14.5,11.0,19.0,4.0,7.0,0.0,1.0,3.1622776601683795,3.605551275463989,3.0,17.0,5.0,10.770329614269007,{}
200,378,3.1622776601683795,23.40939982143925,3.1622776601683795,5.385164807134504,5.385164807134504,6.324555320336759,11.40175425099138,23.08679276123039,17.72004514666935,15.5,11.0,19.0,4.0,7.0,1.0,0.0,3.605551275463989,3.1622776601683795,3.0,17.0,5.0,11.704699910719626,{}
201,379,3.1622776601683795,23.08679276123039,2.23606797749979,5.385164807134504,5.385164807134504,6.324555320336759,11.40175425099138,22.13594362117865,16.76305461424021,14.5,10.0,17.0,2.5,7.5,1.5,0.5,3.605551275463989,3.605551275463989,3.0,17.0,4.0,12.083045973594572,{}
202,380,3.1622776601683795,24.35159132377184,2.8284271247461903,5.385164807134504,6.324555320336759,6.708203932499369,10.44030650891055,21.54065922853801,16.15549442140351,13.5,9.0,17.0,3.0,7.0,1.0,0.0,3.1622776601683795,3.1622776601683795,3.0,17.0,5.0,11.40175425099138,{}
203,381,3.1622776601683795,25.6320112359526,2.23606797749979,5.385164807134504,6.324555320336759,6.708203932499369,10.44030650891055,21.18962010041709,15.811388300841896,13.5,8.0,17.0,2.5,7.5,1.5,0.5,3.1622776601683795,3.1622776601683795,3.0,17.0,5.0,10.770329614269007,{}
204,382,3.1622776601683795,26.570660511172846,2.23606797749979,5.385164807134504,7.280109889280518,7.280109889280518,11.704699910719626,22.47220505424423,17.08800749063506,14.5,8.0,17.0,1.5,8.5,1.5,0.5,3.605551275463989,3.1622776601683795,3.0,17.0,4.0,10.770329614269007,{}
205,383,3.605551275463989,26.570660511172846,2.23606797749979,5.0990195135927845,6.324555320336759,7.615773105863909,11.40175425099138,22.13594362117865,17.08800749063506,14.5,8.0,17.0,1.5,8.5,2.5,1.5,3.1622776601683795,3.605551275463989,2.5,18.0,5.0,10.770329614269007,{}
206,384,3.1622776601683795,26.248809496813376,2.23606797749979,5.385164807134504,5.385164807134504,7.615773105863909,11.704699910719626,22.47220505424423,17.08800749063506,14.5,9.0,17.0,2.0,8.0,1.0,1.0,3.1622776601683795,3.1622776601683795,3.5,17.0,5.0,12.649110640673518,{}
207,385,2.23606797749979,26.570660511172846,2.23606797749979,5.0990195135927845,6.324555320336759,7.615773105863909,10.770329614269007,20.248456731316587,15.231546211727816,13.0,7.0,16.0,1.5,7.5,1.5,1.5,3.1622776601683795,3.1622776601683795,3.5,17.0,5.0,11.704699910719626,{}
208,386,1.4142135623730951,25.29822128134704,3.0,5.385164807134504,7.280109889280518,7.280109889280518,10.770329614269007,20.248456731316587,14.866068747318506,13.5,9.0,17.0,3.0,6.0,0.0,0.0,3.1622776601683795,4.123105625617661,3.5,17.0,5.0,10.44030650891055,{}
209,387,1.4142135623730951,25.96150997149434,2.23606797749979,5.385164807134504,6.324555320336759,7.280109889280518,10.44030650891055,19.313207915827967,13.92838827718412,12.5,9.0,16.0,2.5,5.5,0.5,0.5,3.1622776601683795,3.1622776601683795,3.5,16.0,6.0,11.704699910719626,{}
210,388,2.23606797749979,28.16025568065745,1.4142135623730951,4.123105625617661,6.324555320336759,7.280109889280518,11.40175425099138,18.97366596101028,14.866068747318506,13.0,8.0,16.0,1.0,6.0,0.0,1.0,3.1622776601683795,3.605551275463989,3.0,15.0,5.0,11.40175425099138,{}
211,389,1.4142135623730951,28.16025568065745,2.23606797749979,5.0990195135927845,6.324555320336759,7.280109889280518,10.44030650891055,18.97366596101028,13.92838827718412,12.5,8.0,16.0,2.0,6.0,0.0,1.0,3.1622776601683795,3.1622776601683795,3.5,15.0,6.0,12.36931687685298,{}
212,390,1.4142135623730951,27.65863337187866,2.0,5.0990195135927845,7.280109889280518,7.280109889280518,11.40175425099138,19.6468827043885,14.560219778561036,13.5,10.0,16.0,2.0,6.0,0.0,1.0,3.1622776601683795,4.123105625617661,3.5,15.0,6.0,12.36931687685298,{}
213,391,2.23606797749979,28.861739379323623,1.4142135623730951,5.0990195135927845,7.280109889280518,7.280109889280518,11.40175425099138,19.92485884517128,14.866068747318506,13.0,9.0,16.0,1.5,6.5,0.5,0.5,1.4142135623730951,2.23606797749979,2.0,14.0,7.0,11.180339887498947,{}
214,392,3.1622776601683795,27.65863337187866,2.23606797749979,5.0990195135927845,8.246211251235321,9.219544457292889,10.04987562112089,20.39607805437113,15.297058540778355,13.5,11.0,17.0,4.0,6.0,1.0,1.0,1.0,2.23606797749979,1.5,14.0,7.0,11.180339887498947,{}
215,393,3.1622776601683795,26.476404589747453,2.0,5.0990195135927845,7.280109889280518,7.071067811865476,10.198039027185567,20.39607805437113,15.297058540778355,13.5,12.0,17.0,4.5,5.5,0.5,1.5,3.0,3.0,3.0,12.0,7.0,13.038404810405298,{}
216,394,1.0,26.30589287593181,2.23606797749979,5.0990195135927845,7.071067811865476,7.071067811865476,12.041594578792296,20.223748416156685,15.132745950421556,14.5,13.0,17.0,3.0,5.0,1.0,1.0,3.1622776601683795,4.0,4.0,13.0,8.0,14.0356688476182,{}
217,395,1.0,25.179356624028344,2.0,5.0990195135927845,7.071067811865476,7.071067811865476,12.041594578792296,20.09975124224178,15.033296378372908,14.5,14.0,17.0,3.5,4.5,1.5,1.5,4.0,5.0,4.5,11.0,8.0,14.0356688476182,{}
218,396,2.0,26.0768096208106,2.0,5.0990195135927845,6.0,7.071067811865476,11.0,20.024984394500787,15.0,14.0,13.0,15.0,3.0,6.0,1.0,1.0,4.0,4.0,4.0,11.0,9.0,14.0,{}
219,397,4.0,29.017236257093817,2.0,5.0,7.0,8.0,11.04536101718726,22.02271554554524,17.029386365926403,15.0,15.0,16.0,4.5,6.5,0.5,2.5,4.0,4.0,4.0,11.0,10.0,13.038404810405298,{}
220,398,4.0,28.0713376952364,2.0,5.0,7.071067811865476,7.071067811865476,11.0,22.0,17.0,15.0,15.0,17.0,5.0,6.0,1.0,3.0,4.0,4.0,4.0,10.0,10.0,14.0356688476182,{}
221,399,5.0,28.0178514522438,1.0,4.123105625617661,6.082762530298219,7.0,11.04536101718726,21.0,17.029386365926403,14.5,15.0,16.0,4.5,5.5,0.5,2.5,4.0,4.0,4.0,10.0,10.0,13.038404810405298,{}
222,400,5.0,28.0,2.23606797749979,4.123105625617661,7.0,7.0,10.04987562112089,21.02379604162864,17.11724276862369,14.5,16.0,16.0,6.0,5.0,1.0,4.0,4.0,4.0,4.0,11.0,12.0,12.041594578792296,{}
223,401,4.0,29.017236257093817,2.0,5.0,7.0,8.06225774829855,11.04536101718726,22.02271554554524,17.029386365926403,15.0,15.0,16.0,4.5,6.5,1.5,2.5,4.0,4.0,4.0,10.0,11.0,14.0356688476182,{}
224,402,4.0,28.0178514522438,2.0,4.123105625617661,6.082762530298219,7.0,11.04536101718726,21.0,17.029386365926403,15.0,15.0,16.0,4.5,5.5,0.5,2.5,4.0,4.0,4.0,10.0,11.0,13.0,{}
225,403,5.0,29.017236257093817,2.0,5.0,7.0,7.071067811865476,10.0,22.0,17.0,14.5,14.0,15.0,4.5,7.5,2.5,2.5,4.123105625617661,5.0,4.5,10.0,10.0,13.038404810405298,{}
226,404,5.0,29.017236257093817,1.0,4.0,7.071067811865476,7.071067811865476,11.04536101718726,21.02379604162864,17.029386365926403,14.5,15.0,16.0,4.5,5.5,0.5,2.5,4.0,4.0,4.0,11.0,12.0,12.041594578792296,{}
227,405,4.0,28.0,1.0,5.0,6.0,7.071067811865476,11.04536101718726,21.02379604162864,16.0312195418814,14.0,15.0,15.0,4.0,6.0,1.0,3.0,4.0,4.123105625617661,4.0,10.0,11.0,12.041594578792296,{}
228,406,2.23606797749979,26.019223662515376,3.0,5.0,6.0,7.071067811865476,11.04536101718726,21.0,16.0,15.0,15.0,16.0,4.5,5.5,0.5,1.5,4.0,4.0,4.0,10.0,11.0,12.041594578792296,{}
229,407,1.0,25.0,2.23606797749979,5.0,6.082762530298219,7.0,12.0,20.024984394500787,15.033296378372908,14.5,15.0,15.0,3.0,5.0,1.0,2.0,4.0,5.0,5.0,10.0,11.0,13.038404810405298,{}
230,408,3.0,26.019223662515376,4.0,5.0990195135927845,7.0,7.0,8.06225774829855,20.0,15.033296378372908,13.5,14.0,15.0,6.5,5.5,0.5,3.5,4.0,5.0,4.5,10.0,13.0,12.16552506059644,{}
231,409,1.0,24.020824298928627,3.1622776601683795,4.0,7.0,7.0,12.041594578792296,19.026297590440446,15.033296378372908,15.0,16.0,15.0,3.5,3.5,0.5,1.5,4.0,4.123105625617661,4.0,9.0,12.0,13.152946437965904,{}
232,410,1.0,25.0,3.0,4.0,6.0,6.0,11.04536101718726,19.026297590440446,15.033296378372908,14.5,15.0,15.0,4.0,4.0,1.0,2.0,3.0,4.0,4.0,9.0,12.0,12.041594578792296,{}
233,411,2.0,27.018512172212592,2.0,4.0,7.071067811865476,7.0,11.180339887498947,19.1049731745428,15.132745950421556,14.0,15.0,14.0,3.5,4.5,0.5,2.5,3.0,3.0,3.0,8.0,12.0,13.152946437965904,{}
234,412,3.0,29.068883707497267,1.0,4.0,8.06225774829855,8.06225774829855,11.04536101718726,19.026297590440446,15.033296378372908,13.5,16.0,14.0,4.0,4.0,0.0,3.0,3.0,3.1622776601683795,3.0,8.0,13.0,12.16552506059644,{}
235,413,3.0,29.017236257093817,1.0,4.123105625617661,7.0,7.0,11.04536101718726,19.1049731745428,15.033296378372908,13.5,15.0,14.0,3.5,4.5,0.5,2.5,3.1622776601683795,3.0,3.0,7.0,11.0,14.142135623730953,{}
236,414,2.0,28.0178514522438,2.0,4.123105625617661,7.0,7.0,11.0,19.026297590440446,15.0,14.0,15.0,14.0,3.5,4.5,0.5,2.5,2.0,3.1622776601683795,3.0,8.0,11.0,13.152946437965904,{}
237,415,5.0990195135927845,29.0,1.4142135623730951,4.123105625617661,7.0,8.06225774829855,11.04536101718726,21.0,17.029386365926403,14.5,15.0,15.0,4.0,6.0,1.0,3.0,2.0,3.0,3.0,8.0,11.0,12.041594578792296,{}
238,416,6.0,29.017236257093817,2.0,4.0,8.06225774829855,9.0,10.04987562112089,22.02271554554524,18.027756377319943,15.0,14.0,15.0,4.5,7.5,3.5,2.5,2.0,2.0,2.5,10.0,10.0,14.0356688476182,{}
239,417,4.0,31.016124838541646,2.0,4.0,9.055385138137416,9.055385138137416,10.04987562112089,20.024984394500787,16.0312195418814,14.0,13.0,14.0,3.5,6.5,1.5,1.5,3.0,3.0,3.0,10.0,10.0,14.0,{}
240,418,4.0,30.066592756745816,2.0,4.123105625617661,8.06225774829855,9.0,10.04987562112089,20.09975124224178,16.0312195418814,14.0,13.0,15.0,4.0,6.0,1.0,2.0,3.0,3.0,3.0,11.0,9.0,14.0,{}
241,419,4.0,29.154759474226505,1.0,4.123105625617661,7.071067811865476,8.06225774829855,11.180339887498947,20.223748416156685,16.1245154965971,14.0,12.0,15.0,2.5,6.5,1.5,1.5,3.1622776601683795,3.0,3.0,12.0,9.0,14.0356688476182,{}
242,420,4.0,29.27456233660889,2.23606797749979,4.123105625617661,7.071067811865476,8.06225774829855,10.198039027185567,20.39607805437113,16.278820596099706,14.0,12.0,16.0,4.0,6.0,1.0,2.0,2.0,3.0,3.0,12.0,8.0,13.0,{}
243,421,4.123105625617661,29.27456233660889,1.0,4.0,7.280109889280518,7.280109889280518,11.180339887498947,20.223748416156685,16.278820596099706,14.0,12.0,16.0,3.0,6.0,2.0,1.0,3.1622776601683795,4.0,3.5,13.0,8.0,13.152946437965904,{}
244,422,4.123105625617661,28.442925306655784,2.0,4.123105625617661,7.280109889280518,7.071067811865476,10.44030650891055,20.615528128088304,16.492422502470642,14.0,11.0,16.0,3.5,6.5,1.5,0.5,3.1622776601683795,4.123105625617661,3.5,14.0,9.0,12.16552506059644,{}
245,423,3.1622776601683795,28.442925306655784,2.0,4.123105625617661,7.280109889280518,8.246211251235321,10.44030650891055,19.6468827043885,15.524174696260024,13.5,10.0,15.0,2.5,6.5,1.5,0.5,2.23606797749979,2.23606797749979,2.0,14.0,7.0,13.152946437965904,{}
246,424,4.123105625617661,26.68332812825267,2.23606797749979,4.123105625617661,7.280109889280518,7.280109889280518,10.198039027185567,20.615528128088304,16.492422502470642,14.0,10.0,16.0,3.0,7.0,1.0,1.0,3.1622776601683795,3.1622776601683795,3.0,14.0,7.0,12.16552506059644,{}
247,425,4.0,28.861739379323623,1.4142135623730951,4.47213595499958,7.280109889280518,8.246211251235321,10.44030650891055,19.92485884517128,15.524174696260024,13.0,9.0,16.0,2.5,6.5,1.5,0.5,3.0,3.1622776601683795,3.0,15.0,7.0,12.36931687685298,{}
248,426,4.0,26.92582403567252,2.23606797749979,3.605551275463989,7.280109889280518,8.246211251235321,10.44030650891055,19.92485884517128,16.492422502470642,14.0,9.0,16.0,2.5,6.5,1.5,0.5,3.1622776601683795,3.1622776601683795,3.0,15.0,6.0,12.36931687685298,{}
249,427,4.123105625617661,26.92582403567252,2.0,3.605551275463989,7.280109889280518,7.280109889280518,10.44030650891055,19.92485884517128,16.492422502470642,14.0,10.0,17.0,3.5,5.5,0.5,0.5,3.0,3.1622776601683795,3.0,16.0,7.0,10.198039027185567,{}
250,428,2.23606797749979,24.73863375370596,3.1622776601683795,5.0990195135927845,6.324555320336759,6.324555320336759,10.44030650891055,20.8806130178211,15.811388300841896,14.0,10.0,16.0,3.0,7.0,1.0,1.0,3.0,3.0,3.0,16.0,8.0,11.180339887498947,{}
251,429,2.0,24.73863375370596,2.23606797749979,5.385164807134504,6.324555320336759,6.324555320336759,11.40175425099138,20.8806130178211,15.524174696260024,14.0,11.0,17.0,3.0,6.0,1.0,0.0,3.1622776601683795,3.1622776601683795,3.0,15.0,7.0,11.40175425099138,{}
252,430,2.0,23.769728648009423,2.23606797749979,5.385164807134504,6.324555320336759,6.324555320336759,10.198039027185567,19.6468827043885,14.317821063276352,13.0,10.0,16.0,3.0,6.0,0.0,0.0,3.1622776601683795,3.0,3.0,15.0,8.0,11.40175425099138,{}
253,431,1.0,24.73863375370596,2.23606797749979,5.0990195135927845,6.324555320336759,7.280109889280518,11.40175425099138,19.6468827043885,14.560219778561036,13.5,11.0,17.0,3.0,5.0,1.0,0.0,2.23606797749979,3.1622776601683795,3.0,15.0,7.0,11.180339887498947,{}
254,432,2.0,24.73863375370596,2.23606797749979,5.0990195135927845,7.280109889280518,7.280109889280518,10.198039027185567,19.4164878389476,14.317821063276352,13.0,10.0,16.0,3.0,6.0,1.0,0.0,2.23606797749979,3.1622776601683795,2.5,15.0,8.0,12.16552506059644,{}
255,433,1.4142135623730951,25.495097567963924,2.0,5.0,7.071067811865476,7.280109889280518,11.40175425099138,19.4164878389476,14.560219778561036,13.5,11.0,16.0,2.5,5.5,0.5,0.5,2.23606797749979,3.1622776601683795,3.0,14.0,8.0,12.16552506059644,{}
256,434,1.4142135623730951,26.30589287593181,2.0,6.082762530298219,7.280109889280518,7.071067811865476,10.198039027185567,19.4164878389476,13.341664064126334,12.5,11.0,15.0,3.0,6.0,1.0,0.0,3.0,2.23606797749979,2.5,13.0,7.0,12.041594578792296,{}
257,435,2.23606797749979,25.317977802344327,2.0,6.082762530298219,7.071067811865476,8.06225774829855,10.198039027185567,20.39607805437113,14.317821063276352,13.0,12.0,16.0,4.0,6.0,1.0,1.0,2.23606797749979,3.0,3.0,13.0,8.0,12.041594578792296,{}
258,436,1.4142135623730951,24.33105012119288,3.0,6.082762530298219,7.071067811865476,7.280109889280518,11.180339887498947,21.37755832643195,15.297058540778355,14.5,13.0,17.0,4.0,6.0,0.0,1.0,3.1622776601683795,3.1622776601683795,3.0,13.0,9.0,12.041594578792296,{}
259,437,3.1622776601683795,25.179356624028344,2.0,6.082762530298219,7.071067811865476,7.071067811865476,12.16552506059644,23.345235059857504,17.26267650163207,15.5,15.0,18.0,4.5,6.5,0.5,1.5,2.0,3.1622776601683795,3.0,13.0,9.0,12.041594578792296,{}
260,438,2.0,26.1725046566048,3.0,6.082762530298219,7.071067811865476,8.246211251235321,11.180339887498947,22.20360331117452,16.1245154965971,15.0,15.0,18.0,5.5,5.5,1.5,2.5,2.23606797749979,3.1622776601683795,3.0,12.0,9.0,12.0,{}
261,439,3.0,27.29468812791236,2.23606797749979,5.0,8.06225774829855,8.06225774829855,12.041594578792296,22.09072203437452,17.11724276862369,15.5,13.0,17.0,3.0,7.0,1.0,1.0,3.0,3.0,2.5,12.0,9.0,13.0,{}
262,440,5.0,28.16025568065745,2.23606797749979,4.123105625617661,7.071067811865476,9.055385138137416,11.04536101718726,22.20360331117452,18.110770276274835,15.5,13.0,16.0,3.5,7.5,2.5,1.5,2.0,3.1622776601683795,3.0,12.0,9.0,13.0,{}
263,441,6.0,31.14482300479488,2.23606797749979,4.0,9.0,9.0,11.0,23.021728866442675,19.026297590440446,16.0,13.0,16.0,3.5,8.5,3.5,2.5,2.0,2.0,2.5,11.0,9.0,13.038404810405298,{}
264,442,4.0,30.066592756745816,2.23606797749979,4.0,8.0,9.0,11.04536101718726,21.095023109728988,17.11724276862369,15.0,13.0,15.0,3.0,7.0,2.0,1.0,2.0,3.0,2.5,11.0,9.0,13.038404810405298,{}
265,443,5.0990195135927845,31.064449134018133,2.0,4.0,9.0,8.06225774829855,12.0,23.021728866442675,19.026297590440446,16.5,14.0,16.0,3.0,8.0,3.0,2.0,2.0,3.0,3.0,10.0,10.0,12.041594578792296,{}
266,444,4.0,31.064449134018133,2.0,4.123105625617661,8.0,9.0,11.04536101718726,21.095023109728988,17.029386365926403,15.0,13.0,15.0,3.0,7.0,2.0,1.0,3.1622776601683795,3.0,2.5,10.0,10.0,13.038404810405298,{}
267,445,2.0,30.066592756745816,2.0,4.123105625617661,8.06225774829855,9.055385138137416,11.04536101718726,19.1049731745428,15.033296378372908,14.0,13.0,15.0,3.0,5.0,0.0,1.0,3.1622776601683795,3.0,3.0,10.0,10.0,13.038404810405298,{}
268,446,2.0,27.073972741361768,3.0,5.0,7.071067811865476,8.06225774829855,10.04987562112089,20.024984394500787,15.033296378372908,14.0,13.0,15.0,4.0,6.0,0.0,1.0,2.0,3.0,3.0,10.0,10.0,14.0356688476182,{}
269,447,2.0,27.018512172212592,2.0,5.0,7.071067811865476,8.0,11.04536101718726,20.024984394500787,15.033296378372908,14.0,14.0,15.0,3.5,5.5,0.5,1.5,2.0,3.0,3.0,10.0,10.0,15.033296378372908,{}
270,448,2.0,27.018512172212592,2.0,5.0,8.0,8.0,11.04536101718726,20.024984394500787,15.033296378372908,14.0,14.0,15.0,3.5,5.5,0.5,1.5,3.0,3.0,3.0,11.0,11.0,14.142135623730953,{}
271,449,4.0,29.017236257093817,3.0,5.0,8.0,8.0,10.04987562112089,22.02271554554524,17.029386365926403,15.0,14.0,15.0,4.5,7.5,1.5,2.5,3.0,3.0,3.0,13.0,13.0,15.0,{}
272,450,5.0,29.017236257093817,1.0,6.0,8.0,8.0,11.04536101718726,23.021728866442675,17.029386365926403,14.5,14.0,15.0,3.5,8.5,2.5,2.5,3.0,3.0,3.0,13.0,13.0,14.0,{}
273,451,6.0,31.064449134018133,2.0,6.0,9.0,9.0,11.04536101718726,25.019992006393608,19.026297590440446,16.0,14.0,16.0,4.0,10.0,3.0,2.0,3.0,3.0,3.5,14.0,13.0,15.0,{}
274,452,4.123105625617661,30.066592756745816,2.0,5.0,7.071067811865476,8.06225774829855,11.04536101718726,22.09072203437452,17.11724276862369,15.0,14.0,16.0,4.0,7.0,1.0,2.0,3.0,4.0,3.5,13.0,12.0,13.0,{}
275,453,5.0,32.0624390837628,2.0,3.0,8.06225774829855,9.0,10.198039027185567,20.09975124224178,17.11724276862369,14.5,13.0,15.0,4.0,6.0,2.0,2.0,3.0,3.0,3.0,12.0,10.0,14.0,{}
276,454,5.0990195135927845,31.14482300479488,1.0,5.0,7.071067811865476,8.06225774829855,11.180339887498947,22.20360331117452,17.26267650163207,14.5,12.0,15.0,2.5,8.5,2.5,0.5,3.0,3.0,2.5,14.0,11.0,15.0,{}
277,455,7.071067811865476,30.14962686336267,2.0,5.0990195135927845,9.055385138137416,9.055385138137416,10.198039027185567,24.33105012119288,19.235384061671343,15.5,12.0,15.0,3.5,10.5,4.5,1.5,2.0,2.0,2.0,13.0,10.0,13.038404810405298,{}
278,456,7.071067811865476,29.27456233660889,2.23606797749979,6.0,8.06225774829855,9.219544457292889,10.198039027185567,25.317977802344327,19.4164878389476,15.5,12.0,16.0,4.0,11.0,4.0,2.0,3.0,3.0,3.0,13.0,10.0,13.038404810405298,{}
279,457,6.082762530298219,29.154759474226505,3.0,4.0,8.246211251235321,9.219544457292889,10.198039027185567,23.194827009486403,19.235384061671343,16.0,13.0,16.0,4.5,8.5,3.5,1.5,2.0,3.1622776601683795,3.0,14.0,10.0,12.16552506059644,{}
280,458,7.071067811865476,28.16025568065745,2.0,4.123105625617661,7.071067811865476,8.06225774829855,10.44030650891055,23.53720459187964,19.4164878389476,15.5,13.0,16.0,4.5,8.5,3.5,2.5,3.0,3.1622776601683795,3.0,14.0,9.0,11.180339887498947,{}
281,459,6.082762530298219,26.476404589747453,2.23606797749979,5.0990195135927845,7.071067811865476,7.071067811865476,10.198039027185567,23.53720459187964,18.43908891458577,15.0,13.0,18.0,5.5,7.5,1.5,3.5,2.23606797749979,3.0,3.0,14.0,8.0,12.16552506059644,{}
282,460,5.0990195135927845,26.476404589747453,2.0,4.123105625617661,6.082762530298219,7.280109889280518,10.198039027185567,21.37755832643195,17.26267650163207,14.5,12.0,17.0,4.5,6.5,1.5,2.5,3.1622776601683795,2.23606797749979,2.5,15.0,9.0,12.16552506059644,{}
283,461,5.0990195135927845,28.284271247461906,2.23606797749979,4.123105625617661,8.246211251235321,8.246211251235321,9.055385138137416,20.39607805437113,16.278820596099706,13.5,11.0,15.0,4.0,7.0,2.0,1.0,3.1622776601683795,3.1622776601683795,3.0,15.0,9.0,11.180339887498947,{}
284,462,4.123105625617661,26.476404589747453,2.23606797749979,4.123105625617661,7.280109889280518,7.280109889280518,10.198039027185567,20.615528128088304,16.492422502470642,14.0,11.0,16.0,3.5,6.5,1.5,0.5,2.23606797749979,2.23606797749979,2.0,14.0,7.0,11.40175425099138,{}
285,463,2.0,26.68332812825267,3.1622776601683795,6.082762530298219,6.324555320336759,7.280109889280518,9.219544457292889,20.39607805437113,14.317821063276352,13.0,10.0,16.0,4.0,7.0,0.0,0.0,3.1622776601683795,2.23606797749979,2.5,15.0,8.0,11.40175425099138,{}
286,464,2.0,26.92582403567252,2.23606797749979,6.082762530298219,6.324555320336759,7.280109889280518,9.486832980505138,19.6468827043885,13.601470508735444,12.0,8.0,15.0,2.5,7.5,0.5,0.5,3.1622776601683795,3.1622776601683795,3.0,15.0,7.0,11.180339887498947,{}
287,465,1.0,25.0,2.23606797749979,6.324555320336759,6.324555320336759,7.615773105863909,10.44030650891055,19.92485884517128,13.601470508735444,12.5,9.0,16.0,2.5,6.5,0.5,0.5,3.1622776601683795,3.605551275463989,3.0,15.0,7.0,12.36931687685298,{}
288,466,1.0,25.29822128134704,2.23606797749979,5.385164807134504,6.324555320336759,7.615773105863909,10.44030650891055,18.97366596101028,13.601470508735444,12.5,8.0,16.0,2.0,6.0,1.0,0.0,3.1622776601683795,3.1622776601683795,3.5,15.0,6.0,12.36931687685298,{}
289,467,1.0,27.202941017470888,3.1622776601683795,5.0990195135927845,8.246211251235321,7.280109889280518,9.486832980505138,18.027756377319943,13.0,12.0,7.0,15.0,2.0,6.0,0.0,1.0,3.1622776601683795,3.1622776601683795,3.0,16.0,6.0,10.770329614269007,{}
290,468,1.4142135623730951,27.202941017470888,2.0,4.47213595499958,7.280109889280518,8.246211251235321,9.486832980505138,17.08800749063506,12.649110640673518,11.5,6.0,14.0,1.0,6.0,0.0,2.0,2.23606797749979,3.1622776601683795,2.5,16.0,6.0,10.770329614269007,{}
291,469,1.4142135623730951,25.96150997149434,2.23606797749979,4.123105625617661,6.324555320336759,7.280109889280518,10.198039027185567,17.72004514666935,13.601470508735444,12.5,8.0,15.0,1.5,5.5,0.5,0.5,2.23606797749979,3.1622776601683795,2.5,16.0,6.0,10.44030650891055,{}
292,470,0.0,25.96150997149434,2.23606797749979,5.0990195135927845,6.324555320336759,7.280109889280518,10.44030650891055,17.72004514666935,12.649110640673518,12.0,8.0,15.0,1.5,5.5,1.5,0.5,2.23606797749979,3.1622776601683795,3.0,15.0,6.0,10.44030650891055,{}
293,471,1.0,26.92582403567252,2.23606797749979,5.0990195135927845,6.324555320336759,7.280109889280518,10.198039027185567,18.43908891458577,13.341664064126334,12.5,8.0,15.0,1.5,6.5,0.5,1.5,2.23606797749979,2.23606797749979,2.0,14.0,6.0,11.180339887498947,{}
294,472,1.0,26.476404589747453,3.0,5.0990195135927845,7.071067811865476,7.071067811865476,10.44030650891055,18.68154169226941,13.601470508735444,13.0,10.0,15.0,2.5,5.5,0.5,0.5,3.0,3.0,3.0,13.0,7.0,13.152946437965904,{}
295,473,1.0,27.16615541441225,3.0,6.082762530298219,6.082762530298219,7.071067811865476,10.198039027185567,20.223748416156685,14.142135623730953,13.5,11.0,14.0,2.5,7.5,1.5,0.5,2.0,2.23606797749979,2.5,12.0,8.0,13.0,{}
296,474,3.0,27.018512172212592,3.0,5.0,7.071067811865476,7.0,10.04987562112089,21.02379604162864,16.0312195418814,14.5,14.0,15.0,4.5,6.5,0.5,1.5,3.0,3.0,3.0,11.0,10.0,13.038404810405298,{}
297,475,6.0,29.0,2.23606797749979,4.0,7.071067811865476,8.06225774829855,11.04536101718726,23.0,19.0,16.0,15.0,15.0,4.0,8.0,3.0,3.0,3.1622776601683795,3.1622776601683795,3.5,10.0,13.0,16.1245154965971,{}
298,476,6.0,29.068883707497267,3.1622776601683795,6.082762530298219,7.071067811865476,9.055385138137416,10.0,25.079872407968907,19.026297590440446,16.0,17.0,15.0,6.0,9.0,3.0,4.0,3.1622776601683795,3.1622776601683795,3.0,11.0,14.0,14.0356688476182,{}
299,477,6.0,30.14962686336267,3.1622776601683795,5.0990195135927845,8.06225774829855,8.06225774829855,10.04987562112089,24.186773244895647,19.1049731745428,16.0,18.0,15.0,6.5,7.5,2.5,4.5,2.23606797749979,3.1622776601683795,2.5,10.0,16.0,16.1245154965971,{}
300,478,4.123105625617661,27.29468812791236,2.0,4.123105625617661,7.071067811865476,7.071067811865476,12.041594578792296,22.20360331117452,18.110770276274835,16.0,19.0,15.0,5.0,5.0,1.0,3.0,3.0,2.23606797749979,2.0,9.0,14.0,14.142135623730953,{}
301,479,2.23606797749979,26.30589287593181,3.0,4.123105625617661,7.071067811865476,7.0,12.0,21.095023109728988,17.029386365926403,16.0,19.0,15.0,5.0,4.0,0.0,3.0,3.0,2.23606797749979,2.5,10.0,16.0,14.142135623730953,{}
302,480,1.0,27.16615541441225,3.1622776601683795,5.0990195135927845,6.082762530298219,7.071067811865476,12.0,21.095023109728988,16.0312195418814,15.5,18.0,15.0,4.5,4.5,0.5,2.5,3.1622776601683795,3.0,3.0,10.0,13.0,15.132745950421556,{}
303,481,2.23606797749979,27.073972741361768,3.0,5.0990195135927845,7.071067811865476,7.071067811865476,12.0,22.09072203437452,17.029386365926403,16.0,18.0,16.0,5.0,5.0,0.0,3.0,3.1622776601683795,3.0,3.5,11.0,16.0,15.132745950421556,{}
304,482,2.23606797749979,26.0768096208106,2.0,6.0,7.0,8.0,12.0,22.02271554554524,16.0312195418814,15.0,17.0,15.0,4.0,6.0,0.0,2.0,3.1622776601683795,3.0,3.0,11.0,15.0,14.142135623730953,{}
305,483,3.1622776601683795,27.018512172212592,3.0,4.0,8.0,8.0,12.0,22.02271554554524,18.027756377319943,16.5,17.0,16.0,4.5,5.5,0.5,2.5,3.0,4.0,4.0,11.0,14.0,15.132745950421556,{}
306,484,1.0,27.0,2.0,4.123105625617661,7.0,8.0,12.041594578792296,19.0,15.033296378372908,14.5,15.0,15.0,3.0,4.0,0.0,1.0,3.1622776601683795,3.0,3.0,11.0,12.0,15.033296378372908,{}
307,485,1.0,26.0,2.23606797749979,4.0,7.0,7.0,12.16552506059644,19.026297590440446,15.033296378372908,14.5,14.0,14.0,2.0,5.0,0.0,0.0,3.0,4.0,4.0,12.0,13.0,14.142135623730953,{}
308,486,2.23606797749979,30.01666203960727,2.0,5.0,7.071067811865476,8.0,11.04536101718726,20.09975124224178,15.132745950421556,14.0,12.0,13.0,1.5,7.5,1.5,0.5,3.0,3.0,2.5,11.0,11.0,15.0,{}
309,487,3.1622776601683795,28.0178514522438,1.0,5.0,8.0,8.0,11.04536101718726,20.09975124224178,15.132745950421556,13.5,12.0,13.0,1.5,7.5,2.5,0.5,3.1622776601683795,3.0,3.0,12.0,10.0,13.0,{}
310,488,3.0,30.01666203960727,2.0,5.0990195135927845,9.0,9.0,10.198039027185567,20.223748416156685,15.132745950421556,13.5,11.0,12.0,1.5,8.5,2.5,0.5,2.0,3.0,3.0,13.0,10.0,12.0,{}
311,489,2.0,29.068883707497267,2.23606797749979,4.123105625617661,6.082762530298219,7.071067811865476,10.198039027185567,18.43908891458577,14.317821063276352,13.0,10.0,12.0,1.0,7.0,2.0,1.0,3.0,3.0,3.0,13.0,10.0,13.038404810405298,{}
312,490,1.4142135623730951,28.0178514522438,2.0,4.0,7.071067811865476,7.0,11.40175425099138,18.43908891458577,14.560219778561036,13.5,11.0,12.0,0.5,6.5,2.5,1.5,3.0,3.0,3.5,12.0,9.0,12.0,{}
313,491,1.0,27.073972741361768,2.0,5.0,7.071067811865476,7.071067811865476,11.40175425099138,18.43908891458577,13.601470508735444,13.0,10.0,12.0,0.0,7.0,2.0,2.0,3.0,3.1622776601683795,3.0,12.0,10.0,13.0,{}
314,492,2.23606797749979,29.017236257093817,2.0,4.0,7.0,8.0,11.180339887498947,19.235384061671343,15.297058540778355,14.0,11.0,12.0,0.5,7.5,3.5,1.5,3.0,3.1622776601683795,3.0,13.0,10.0,12.041594578792296,{}
315,493,4.123105625617661,27.073972741361768,2.0,5.0,7.0,7.071067811865476,11.180339887498947,22.20360331117452,17.26267650163207,15.0,13.0,15.0,3.0,8.0,2.0,1.0,3.1622776601683795,3.0,3.0,12.0,9.0,12.041594578792296,{}
316,494,5.0990195135927845,28.16025568065745,3.0,5.0,7.071067811865476,8.06225774829855,10.44030650891055,23.345235059857504,18.43908891458577,15.5,12.0,15.0,3.5,9.5,3.5,0.5,3.0,3.1622776601683795,3.0,12.0,10.0,12.0,{}
317,495,7.071067811865476,29.154759474226505,2.0,5.0,7.071067811865476,8.06225774829855,10.198039027185567,24.186773244895647,19.235384061671343,15.5,12.0,15.0,3.5,10.5,4.5,1.5,3.0,3.0,3.0,12.0,10.0,13.0,{}
318,496,6.082762530298219,29.068883707497267,2.0,5.0990195135927845,7.071067811865476,8.06225774829855,10.198039027185567,23.345235059857504,18.24828759089466,15.0,13.0,15.0,4.0,9.0,3.0,2.0,3.0,4.0,3.5,11.0,9.0,12.041594578792296,{}
319,497,7.071067811865476,29.068883707497267,1.0,4.0,7.071067811865476,8.06225774829855,11.180339887498947,23.194827009486403,19.235384061671343,15.5,13.0,15.0,3.0,9.0,4.0,1.0,2.0,3.0,3.5,11.0,10.0,12.0,{}
320,498,7.071067811865476,29.068883707497267,1.0,5.0,8.0,8.0,10.198039027185567,23.194827009486403,18.24828759089466,14.5,13.0,15.0,4.0,9.0,3.0,3.0,2.0,3.0,3.0,11.0,10.0,12.0,{}
321,499,7.071067811865476,29.068883707497267,1.0,5.0,8.06225774829855,9.055385138137416,11.180339887498947,24.186773244895647,19.235384061671343,15.5,13.0,15.0,3.0,10.0,4.0,2.0,2.0,3.0,2.5,10.0,9.0,13.0,{}
322,500,5.0,29.068883707497267,2.23606797749979,5.0990195135927845,8.06225774829855,8.06225774829855,10.04987562112089,22.20360331117452,17.11724276862369,14.5,13.0,15.0,4.0,8.0,3.0,2.0,3.0,3.0,3.0,11.0,10.0,13.0,{}
323,501,5.0,29.154759474226505,2.23606797749979,5.0990195135927845,8.06225774829855,8.06225774829855,10.198039027185567,22.36067977499789,17.26267650163207,14.5,12.0,15.0,3.5,8.5,3.5,1.5,2.0,3.0,3.0,12.0,10.0,13.038404810405298,{}
324,502,3.1622776601683795,30.14962686336267,2.0,4.0,8.06225774829855,9.055385138137416,10.198039027185567,19.235384061671343,15.297058540778355,13.5,11.0,14.0,2.5,6.5,1.5,0.5,3.0,3.0,3.0,12.0,10.0,12.0,{}
325,503,2.23606797749979,30.14962686336267,2.0,4.123105625617661,7.071067811865476,8.06225774829855,11.180339887498947,19.4164878389476,15.297058540778355,14.0,11.0,14.0,1.5,6.5,1.5,0.5,3.0,3.0,3.0,13.0,10.0,12.041594578792296,{}
326,504,2.0,29.27456233660889,2.23606797749979,4.123105625617661,8.06225774829855,8.246211251235321,10.198039027185567,18.43908891458577,14.317821063276352,13.0,10.0,14.0,2.0,6.0,1.0,0.0,3.0,3.1622776601683795,3.0,12.0,9.0,12.0,{}
327,505,1.0,29.27456233660889,2.23606797749979,4.123105625617661,7.280109889280518,7.071067811865476,10.198039027185567,17.46424919657298,13.341664064126334,12.5,9.0,13.0,1.0,6.0,1.0,1.0,3.0,4.0,3.5,13.0,9.0,12.041594578792296,{}
328,506,1.0,29.27456233660889,2.23606797749979,4.123105625617661,7.280109889280518,8.06225774829855,10.198039027185567,17.46424919657298,13.341664064126334,12.5,9.0,13.0,1.0,6.0,1.0,1.0,3.0,3.0,3.0,13.0,9.0,13.038404810405298,{}
329,507,2.23606797749979,29.27456233660889,2.0,3.1622776601683795,8.06225774829855,9.219544457292889,10.198039027185567,17.46424919657298,14.317821063276352,13.0,10.0,14.0,2.0,5.0,1.0,0.0,3.0,3.1622776601683795,3.0,12.0,8.0,13.152946437965904,{}
330,508,2.23606797749979,29.42787793912432,2.0,4.123105625617661,7.071067811865476,8.246211251235321,10.44030650891055,18.68154169226941,14.560219778561036,13.0,9.0,14.0,1.5,6.5,1.5,0.5,2.0,3.1622776601683795,3.0,14.0,9.0,12.16552506059644,{}
331,509,2.23606797749979,30.59411708155671,1.0,4.123105625617661,8.246211251235321,8.246211251235321,10.44030650891055,17.72004514666935,13.601470508735444,12.0,8.0,14.0,1.0,6.0,1.0,1.0,2.23606797749979,3.0,3.0,14.0,8.0,12.16552506059644,{}
332,510,2.23606797749979,29.61418578992169,3.0,4.47213595499958,7.280109889280518,8.246211251235321,9.486832980505138,18.97366596101028,14.560219778561036,13.0,8.0,14.0,2.0,7.0,2.0,1.0,3.1622776601683795,3.0,3.0,14.0,8.0,12.36931687685298,{}
333,511,4.123105625617661,29.8328677803526,1.0,5.0990195135927845,7.280109889280518,8.246211251235321,10.770329614269007,20.8806130178211,15.811388300841896,13.0,8.0,15.0,1.5,8.5,2.5,0.5,2.0,3.1622776601683795,3.0,15.0,8.0,12.16552506059644,{}
334,512,4.123105625617661,31.04834939252005,3.1622776601683795,4.47213595499958,8.246211251235321,8.246211251235321,8.54400374531753,20.248456731316587,15.811388300841896,13.0,6.0,14.0,2.0,9.0,3.0,1.0,2.23606797749979,3.1622776601683795,3.0,17.0,8.0,12.36931687685298,{}
335,513,3.1622776601683795,31.78049716414141,2.23606797749979,5.0990195135927845,9.219544457292889,9.219544457292889,10.770329614269007,21.18962010041709,16.15549442140351,13.5,7.0,14.0,0.5,9.5,3.5,1.5,2.23606797749979,3.1622776601683795,3.0,15.0,6.0,12.36931687685298,{}
336,514,4.123105625617661,31.78049716414141,2.23606797749979,4.123105625617661,9.219544457292889,9.219544457292889,9.848857801796104,20.248456731316587,16.15549442140351,13.0,7.0,14.0,1.5,8.5,3.5,0.5,2.23606797749979,3.0,3.0,16.0,7.0,11.40175425099138,{}
337,515,5.385164807134504,31.32091952673165,2.23606797749979,4.123105625617661,9.486832980505138,9.219544457292889,9.486832980505138,21.18962010041709,17.08800749063506,13.5,6.0,15.0,1.5,9.5,3.5,1.5,2.23606797749979,3.1622776601683795,3.0,15.0,6.0,11.40175425099138,{}
338,516,6.082762530298219,31.32091952673165,1.4142135623730951,4.47213595499958,8.246211251235321,9.219544457292889,10.44030650891055,22.13594362117865,17.72004514666935,14.0,7.0,16.0,1.5,9.5,3.5,0.5,3.1622776601683795,2.23606797749979,2.5,16.0,6.0,12.36931687685298,{}
339,517,5.385164807134504,32.984845004941285,2.0,5.0990195135927845,9.486832980505138,9.219544457292889,9.486832980505138,21.840329667841555,16.76305461424021,13.5,7.0,15.0,2.0,10.0,4.0,1.0,3.1622776601683795,3.1622776601683795,3.0,16.0,6.0,12.36931687685298,{}
340,518,5.0990195135927845,28.16025568065745,1.4142135623730951,5.385164807134504,7.280109889280518,8.54400374531753,10.44030650891055,22.13594362117865,16.76305461424021,13.5,9.0,17.0,3.0,8.0,2.0,1.0,2.23606797749979,2.23606797749979,2.5,16.0,6.0,11.40175425099138,{}
341,519,2.23606797749979,25.29822128134704,3.1622776601683795,5.0990195135927845,5.385164807134504,7.615773105863909,9.486832980505138,19.92485884517128,14.866068747318506,13.0,8.0,16.0,3.0,7.0,1.0,0.0,2.23606797749979,3.1622776601683795,3.0,17.0,7.0,13.601470508735444,{}
342,520,3.1622776601683795,25.29822128134704,2.23606797749979,4.123105625617661,6.324555320336759,6.324555320336759,11.40175425099138,20.8806130178211,16.76305461424021,14.5,10.0,18.0,3.0,6.0,0.0,0.0,3.1622776601683795,4.123105625617661,3.5,15.0,5.0,11.180339887498947,{}
343,521,2.23606797749979,25.96150997149434,2.0,4.47213595499958,5.385164807134504,6.324555320336759,11.40175425099138,19.92485884517128,15.524174696260024,14.0,10.0,17.0,2.5,5.5,0.5,0.5,2.0,2.23606797749979,2.5,17.0,7.0,12.36931687685298,{}
344,522,3.1622776601683795,26.248809496813376,2.23606797749979,4.123105625617661,6.324555320336759,6.324555320336759,10.198039027185567,19.6468827043885,15.524174696260024,13.5,9.0,17.0,3.0,6.0,0.0,0.0,3.1622776601683795,3.1622776601683795,2.5,15.0,6.0,13.341664064126334,{}
345,523,3.1622776601683795,28.16025568065745,2.23606797749979,4.123105625617661,6.708203932499369,8.54400374531753,10.44030650891055,19.92485884517128,15.811388300841896,13.5,9.0,17.0,3.0,6.0,0.0,0.0,2.0,3.1622776601683795,3.0,15.0,6.0,12.36931687685298,{}
346,524,3.1622776601683795,29.120439557122072,2.0,4.123105625617661,7.615773105863909,7.280109889280518,11.40175425099138,20.615528128088304,16.492422502470642,14.5,10.0,18.0,3.0,6.0,0.0,0.0,3.1622776601683795,3.1622776601683795,3.0,15.0,6.0,12.16552506059644,{}
347,525,1.4142135623730951,27.202941017470888,2.23606797749979,4.47213595499958,7.615773105863909,7.280109889280518,10.44030650891055,18.384776310850235,13.92838827718412,12.5,9.0,17.0,3.0,4.0,2.0,0.0,2.23606797749979,2.23606797749979,2.0,15.0,6.0,12.36931687685298,{}
348,526,1.0,26.92582403567252,2.23606797749979,5.0990195135927845,6.324555320336759,7.071067811865476,11.40175425099138,19.6468827043885,14.560219778561036,13.5,10.0,17.0,2.5,5.5,0.5,0.5,1.4142135623730951,1.4142135623730951,1.5,15.0,6.0,12.16552506059644,{}
349,527,2.0,24.73863375370596,2.23606797749979,4.47213595499958,6.324555320336759,6.324555320336759,11.40175425099138,19.92485884517128,15.524174696260024,14.0,11.0,17.0,3.0,5.0,1.0,0.0,1.4142135623730951,2.23606797749979,1.0,16.0,7.0,12.36931687685298,{}
350,528,1.4142135623730951,24.73863375370596,2.23606797749979,4.123105625617661,6.324555320336759,7.280109889280518,12.36931687685298,19.92485884517128,15.811388300841896,14.5,12.0,18.0,3.0,4.0,1.0,0.0,1.4142135623730951,2.23606797749979,2.0,14.0,6.0,10.44030650891055,{}
351,529,2.0,24.04163056034261,2.23606797749979,4.47213595499958,6.324555320336759,6.324555320336759,11.40175425099138,19.92485884517128,15.524174696260024,14.0,11.0,18.0,3.5,4.5,1.5,0.5,1.4142135623730951,2.8284271247461903,1.5,15.0,6.0,11.180339887498947,{}
352,530,1.4142135623730951,25.0,3.1622776601683795,5.0990195135927845,7.071067811865476,7.280109889280518,10.44030650891055,19.92485884517128,14.866068747318506,13.5,10.0,17.0,3.5,5.5,1.5,0.5,2.23606797749979,1.4142135623730951,1.5,16.0,7.0,12.16552506059644,{}
353,531,2.23606797749979,25.96150997149434,2.23606797749979,5.0990195135927845,6.324555320336759,7.280109889280518,10.198039027185567,19.6468827043885,14.560219778561036,13.0,10.0,17.0,3.5,5.5,1.5,0.5,1.4142135623730951,2.8284271247461903,2.0,15.0,6.0,12.16552506059644,{}
354,532,2.23606797749979,26.92582403567252,2.0,5.0990195135927845,7.280109889280518,8.246211251235321,10.44030650891055,19.6468827043885,14.560219778561036,13.0,10.0,17.0,3.5,5.5,1.5,0.5,2.23606797749979,2.23606797749979,2.0,15.0,6.0,13.341664064126334,{}
355,533,1.0,25.96150997149434,3.1622776601683795,6.082762530298219,6.082762530298219,7.280109889280518,10.44030650891055,20.615528128088304,14.560219778561036,13.5,10.0,17.0,3.5,6.5,1.5,0.5,2.23606797749979,2.23606797749979,2.5,15.0,6.0,12.36931687685298,{}
356,534,2.23606797749979,25.96150997149434,2.23606797749979,6.082762530298219,7.280109889280518,8.246211251235321,10.198039027185567,20.615528128088304,14.560219778561036,13.0,10.0,17.0,3.5,6.5,0.5,0.5,2.23606797749979,3.0,2.5,15.0,6.0,12.16552506059644,{}
357,535,2.23606797749979,26.92582403567252,3.1622776601683795,6.082762530298219,6.324555320336759,8.54400374531753,10.44030650891055,21.840329667841555,15.811388300841896,14.0,10.0,17.0,3.5,7.5,0.5,0.5,2.23606797749979,3.1622776601683795,2.5,16.0,7.0,12.36931687685298,{}
358,536,5.0990195135927845,27.892651361962702,2.0,5.385164807134504,7.280109889280518,7.615773105863909,9.848857801796104,22.13594362117865,16.76305461424021,13.5,9.0,16.0,3.5,8.5,1.5,0.5,2.23606797749979,3.1622776601683795,2.5,16.0,7.0,12.36931687685298,{}
359,537,3.1622776601683795,30.083217912982647,3.1622776601683795,6.082762530298219,6.324555320336759,7.280109889280518,9.848857801796104,22.13594362117865,16.15549442140351,13.5,8.0,16.0,3.0,9.0,2.0,0.0,3.1622776601683795,3.1622776601683795,3.0,16.0,7.0,13.341664064126334,{}
360,538,5.0990195135927845,28.861739379323623,2.23606797749979,4.123105625617661,7.280109889280518,7.280109889280518,10.44030650891055,21.840329667841555,17.72004514666935,14.5,9.0,16.0,2.5,8.5,3.5,0.5,3.1622776601683795,3.0,3.0,15.0,7.0,13.152946437965904,{}
361,539,4.123105625617661,31.04834939252005,2.23606797749979,4.123105625617661,7.280109889280518,8.54400374531753,9.848857801796104,20.248456731316587,16.15549442140351,13.0,7.0,15.0,2.0,8.0,2.0,0.0,3.1622776601683795,3.1622776601683795,3.0,16.0,7.0,12.16552506059644,{}
362,540,5.0990195135927845,31.04834939252005,1.4142135623730951,4.47213595499958,8.246211251235321,8.246211251235321,10.44030650891055,21.18962010041709,16.76305461424021,13.5,8.0,16.0,2.0,8.0,2.0,0.0,2.23606797749979,3.1622776601683795,2.5,15.0,6.0,12.36931687685298,{}
363,541,5.0990195135927845,29.120439557122072,2.23606797749979,5.385164807134504,7.280109889280518,8.246211251235321,10.44030650891055,23.08679276123039,17.72004514666935,14.5,9.0,17.0,3.0,9.0,3.0,1.0,3.1622776601683795,3.1622776601683795,3.0,16.0,7.0,12.16552506059644,{}
364,542,7.071067811865476,28.861739379323623,1.4142135623730951,5.0990195135927845,6.324555320336759,7.280109889280518,10.44030650891055,23.769728648009423,18.68154169226941,14.5,10.0,17.0,3.5,9.5,3.5,1.5,3.1622776601683795,3.1622776601683795,3.0,15.0,6.0,11.180339887498947,{}
365,543,7.071067811865476,27.65863337187866,1.4142135623730951,5.385164807134504,8.246211251235321,8.246211251235321,10.44030650891055,24.04163056034261,18.68154169226941,14.5,10.0,16.0,3.0,10.0,3.0,1.0,2.0,3.1622776601683795,3.0,15.0,7.0,13.152946437965904,{}
366,544,4.123105625617661,27.892651361962702,3.1622776601683795,5.0990195135927845,6.082762530298219,7.280109889280518,9.486832980505138,21.840329667841555,16.76305461424021,14.0,9.0,16.0,3.5,8.5,2.5,0.5,2.23606797749979,3.1622776601683795,3.0,14.0,6.0,11.180339887498947,{}
367,545,2.23606797749979,25.96150997149434,3.1622776601683795,5.0990195135927845,6.324555320336759,8.54400374531753,10.44030650891055,20.8806130178211,15.811388300841896,14.0,10.0,17.0,3.5,6.5,0.5,0.5,3.1622776601683795,3.1622776601683795,3.5,15.0,7.0,12.16552506059644,{}
368,546,1.4142135623730951,25.96150997149434,3.1622776601683795,5.0990195135927845,6.324555320336759,7.615773105863909,10.44030650891055,19.92485884517128,14.866068747318506,13.5,10.0,17.0,3.5,5.5,1.5,0.5,2.23606797749979,3.1622776601683795,3.0,15.0,7.0,12.36931687685298,{}
369,547,1.0,25.70992026436488,3.1622776601683795,5.0990195135927845,7.071067811865476,7.280109889280518,10.44030650891055,19.6468827043885,14.560219778561036,13.5,11.0,17.0,4.0,5.0,1.0,1.0,3.1622776601683795,3.1622776601683795,3.0,15.0,7.0,13.152946437965904,{}
370,548,1.4142135623730951,26.92582403567252,2.23606797749979,5.0990195135927845,8.246211251235321,8.54400374531753,11.180339887498947,19.6468827043885,14.560219778561036,13.5,10.0,17.0,2.5,5.5,1.5,0.5,3.0,3.1622776601683795,3.0,14.0,6.0,12.16552506059644,{}
371,549,1.4142135623730951,26.92582403567252,2.23606797749979,5.0990195135927845,7.280109889280518,8.54400374531753,10.44030650891055,18.97366596101028,13.92838827718412,12.5,9.0,16.0,2.5,5.5,1.5,0.5,2.0,3.1622776601683795,3.0,15.0,7.0,12.36931687685298,{}
372,550,1.4142135623730951,27.65863337187866,3.1622776601683795,5.0990195135927845,7.280109889280518,8.54400374531753,10.44030650891055,19.92485884517128,14.866068747318506,13.5,10.0,16.0,3.0,6.0,1.0,0.0,3.1622776601683795,3.0,3.0,15.0,7.0,13.341664064126334,{}
373,551,2.23606797749979,27.892651361962702,2.23606797749979,6.082762530298219,7.280109889280518,8.246211251235321,11.40175425099138,21.840329667841555,15.811388300841896,14.0,10.0,17.0,2.5,7.5,0.5,0.5,3.0,4.123105625617661,3.5,14.0,7.0,12.16552506059644,{}
374,552,2.23606797749979,26.92582403567252,2.23606797749979,6.082762530298219,6.324555320336759,7.280109889280518,11.40175425099138,21.840329667841555,15.811388300841896,14.0,10.0,17.0,2.5,7.5,0.5,0.5,2.23606797749979,3.1622776601683795,3.0,15.0,7.0,13.152946437965904,{}
375,553,1.0,27.65863337187866,2.23606797749979,4.47213595499958,7.071067811865476,7.280109889280518,11.180339887498947,18.68154169226941,14.317821063276352,13.5,10.0,16.0,2.0,5.0,0.0,0.0,3.1622776601683795,3.0,3.0,15.0,7.0,13.152946437965904,{}
376,554,1.4142135623730951,27.65863337187866,2.23606797749979,4.123105625617661,7.280109889280518,8.246211251235321,11.40175425099138,18.97366596101028,14.866068747318506,13.5,10.0,16.0,2.0,5.0,0.0,0.0,3.1622776601683795,3.1622776601683795,3.0,15.0,7.0,11.180339887498947,{}
377,555,1.4142135623730951,27.65863337187866,2.0,6.082762530298219,6.082762530298219,8.246211251235321,12.649110640673518,21.840329667841555,15.811388300841896,14.5,11.0,17.0,2.0,7.0,0.0,0.0,3.1622776601683795,3.0,3.0,15.0,7.0,13.152946437965904,{}
378,556,4.123105625617661,27.892651361962702,1.0,5.385164807134504,7.280109889280518,7.615773105863909,11.704699910719626,22.13594362117865,16.76305461424021,14.0,10.0,17.0,2.5,7.5,1.5,0.5,2.0,3.0,3.0,14.0,6.0,13.152946437965904,{}
379,557,4.0,28.635642126552707,2.23606797749979,5.385164807134504,7.280109889280518,7.280109889280518,10.44030650891055,21.840329667841555,16.492422502470642,14.0,10.0,16.0,3.0,8.0,2.0,0.0,3.1622776601683795,3.1622776601683795,3.5,15.0,8.0,12.16552506059644,{}
380,558,3.1622776601683795,29.8328677803526,3.0,5.0990195135927845,7.280109889280518,7.280109889280518,10.770329614269007,21.840329667841555,16.76305461424021,14.5,10.0,17.0,3.5,7.5,1.5,0.5,3.1622776601683795,3.1622776601683795,3.0,14.0,7.0,13.038404810405298,{}
381,559,4.123105625617661,29.8328677803526,2.23606797749979,5.0990195135927845,7.280109889280518,8.54400374531753,10.44030650891055,21.840329667841555,16.76305461424021,14.0,10.0,17.0,3.5,7.5,0.5,0.5,3.1622776601683795,3.1622776601683795,3.0,15.0,7.0,12.041594578792296,{}
382,560,4.123105625617661,28.861739379323623,3.1622776601683795,5.0990195135927845,6.324555320336759,7.280109889280518,10.44030650891055,22.80350850198276,17.72004514666935,15.0,10.0,17.0,3.5,8.5,2.5,0.5,3.1622776601683795,4.123105625617661,3.5,15.0,7.0,12.16552506059644,{}
383,561,4.123105625617661,28.861739379323623,1.0,5.0990195135927845,7.280109889280518,7.280109889280518,11.40175425099138,21.587033144922906,16.492422502470642,14.0,10.0,17.0,2.5,7.5,0.5,0.5,3.1622776601683795,4.123105625617661,3.5,15.0,7.0,12.16552506059644,{}
384,562,4.123105625617661,28.861739379323623,2.0,4.123105625617661,7.280109889280518,7.280109889280518,10.44030650891055,20.615528128088304,16.492422502470642,14.0,10.0,17.0,3.5,6.5,1.5,0.5,3.1622776601683795,3.0,3.0,15.0,8.0,12.16552506059644,{}
385,563,2.0,28.861739379323623,2.23606797749979,5.0990195135927845,7.071067811865476,7.280109889280518,11.40175425099138,20.615528128088304,15.524174696260024,14.0,10.0,17.0,2.5,6.5,0.5,0.5,3.0,4.123105625617661,3.5,14.0,7.0,12.16552506059644,{}
386,564,1.4142135623730951,27.892651361962702,2.0,5.0990195135927845,7.280109889280518,7.280109889280518,11.40175425099138,19.6468827043885,14.560219778561036,13.5,10.0,17.0,2.5,5.5,0.5,0.5,3.0,4.123105625617661,3.5,14.0,7.0,13.152946437965904,{}
387,565,2.23606797749979,26.68332812825267,2.0,5.0990195135927845,7.280109889280518,8.246211251235321,11.40175425099138,20.615528128088304,15.524174696260024,14.0,11.0,17.0,3.0,6.0,1.0,0.0,3.1622776601683795,3.1622776601683795,3.0,13.0,6.0,12.16552506059644,{}
388,566,1.0,25.70992026436488,2.0,5.0990195135927845,7.280109889280518,8.246211251235321,11.40175425099138,18.68154169226941,13.601470508735444,13.0,10.0,16.0,2.0,5.0,1.0,0.0,2.0,3.1622776601683795,3.0,14.0,7.0,12.041594578792296,{}
389,567,1.0,27.892651361962702,2.23606797749979,5.385164807134504,7.280109889280518,7.615773105863909,11.180339887498947,19.6468827043885,14.317821063276352,13.5,9.0,16.0,1.5,6.5,0.5,0.5,2.23606797749979,3.0,3.0,14.0,7.0,12.16552506059644,{}
390,568,2.23606797749979,27.892651361962702,2.0,4.123105625617661,6.324555320336759,6.324555320336759,11.40175425099138,19.6468827043885,15.524174696260024,14.0,9.0,16.0,1.5,6.5,0.5,0.5,3.1622776601683795,4.123105625617661,3.5,14.0,7.0,13.152946437965904,{}
391,569,2.23606797749979,28.635642126552707,2.0,5.0990195135927845,7.280109889280518,8.246211251235321,11.704699910719626,20.8806130178211,15.811388300841896,14.0,10.0,16.0,2.0,7.0,1.0,0.0,3.1622776601683795,4.123105625617661,3.5,14.0,7.0,12.16552506059644,{}
392,570,3.1622776601683795,28.861739379323623,3.1622776601683795,6.082762530298219,6.324555320336759,7.615773105863909,10.44030650891055,22.80350850198276,16.76305461424021,14.5,9.0,16.0,2.5,9.5,2.5,1.5,3.1622776601683795,3.1622776601683795,3.0,15.0,8.0,13.152946437965904,{}
393,571,4.123105625617661,26.68332812825267,2.23606797749979,6.082762530298219,6.324555320336759,7.280109889280518,11.40175425099138,23.769728648009423,17.72004514666935,15.0,11.0,17.0,3.0,9.0,2.0,0.0,3.1622776601683795,3.1622776601683795,3.5,15.0,8.0,12.16552506059644,{}
394,572,4.123105625617661,25.70992026436488,2.0,5.0990195135927845,6.324555320336759,7.280109889280518,11.40175425099138,22.56102834535696,17.46424919657298,15.0,11.0,17.0,3.0,8.0,1.0,0.0,3.1622776601683795,3.1622776601683795,3.5,15.0,8.0,11.180339887498947,{}
395,573,3.1622776601683795,26.68332812825267,2.23606797749979,4.123105625617661,8.06225774829855,9.219544457292889,11.40175425099138,20.8806130178211,16.76305461424021,14.5,11.0,17.0,3.0,6.0,1.0,1.0,2.0,3.1622776601683795,3.0,14.0,7.0,12.16552506059644,{}
396,574,1.4142135623730951,28.861739379323623,2.0,5.0990195135927845,8.246211251235321,8.06225774829855,11.40175425099138,19.6468827043885,14.560219778561036,13.5,10.0,17.0,2.5,5.5,0.5,0.5,3.0,3.1622776601683795,3.5,13.0,7.0,11.04536101718726,{}
397,575,4.0,28.861739379323623,3.1622776601683795,5.385164807134504,8.246211251235321,9.219544457292889,7.280109889280518,19.6468827043885,14.317821063276352,12.0,9.0,16.0,5.5,6.5,0.5,1.5,3.1622776601683795,3.1622776601683795,3.5,14.0,7.0,12.041594578792296,{}
398,576,3.0,28.635642126552707,2.23606797749979,4.123105625617661,9.219544457292889,9.219544457292889,11.40175425099138,20.615528128088304,16.492422502470642,14.5,10.0,16.0,2.0,7.0,2.0,1.0,3.1622776601683795,3.1622776601683795,3.0,13.0,6.0,12.36931687685298,{}
399,577,3.1622776601683795,29.8328677803526,1.4142135623730951,5.0990195135927845,7.280109889280518,8.246211251235321,12.36931687685298,21.840329667841555,16.76305461424021,14.5,10.0,17.0,1.5,7.5,1.5,0.5,3.1622776601683795,4.0,4.0,14.0,7.0,11.180339887498947,{}
400,578,3.1622776601683795,29.61418578992169,2.0,4.123105625617661,9.055385138137416,9.219544457292889,10.198039027185567,19.4164878389476,15.297058540778355,13.5,9.0,15.0,2.0,7.0,2.0,0.0,2.23606797749979,2.23606797749979,2.0,14.0,7.0,12.16552506059644,{}
401,579,2.0,29.8328677803526,2.23606797749979,4.123105625617661,7.280109889280518,7.615773105863909,11.180339887498947,19.4164878389476,15.297058540778355,14.0,9.0,16.0,1.5,6.5,0.5,0.5,2.23606797749979,2.23606797749979,2.5,14.0,8.0,12.041594578792296,{}
402,580,2.23606797749979,30.80584360149873,2.0,4.123105625617661,8.06225774829855,8.246211251235321,10.198039027185567,18.43908891458577,14.317821063276352,13.0,8.0,15.0,1.5,6.5,1.5,0.5,2.23606797749979,3.1622776601683795,3.0,14.0,7.0,12.16552506059644,{}
403,581,1.4142135623730951,29.61418578992169,2.23606797749979,4.123105625617661,8.246211251235321,8.246211251235321,11.180339887498947,18.68154169226941,14.560219778561036,13.5,9.0,15.0,1.0,6.0,1.0,1.0,2.23606797749979,3.0,3.0,14.0,7.0,13.152946437965904,{}
404,582,1.4142135623730951,29.61418578992169,2.0,4.123105625617661,7.071067811865476,8.246211251235321,11.40175425099138,18.68154169226941,14.560219778561036,13.5,10.0,16.0,2.0,5.0,0.0,0.0,2.0,3.1622776601683795,3.0,14.0,8.0,13.152946437965904,{}
405,583,2.0,29.61418578992169,2.23606797749979,4.123105625617661,9.055385138137416,9.055385138137416,10.198039027185567,18.43908891458577,14.317821063276352,13.0,8.0,14.0,1.0,7.0,2.0,1.0,2.23606797749979,2.23606797749979,2.5,14.0,7.0,12.16552506059644,{}
406,584,1.0,26.68332812825267,2.23606797749979,4.123105625617661,7.280109889280518,7.280109889280518,11.180339887498947,18.43908891458577,14.317821063276352,13.5,10.0,16.0,2.0,5.0,1.0,1.0,1.4142135623730951,2.23606797749979,2.0,14.0,8.0,11.180339887498947,{}
407,585,1.4142135623730951,26.68332812825267,2.23606797749979,5.0990195135927845,7.071067811865476,8.06225774829855,11.180339887498947,19.6468827043885,14.560219778561036,13.5,10.0,16.0,2.0,6.0,0.0,0.0,1.0,2.23606797749979,2.0,14.0,7.0,12.041594578792296,{}
408,586,3.1622776601683795,29.8328677803526,3.0,4.123105625617661,8.246211251235321,9.219544457292889,9.219544457292889,19.4164878389476,15.297058540778355,13.5,9.0,16.0,3.5,6.5,0.5,0.5,2.23606797749979,2.23606797749979,2.0,15.0,8.0,13.038404810405298,{}
409,587,3.1622776601683795,29.8328677803526,2.0,4.123105625617661,8.246211251235321,8.246211251235321,10.198039027185567,19.4164878389476,15.297058540778355,13.5,9.0,16.0,2.5,6.5,1.5,0.5,2.0,2.23606797749979,2.5,13.0,7.0,14.142135623730953,{}
410,588,5.0990195135927845,30.80584360149873,1.0,4.123105625617661,9.055385138137416,10.198039027185567,10.04987562112089,20.223748416156685,16.1245154965971,13.5,9.0,16.0,2.5,7.5,1.5,1.5,2.0,2.0,2.5,14.0,6.0,14.142135623730953,{}
411,589,5.0990195135927845,28.861739379323623,1.4142135623730951,5.0990195135927845,8.246211251235321,8.246211251235321,10.04987562112089,21.37755832643195,16.278820596099706,13.5,10.0,17.0,3.5,7.5,1.5,1.5,2.23606797749979,3.605551275463989,3.0,15.0,7.0,14.0356688476182,{}
412,590,5.0990195135927845,28.635642126552707,1.0,4.123105625617661,8.246211251235321,8.246211251235321,10.04987562112089,20.223748416156685,16.1245154965971,13.5,11.0,17.0,4.0,6.0,0.0,2.0,2.23606797749979,3.1622776601683795,3.0,13.0,6.0,14.317821063276352,{}
413,591,3.1622776601683795,29.61418578992169,3.0,4.123105625617661,10.04987562112089,10.198039027185567,9.055385138137416,19.235384061671343,15.132745950421556,13.5,11.0,17.0,5.0,5.0,1.0,2.0,2.23606797749979,2.23606797749979,2.5,13.0,6.0,14.0356688476182,{}
414,592,2.23606797749979,29.8328677803526,2.23606797749979,5.0990195135927845,8.246211251235321,8.246211251235321,10.04987562112089,19.4164878389476,14.317821063276352,13.0,10.0,17.0,3.5,5.5,0.5,0.5,2.23606797749979,3.1622776601683795,2.5,13.0,6.0,13.038404810405298,{}
415,593,4.123105625617661,29.61418578992169,1.0,4.123105625617661,8.246211251235321,9.219544457292889,10.198039027185567,19.4164878389476,15.297058540778355,13.0,9.0,15.0,2.0,7.0,1.0,0.0,2.23606797749979,3.1622776601683795,3.0,13.0,7.0,14.142135623730953,{}
416,594,5.0990195135927845,30.59411708155671,1.0,4.123105625617661,8.06225774829855,10.198039027185567,11.180339887498947,21.37755832643195,17.26267650163207,14.5,10.0,16.0,2.0,8.0,3.0,1.0,2.0,3.1622776601683795,3.0,13.0,7.0,14.142135623730953,{}
417,595,8.06225774829855,31.575306807693888,1.0,4.47213595499958,8.246211251235321,10.04987562112089,10.198039027185567,23.53720459187964,19.235384061671343,15.0,10.0,16.0,3.0,10.0,4.0,1.0,3.1622776601683795,3.0,3.0,14.0,7.0,13.152946437965904,{}
418,596,6.324555320336759,33.734255586866,1.0,5.0990195135927845,9.219544457292889,10.198039027185567,10.198039027185567,22.56102834535696,17.46424919657298,14.0,9.0,16.0,2.5,9.5,3.5,0.5,2.23606797749979,3.1622776601683795,3.0,13.0,7.0,13.152946437965904,{}
419,597,7.071067811865476,32.984845004941285,2.23606797749979,5.0990195135927845,9.219544457292889,10.198039027185567,10.198039027185567,24.515301344262525,19.4164878389476,15.5,9.0,17.0,3.0,11.0,5.0,1.0,3.1622776601683795,4.123105625617661,3.5,15.0,7.0,14.142135623730953,{}
420,598,10.04987562112089,32.7566787083184,1.4142135623730951,5.0990195135927845,9.219544457292889,10.198039027185567,9.486832980505138,25.70992026436488,20.615528128088304,15.0,9.0,16.0,3.5,12.5,6.5,1.5,3.0,3.1622776601683795,3.0,14.0,6.0,13.152946437965904,{}
421,599,9.055385138137416,32.984845004941285,1.4142135623730951,4.47213595499958,8.246211251235321,9.486832980505138,10.198039027185567,24.73863375370596,20.39607805437113,15.5,9.0,17.0,3.0,11.0,6.0,1.0,3.0,3.1622776601683795,3.0,13.0,5.0,13.152946437965904,{}
422,600,5.0990195135927845,31.78049716414141,2.0,4.47213595499958,9.055385138137416,9.219544457292889,10.198039027185567,21.587033144922906,17.26267650163207,14.5,9.0,16.0,2.5,8.5,2.5,0.5,2.23606797749979,3.1622776601683795,3.0,14.0,6.0,12.16552506059644,{}
423,601,6.082762530298219,30.083217912982647,2.23606797749979,4.47213595499958,9.219544457292889,9.486832980505138,9.219544457292889,21.840329667841555,17.46424919657298,14.0,10.0,18.0,5.0,7.0,1.0,2.0,3.0,3.1622776601683795,3.0,13.0,5.0,13.341664064126334,{}
424,602,1.4142135623730951,27.65863337187866,3.0,4.47213595499958,8.246211251235321,8.246211251235321,11.40175425099138,19.92485884517128,15.524174696260024,14.5,11.0,17.0,3.0,5.0,1.0,0.0,2.23606797749979,3.1622776601683795,3.0,14.0,5.0,13.152946437965904,{}
425,603,4.123105625617661,31.04834939252005,3.1622776601683795,4.123105625617661,8.246211251235321,9.219544457292889,9.219544457292889,20.615528128088304,16.492422502470642,14.0,9.0,17.0,4.0,7.0,1.0,1.0,3.1622776601683795,3.1622776601683795,3.0,14.0,5.0,13.152946437965904,{}
426,604,4.123105625617661,28.861739379323623,2.23606797749979,4.123105625617661,7.280109889280518,8.54400374531753,10.44030650891055,20.8806130178211,16.76305461424021,14.0,9.0,16.0,2.5,7.5,1.5,0.5,3.0,3.1622776601683795,3.0,14.0,6.0,14.317821063276352,{}
427,605,4.123105625617661,31.04834939252005,2.23606797749979,4.47213595499958,8.246211251235321,9.219544457292889,10.44030650891055,21.18962010041709,16.76305461424021,14.0,8.0,16.0,2.0,8.0,2.0,1.0,3.1622776601683795,3.1622776601683795,3.0,14.0,6.0,12.16552506059644,{}
428,606,2.23606797749979,30.80584360149873,1.4142135623730951,4.123105625617661,8.246211251235321,9.219544457292889,11.180339887498947,18.68154169226941,14.560219778561036,13.0,8.0,15.0,0.5,6.5,1.5,1.5,2.23606797749979,3.1622776601683795,3.0,14.0,6.0,13.152946437965904,{}
429,607,2.23606797749979,31.04834939252005,2.0,4.47213595499958,8.246211251235321,9.219544457292889,9.848857801796104,18.384776310850235,13.92838827718412,12.0,6.0,14.0,1.0,7.0,1.0,2.0,2.23606797749979,3.1622776601683795,2.5,14.0,5.0,12.16552506059644,{}
430,608,5.0990195135927845,35.4400902933387,1.4142135623730951,4.47213595499958,9.486832980505138,9.486832980505138,10.44030650891055,21.18962010041709,16.76305461424021,13.5,5.0,15.0,0.0,10.0,4.0,2.0,2.23606797749979,3.0,3.0,14.0,5.0,12.36931687685298,{}
431,609,5.0990195135927845,34.48187929913333,2.23606797749979,5.385164807134504,10.198039027185567,10.198039027185567,9.219544457292889,21.840329667841555,16.492422502470642,13.5,5.0,15.0,1.0,11.0,4.0,1.0,2.23606797749979,2.8284271247461903,2.5,15.0,5.0,13.601470508735444,{}
432,610,4.123105625617661,34.48187929913333,2.23606797749979,4.47213595499958,9.486832980505138,9.486832980505138,8.246211251235321,18.97366596101028,14.560219778561036,12.0,4.0,14.0,1.0,9.0,3.0,2.0,2.23606797749979,3.1622776601683795,2.5,15.0,5.0,12.36931687685298,{}
433,611,3.605551275463989,36.40054944640259,2.23606797749979,4.123105625617661,10.198039027185567,10.44030650891055,9.219544457292889,18.97366596101028,14.866068747318506,12.5,4.0,14.0,0.0,9.0,3.0,2.0,3.1622776601683795,2.23606797749979,2.5,14.0,5.0,13.341664064126334,{}
434,612,3.1622776601683795,35.17101079013795,1.4142135623730951,4.47213595499958,9.486832980505138,10.198039027185567,9.219544457292889,18.027756377319943,13.601470508735444,11.5,4.0,13.0,0.5,8.5,2.5,2.5,2.23606797749979,3.0,2.5,15.0,5.0,12.36931687685298,{}
435,613,3.1622776601683795,35.17101079013795,1.4142135623730951,4.47213595499958,9.486832980505138,10.198039027185567,9.219544457292889,18.027756377319943,13.601470508735444,11.5,4.0,13.0,0.5,8.5,2.5,2.5,3.1622776601683795,3.0,3.0,14.0,5.0,14.317821063276352,{}
436,614,4.123105625617661,36.40054944640259,2.23606797749979,3.605551275463989,10.198039027185567,11.40175425099138,8.246211251235321,18.027756377319943,14.560219778561036,12.0,3.0,13.0,0.0,9.0,4.0,2.0,2.23606797749979,3.0,2.5,15.0,5.0,14.142135623730953,{}
437,615,3.605551275463989,35.4400902933387,1.4142135623730951,3.1622776601683795,9.486832980505138,10.44030650891055,10.198039027185567,18.027756377319943,14.866068747318506,12.5,4.0,14.0,1.0,8.0,3.0,2.0,2.23606797749979,3.1622776601683795,2.5,15.0,5.0,12.36931687685298,{}
438,616,4.47213595499958,38.60051813123757,1.4142135623730951,4.47213595499958,10.44030650891055,11.40175425099138,9.219544457292889,19.313207915827967,14.866068747318506,12.0,3.0,14.0,0.5,9.5,3.5,2.5,2.23606797749979,3.1622776601683795,2.5,15.0,5.0,13.341664064126334,{}
439,617,4.47213595499958,38.60051813123757,2.23606797749979,4.123105625617661,11.40175425099138,12.36931687685298,8.246211251235321,18.97366596101028,14.866068747318506,12.0,2.0,13.0,0.5,10.5,4.5,2.5,2.23606797749979,3.1622776601683795,3.0,15.0,5.0,13.152946437965904,{}
440,618,4.47213595499958,38.60051813123757,1.4142135623730951,4.123105625617661,9.486832980505138,10.44030650891055,9.486832980505138,19.313207915827967,15.231546211727816,12.0,3.0,14.0,0.5,9.5,3.5,2.5,2.23606797749979,2.23606797749979,2.5,15.0,6.0,14.317821063276352,{}
441,619,5.385164807134504,37.36308338453881,1.4142135623730951,4.123105625617661,10.44030650891055,10.44030650891055,8.54400374531753,19.313207915827967,15.231546211727816,11.5,3.0,13.0,0.0,10.0,4.0,2.0,2.23606797749979,3.1622776601683795,3.0,15.0,6.0,13.152946437965904,{}
442,620,4.123105625617661,36.1386219991853,1.4142135623730951,4.47213595499958,10.44030650891055,10.44030650891055,9.486832980505138,19.313207915827967,14.866068747318506,12.0,4.0,13.0,0.5,9.5,3.5,2.5,2.23606797749979,3.1622776601683795,2.5,15.0,5.0,14.142135623730953,{}
443,621,5.0990195135927845,37.10795063055895,1.4142135623730951,4.47213595499958,9.486832980505138,11.40175425099138,8.54400374531753,19.313207915827967,14.866068747318506,11.5,3.0,12.0,0.5,10.5,4.5,2.5,2.23606797749979,3.1622776601683795,3.0,16.0,7.0,13.341664064126334,{}
444,622,4.47213595499958,35.90264614203248,2.23606797749979,5.0990195135927845,10.198039027185567,11.180339887498947,8.246211251235321,19.92485884517128,14.866068747318506,12.0,4.0,12.0,0.0,11.0,5.0,2.0,3.1622776601683795,3.0,3.0,15.0,6.0,12.16552506059644,{}
445,624,2.8284271247461903,39.05124837953327,3.1622776601683795,4.123105625617661,9.219544457292889,10.198039027185567,10.44030650891055,20.248456731316587,16.15549442140351,14.0,8.0,17.0,2.5,6.5,1.5,0.5,4.123105625617661,5.0990195135927845,5.0,18.0,5.0,11.704699910719626,{}
446,625,2.23606797749979,30.083217912982647,2.23606797749979,3.1622776601683795,7.615773105863909,8.54400374531753,11.04536101718726,15.811388300841896,12.649110640673518,12.5,9.0,17.0,2.0,2.0,2.0,1.0,5.0990195135927845,5.0990195135927845,4.5,18.0,5.0,13.601470508735444,{}
447,626,4.0,29.42787793912432,2.0,4.123105625617661,7.071067811865476,7.280109889280518,9.219544457292889,19.235384061671343,15.132745950421556,13.0,9.0,14.0,2.5,7.5,2.5,0.5,4.123105625617661,5.0990195135927845,4.5,19.0,7.0,13.341664064126334,{}
448,627,2.23606797749979,27.892651361962702,2.0,5.0990195135927845,7.280109889280518,7.280109889280518,10.198039027185567,19.4164878389476,14.317821063276352,13.0,10.0,17.0,3.5,5.5,0.5,0.5,3.1622776601683795,4.123105625617661,4.0,19.0,8.0,13.601470508735444,{}
449,628,1.4142135623730951,32.55764119219941,2.23606797749979,4.123105625617661,8.246211251235321,8.246211251235321,12.16552506059644,19.6468827043885,15.524174696260024,14.5,12.0,18.0,3.0,4.0,1.0,0.0,4.123105625617661,5.0990195135927845,5.0,18.0,6.0,12.649110640673518,{}
450,629,1.0,33.734255586866,3.1622776601683795,4.123105625617661,8.246211251235321,8.246211251235321,11.180339887498947,18.68154169226941,14.560219778561036,14.0,10.0,17.0,2.5,4.5,0.5,0.5,5.0990195135927845,5.0,4.5,18.0,6.0,13.341664064126334,{}
451,630,1.4142135623730951,32.55764119219941,2.23606797749979,4.123105625617661,8.246211251235321,9.055385138137416,12.041594578792296,19.4164878389476,15.297058540778355,14.5,12.0,18.0,3.0,4.0,1.0,0.0,5.0990195135927845,5.0990195135927845,5.0,18.0,6.0,14.560219778561036,{}
452,631,1.4142135623730951,32.38826948140329,3.1622776601683795,4.123105625617661,8.246211251235321,8.246211251235321,12.041594578792296,20.39607805437113,16.278820596099706,15.5,14.0,19.0,4.5,3.5,1.5,0.5,4.123105625617661,4.123105625617661,3.5,17.0,6.0,14.317821063276352,{}
453,632,1.4142135623730951,30.59411708155671,2.23606797749979,5.0990195135927845,7.280109889280518,8.246211251235321,13.038404810405298,21.37755832643195,16.278820596099706,15.5,13.0,19.0,3.0,5.0,1.0,0.0,4.123105625617661,4.0,4.0,17.0,7.0,13.601470508735444,{}
454,633,1.4142135623730951,33.37663853655727,3.1622776601683795,4.123105625617661,8.06225774829855,9.219544457292889,12.041594578792296,20.39607805437113,16.278820596099706,15.5,13.0,18.0,3.5,4.5,0.5,0.5,4.0,4.0,4.0,17.0,7.0,14.317821063276352,{}
455,634,3.1622776601683795,33.54101966249684,3.1622776601683795,4.123105625617661,8.246211251235321,9.219544457292889,11.04536101718726,21.37755832643195,17.26267650163207,15.5,13.0,19.0,5.0,5.0,0.0,1.0,4.0,5.0990195135927845,4.5,16.0,8.0,13.341664064126334,{}
456,635,4.123105625617661,33.37663853655727,3.1622776601683795,4.123105625617661,8.246211251235321,9.219544457292889,11.0,22.20360331117452,18.110770276274835,16.0,14.0,19.0,5.5,5.5,0.5,1.5,4.123105625617661,4.0,4.0,16.0,7.0,14.317821063276352,{}
457,636,5.0990195135927845,32.38826948140329,2.0,4.123105625617661,9.219544457292889,9.219544457292889,13.038404810405298,24.186773244895647,20.09975124224178,17.5,16.0,21.0,5.5,5.5,0.5,2.5,4.123105625617661,5.0990195135927845,5.0,15.0,8.0,15.132745950421556,{}
458,637,2.0,32.2490309931942,3.1622776601683795,4.123105625617661,9.055385138137416,8.246211251235321,11.0,20.09975124224178,16.0312195418814,15.0,15.0,19.0,6.0,3.0,2.0,3.0,4.0,4.123105625617661,4.0,14.0,8.0,15.132745950421556,{}
459,638,2.23606797749979,31.14482300479488,3.0,5.0,8.06225774829855,9.055385138137416,11.0,21.02379604162864,16.0312195418814,15.0,15.0,18.0,5.5,4.5,0.5,2.5,4.123105625617661,4.0,4.0,14.0,9.0,13.038404810405298,{}
460,639,3.0,31.14482300479488,2.23606797749979,4.123105625617661,9.055385138137416,9.219544457292889,12.0,21.095023109728988,17.029386365926403,15.5,16.0,19.0,5.5,3.5,1.5,3.5,4.0,5.0,5.0,14.0,9.0,16.1245154965971,{}
461,640,5.0990195135927845,32.14031735997639,2.0,5.0,8.06225774829855,9.219544457292889,11.0,23.021728866442675,18.027756377319943,15.5,15.0,18.0,5.5,6.5,0.5,2.5,3.0,4.0,3.5,14.0,9.0,15.033296378372908,{}
462,641,6.0,29.068883707497267,2.0,5.0,8.06225774829855,9.055385138137416,10.04987562112089,23.021728866442675,18.027756377319943,15.0,16.0,18.0,7.0,6.0,1.0,4.0,4.0,5.0,4.5,13.0,10.0,17.029386365926403,{}
463,642,5.0,29.154759474226505,2.0,5.0,8.06225774829855,9.055385138137416,11.04536101718726,23.021728866442675,18.027756377319943,15.5,16.0,19.0,6.5,5.5,0.5,4.5,5.0,5.0,5.0,12.0,10.0,15.033296378372908,{}
464,643,5.0990195135927845,27.073972741361768,2.0,4.0,7.071067811865476,8.06225774829855,11.04536101718726,22.0,18.0,15.5,17.0,19.0,7.0,4.0,1.0,5.0,4.0,4.0,4.0,12.0,10.0,14.0,{}
465,644,3.0,27.073972741361768,3.1622776601683795,5.0,7.071067811865476,7.0,11.04536101718726,22.0,17.0,15.5,17.0,19.0,7.0,4.0,2.0,4.0,2.0,2.23606797749979,2.5,12.0,11.0,15.0,{}
466,645,1.0,28.0178514522438,3.0,5.0,7.0,7.071067811865476,12.041594578792296,21.02379604162864,16.0312195418814,15.5,16.0,17.0,4.5,4.5,1.5,1.5,2.0,2.0,2.5,13.0,12.0,15.0,{}
467,646,4.0,29.0,3.0,5.0,8.0,9.0,10.0,22.0,17.0,15.0,17.0,17.0,7.0,5.0,0.0,4.0,3.0,3.0,3.0,12.0,12.0,15.033296378372908,{}
468,647,3.0,29.0,2.0,4.0,8.0,8.0,13.0,22.0,18.0,16.5,17.0,17.0,4.0,5.0,0.0,2.0,2.23606797749979,2.0,2.0,12.0,12.0,15.033296378372908,{}
469,648,4.0,31.016124838541646,2.0,5.0,9.0,9.0,12.0,23.0,18.0,16.0,17.0,18.0,5.5,5.5,0.5,3.5,2.0,2.0,2.5,11.0,12.0,14.0356688476182,{}
470,649,7.0,33.06055050963308,2.0,5.0990195135927845,9.055385138137416,9.055385138137416,12.0,26.019223662515376,21.0,17.5,16.0,18.0,5.0,9.0,3.0,3.0,2.0,2.0,2.0,11.0,12.0,15.033296378372908,{}
471,650,8.0,33.06055050963308,2.0,5.0,10.04987562112089,10.04987562112089,11.04536101718726,26.019223662515376,21.02379604162864,17.0,16.0,18.0,6.0,9.0,3.0,3.0,2.0,2.0,2.5,12.0,12.0,16.0312195418814,{}
472,651,8.06225774829855,32.14031735997639,2.0,4.0,9.055385138137416,10.04987562112089,11.04536101718726,25.079872407968907,21.095023109728988,17.0,15.0,18.0,5.5,8.5,3.5,3.5,2.0,3.0,3.0,12.0,11.0,15.033296378372908,{}
473,652,8.0,32.2490309931942,2.23606797749979,4.0,9.055385138137416,9.055385138137416,11.04536101718726,25.079872407968907,21.095023109728988,17.0,14.0,18.0,5.0,9.0,4.0,3.0,2.0,3.1622776601683795,3.0,14.0,11.0,15.0,{}
474,653,8.06225774829855,31.400636936215164,2.0,4.123105625617661,8.06225774829855,9.219544457292889,10.198039027185567,24.33105012119288,20.223748416156685,16.0,12.0,17.0,4.5,9.5,3.5,2.5,1.0,3.1622776601683795,3.0,14.0,10.0,15.033296378372908,{}
475,654,7.071067811865476,29.61418578992169,2.0,5.0990195135927845,7.280109889280518,8.06225774829855,10.44030650891055,24.515301344262525,19.4164878389476,15.5,12.0,18.0,5.0,9.0,3.0,2.0,2.0,3.1622776601683795,3.0,15.0,9.0,14.142135623730953,{}
476,655,8.06225774829855,30.80584360149873,1.4142135623730951,4.123105625617661,8.246211251235321,9.219544457292889,10.44030650891055,23.769728648009423,19.6468827043885,15.0,10.0,17.0,3.5,9.5,4.5,1.5,2.23606797749979,3.1622776601683795,3.0,17.0,9.0,13.152946437965904,{}
477,656,7.280109889280518,29.410882339705484,2.0,4.123105625617661,7.280109889280518,9.219544457292889,9.848857801796104,23.08679276123039,18.97366596101028,14.5,9.0,18.0,4.5,8.5,3.5,1.5,2.0,2.23606797749979,2.5,17.0,7.0,11.40175425099138,{}
478,657,4.123105625617661,26.570660511172846,3.1622776601683795,5.385164807134504,7.615773105863909,7.615773105863909,10.770329614269007,23.40939982143925,18.027756377319943,15.0,10.0,19.0,4.5,7.5,0.5,0.5,3.1622776601683795,3.1622776601683795,3.5,18.0,7.0,13.601470508735444,{}
479,658,4.123105625617661,25.6320112359526,2.8284271247461903,6.324555320336759,6.708203932499369,7.615773105863909,10.44030650891055,23.40939982143925,17.08800749063506,14.0,10.0,19.0,4.5,7.5,0.5,0.5,3.1622776601683795,4.47213595499958,3.5,18.0,6.0,12.649110640673518,{}
480,659,4.123105625617661,24.698178070456937,1.4142135623730951,5.385164807134504,6.324555320336759,7.615773105863909,10.770329614269007,21.54065922853801,16.15549442140351,13.0,9.0,18.0,3.5,6.5,0.5,1.5,3.605551275463989,3.605551275463989,3.0,18.0,6.0,12.649110640673518,{}
481,660,1.4142135623730951,26.92582403567252,3.1622776601683795,5.385164807134504,6.708203932499369,8.54400374531753,9.848857801796104,19.697715603592208,14.317821063276352,12.5,7.0,17.0,3.0,6.0,1.0,1.0,3.1622776601683795,2.23606797749979,2.0,18.0,5.0,10.770329614269007,{}
482,661,2.23606797749979,27.31300056749533,2.23606797749979,5.385164807134504,7.615773105863909,8.54400374531753,9.848857801796104,19.697715603592208,14.317821063276352,12.0,6.0,17.0,2.5,6.5,0.5,0.5,2.8284271247461903,2.8284271247461903,2.0,19.0,5.0,10.770329614269007,{}
483,662,5.0990195135927845,26.92582403567252,1.4142135623730951,4.47213595499958,7.280109889280518,8.94427190999916,10.295630140987,21.02379604162864,16.55294535724685,12.5,7.0,17.0,3.0,7.0,1.0,1.0,3.1622776601683795,3.605551275463989,3.0,19.0,5.0,12.083045973594572,{}
484,663,4.123105625617661,27.31300056749533,2.23606797749979,5.385164807134504,6.708203932499369,7.615773105863909,10.295630140987,21.93171219946131,16.55294535724685,13.0,7.0,18.0,3.5,7.5,0.5,0.5,2.23606797749979,2.8284271247461903,2.0,19.0,5.0,12.649110640673518,{}
485,664,2.23606797749979,28.231188426986208,1.4142135623730951,5.385164807134504,6.324555320336759,7.615773105863909,11.704699910719626,20.615528128088304,15.231546211727816,13.0,7.0,18.0,1.5,6.5,0.5,0.5,3.1622776601683795,3.1622776601683795,3.0,19.0,5.0,10.770329614269007,{}
486,665,1.4142135623730951,28.231188426986208,2.8284271247461903,4.47213595499958,7.615773105863909,8.94427190999916,11.704699910719626,20.12461179749811,15.652475842498529,13.5,7.0,18.0,1.5,5.5,0.5,1.5,2.8284271247461903,3.605551275463989,3.0,19.0,5.0,12.083045973594572,{}
487,666,3.1622776601683795,28.231188426986208,2.23606797749979,5.385164807134504,7.280109889280518,7.615773105863909,11.180339887498947,21.93171219946131,16.55294535724685,13.5,7.0,18.0,2.5,7.5,0.5,0.5,2.8284271247461903,3.1622776601683795,3.0,18.0,5.0,13.0,{}
488,667,1.4142135623730951,27.85677655436824,3.1622776601683795,6.324555320336759,7.615773105863909,8.54400374531753,12.083045973594572,22.84731931759173,16.55294535724685,14.5,9.0,19.0,3.0,7.0,1.0,1.0,3.1622776601683795,3.1622776601683795,2.5,17.0,4.0,11.704699910719626,{}
489,668,2.23606797749979,26.570660511172846,2.23606797749979,5.385164807134504,7.615773105863909,7.615773105863909,11.704699910719626,21.54065922853801,16.15549442140351,14.0,9.0,18.0,2.5,6.5,0.5,0.5,3.1622776601683795,3.605551275463989,3.0,17.0,4.0,11.704699910719626,{}
490,669,1.4142135623730951,27.51363298439521,2.23606797749979,5.385164807134504,6.324555320336759,7.615773105863909,11.704699910719626,20.615528128088304,15.231546211727816,13.5,9.0,18.0,2.5,5.5,0.5,0.5,3.605551275463989,3.605551275463989,3.0,17.0,4.0,12.083045973594572,{}
491,670,3.1622776601683795,26.92582403567252,2.23606797749979,4.47213595499958,7.615773105863909,7.615773105863909,11.40175425099138,21.18962010041709,16.76305461424021,14.5,9.0,19.0,3.0,6.0,0.0,0.0,2.23606797749979,4.123105625617661,3.5,18.0,5.0,11.704699910719626,{}
492,671,2.23606797749979,27.85677655436824,2.23606797749979,5.0990195135927845,7.280109889280518,7.615773105863909,10.770329614269007,20.248456731316587,15.231546211727816,13.0,8.0,18.0,3.0,6.0,0.0,0.0,3.1622776601683795,3.1622776601683795,3.0,17.0,4.0,13.601470508735444,{}
493,672,1.4142135623730951,28.792360097775937,3.1622776601683795,5.385164807134504,7.615773105863909,8.54400374531753,10.770329614269007,20.615528128088304,15.231546211727816,13.5,8.0,18.0,3.0,6.0,1.0,1.0,2.23606797749979,3.1622776601683795,3.0,17.0,5.0,13.601470508735444,{}
494,673,3.1622776601683795,27.85677655436824,2.23606797749979,5.0990195135927845,8.54400374531753,8.94427190999916,10.770329614269007,21.18962010041709,16.15549442140351,13.5,8.0,18.0,3.0,7.0,0.0,0.0,2.23606797749979,3.1622776601683795,3.0,17.0,5.0,13.601470508735444,{}
495,674,4.123105625617661,28.792360097775937,2.23606797749979,5.385164807134504,7.280109889280518,8.54400374531753,11.704699910719626,23.40939982143925,18.027756377319943,15.0,9.0,19.0,3.0,8.0,1.0,1.0,2.23606797749979,3.1622776601683795,3.0,17.0,6.0,12.36931687685298,{}
496,675,2.0,26.92582403567252,3.1622776601683795,5.385164807134504,7.615773105863909,8.54400374531753,10.770329614269007,21.18962010041709,15.811388300841896,14.0,9.0,19.0,4.0,6.0,1.0,0.0,3.1622776601683795,3.1622776601683795,3.0,17.0,6.0,12.36931687685298,{}
