,video_id,frame_seq,gap,time_seconds,m1,m3,m4,m5,m6,m7,m8,m9,m10,m11,m12,m13,m14,m15,m16,m17,e1,e2,e3,b1,b2,b3
0,67,53,1,2.210541666666664,7.0710678118654755,27.892651361962706,2.0,4.123105625617661,7.280109889280518,8.246211251235321,8.54400374531753,21.587033144922902,17.46424919657298,13.5,9.0,16.0,4.5,8.5,2.5,1.5,3.1622776601683795,3.0,3.0,15.0,5.0,11.40175425099138
1,67,105,1,4.3793749999999925,4.0,29.017236257093817,3.0,5.0,7.0710678118654755,8.0,7.0710678118654755,19.026297590440446,14.035668847618199,12.0,11.0,12.0,4.5,7.5,2.5,1.5,3.0,4.0,3.5,10.0,8.0,13.038404810405298
2,67,155,1,6.464791666666654,2.0,26.076809620810597,2.23606797749979,4.123105625617661,6.082762530298219,6.082762530298219,3.0,11.180339887498949,7.0710678118654755,6.0,5.0,3.0,1.0,7.0,3.0,0.0,5.0,5.0990195135927845,4.5,9.0,14.0,12.165525060596439
3,67,156,0,6.506499999999988,3.0,25.079872407968907,2.23606797749979,4.123105625617661,6.082762530298219,6.082762530298219,4.0,13.152946437965905,9.055385138137417,7.5,7.0,5.0,2.0,7.0,2.0,1.0,5.0,5.0990195135927845,4.5,9.0,14.0,12.165525060596439
4,67,157,0,6.548208333333321,3.0,23.08679276123039,2.23606797749979,4.123105625617661,6.082762530298219,6.082762530298219,5.0,14.142135623730951,10.04987562112089,8.5,9.0,7.0,3.0,6.0,1.0,2.0,5.0,5.0990195135927845,4.5,10.0,14.0,12.041594578792296
5,67,158,0,6.589916666666654,4.0,22.02271554554524,2.23606797749979,4.123105625617661,6.082762530298219,6.082762530298219,6.0,16.1245154965971,12.041594578792296,10.0,11.0,10.0,4.5,5.5,0.5,2.5,5.0,5.0990195135927845,4.5,10.0,13.0,12.041594578792296
6,67,159,0,6.631624999999987,4.0,21.02379604162864,2.23606797749979,4.123105625617661,5.0990195135927845,6.0,7.0,17.11724276862369,13.038404810405298,11.0,13.0,12.0,5.5,4.5,0.5,3.5,5.0,4.123105625617661,4.5,11.0,13.0,12.041594578792296
7,67,178,1,7.424083333333319,2.23606797749979,29.120439557122072,2.23606797749979,3.1622776601683795,8.246211251235321,8.246211251235321,8.54400374531753,16.15549442140351,13.0,11.0,6.0,14.0,2.0,5.0,0.0,1.0,4.123105625617661,4.123105625617661,4.0,16.0,6.0,13.341664064126334
8,67,179,0,7.465791666666652,1.0,29.832867780352597,2.0,4.47213595499958,7.280109889280518,8.246211251235321,9.486832980505138,16.15549442140351,11.704699910719626,11.0,6.0,13.0,0.5,5.5,0.5,1.5,4.47213595499958,4.123105625617661,4.0,17.0,6.0,13.601470508735444
9,67,180,0,7.507499999999985,1.0,28.861739379323623,2.23606797749979,4.123105625617661,8.246211251235321,8.246211251235321,9.219544457292887,15.811388300841896,11.704699910719626,11.0,6.0,13.0,0.5,5.5,0.5,1.5,4.47213595499958,4.123105625617661,4.0,17.0,6.0,13.601470508735444
10,67,181,0,7.549208333333318,1.0,28.861739379323623,2.0,4.123105625617661,7.280109889280518,8.246211251235321,9.486832980505138,15.811388300841896,11.704699910719626,11.0,6.0,13.0,0.5,5.5,0.5,1.5,4.47213595499958,4.123105625617661,4.0,17.0,6.0,13.341664064126334
11,67,182,0,7.590916666666652,1.0,28.861739379323623,2.0,4.123105625617661,7.280109889280518,8.246211251235321,10.44030650891055,16.76305461424021,12.649110640673518,12.0,7.0,14.0,0.5,5.5,0.5,1.5,3.605551275463989,4.123105625617661,4.0,17.0,7.0,13.341664064126334
12,67,183,0,7.632624999999985,1.0,28.861739379323623,2.23606797749979,4.123105625617661,8.246211251235321,8.246211251235321,10.198039027185569,16.76305461424021,12.649110640673518,12.0,7.0,14.0,0.5,5.5,0.5,1.5,3.605551275463989,4.123105625617661,4.0,17.0,7.0,13.341664064126334
13,67,184,0,7.674333333333318,1.0,28.861739379323623,2.23606797749979,4.123105625617661,8.246211251235321,8.246211251235321,10.198039027185569,16.76305461424021,12.649110640673518,12.0,7.0,14.0,0.5,5.5,0.5,1.5,3.605551275463989,4.123105625617661,4.0,17.0,7.0,13.341664064126334
14,67,185,0,7.716041666666651,1.0,28.861739379323623,2.23606797749979,4.123105625617661,8.246211251235321,8.246211251235321,10.198039027185569,16.76305461424021,12.649110640673518,12.0,7.0,14.0,0.5,5.5,0.5,2.5,3.605551275463989,4.123105625617661,4.0,17.0,7.0,13.341664064126334
15,67,186,0,7.757749999999985,1.4142135623730951,28.861739379323623,2.0,4.123105625617661,7.280109889280518,7.280109889280518,10.44030650891055,15.811388300841896,11.704699910719626,11.5,7.0,14.0,0.5,4.5,0.5,1.5,4.123105625617661,4.123105625617661,4.0,17.0,6.0,12.649110640673518
16,67,187,0,7.799458333333318,1.0,29.832867780352597,2.23606797749979,3.1622776601683795,7.280109889280518,8.246211251235321,10.44030650891055,16.15549442140351,13.0,12.0,7.0,14.0,0.5,4.5,0.5,2.5,4.123105625617661,4.123105625617661,4.5,16.0,6.0,13.601470508735444
17,67,188,0,7.841166666666651,1.0,29.120439557122072,2.0,3.605551275463989,7.280109889280518,7.280109889280518,10.770329614269007,16.55294535724685,13.0,12.0,7.0,15.0,1.0,4.0,0.0,2.0,4.47213595499958,4.123105625617661,4.0,17.0,6.0,13.341664064126334
18,67,189,0,7.882874999999984,1.0,29.120439557122072,2.0,4.47213595499958,7.280109889280518,8.246211251235321,11.704699910719626,18.384776310850235,13.92838827718412,13.0,8.0,16.0,1.0,5.0,0.0,1.0,4.47213595499958,4.0,4.5,17.0,6.0,13.341664064126334
19,67,190,0,7.924583333333317,2.0,27.202941017470888,1.4142135623730951,4.47213595499958,7.280109889280518,7.280109889280518,11.704699910719626,19.313207915827967,14.866068747318506,13.0,8.0,16.0,1.0,6.0,1.0,1.0,4.123105625617661,4.123105625617661,4.0,17.0,6.0,12.36931687685298
20,67,191,0,7.966291666666651,2.23606797749979,25.298221281347036,2.23606797749979,5.0990195135927845,6.324555320336759,7.615773105863909,10.770329614269007,20.248456731316587,15.231546211727817,13.0,8.0,16.0,2.0,7.0,0.0,1.0,4.123105625617661,4.123105625617661,4.0,16.0,6.0,13.341664064126334
21,67,192,0,8.007999999999985,2.23606797749979,26.570660511172846,1.4142135623730951,4.123105625617661,7.280109889280518,8.246211251235321,11.40175425099138,18.973665961010276,14.866068747318506,13.0,8.0,17.0,1.5,5.5,0.5,0.5,4.123105625617661,4.123105625617661,4.0,16.0,7.0,12.36931687685298
22,67,193,0,8.049708333333319,0.0,26.92582403567252,2.23606797749979,4.47213595499958,6.324555320336759,7.280109889280518,11.704699910719626,18.384776310850235,13.92838827718412,13.0,9.0,16.0,1.5,4.5,0.5,0.5,4.123105625617661,4.123105625617661,4.5,17.0,7.0,14.317821063276353
23,67,194,0,8.091416666666653,1.4142135623730951,25.96150997149434,2.23606797749979,5.0990195135927845,6.324555320336759,7.280109889280518,11.40175425099138,19.924858845171276,14.866068747318506,13.5,9.0,16.0,1.5,6.5,0.5,1.5,4.123105625617661,4.123105625617661,4.0,16.0,7.0,14.317821063276353
24,67,195,0,8.133124999999987,2.23606797749979,27.65863337187866,3.1622776601683795,5.0990195135927845,6.324555320336759,8.54400374531753,10.44030650891055,20.8806130178211,15.811388300841896,14.0,10.0,16.0,3.0,7.0,0.0,1.0,4.47213595499958,4.0,4.0,17.0,8.0,14.142135623730951
25,67,196,0,8.174833333333321,3.0,26.68332812825267,2.23606797749979,5.385164807134504,6.324555320336759,8.246211251235321,11.40175425099138,21.840329667841555,16.492422502470642,14.5,10.0,16.0,2.0,8.0,1.0,1.0,4.123105625617661,4.123105625617661,4.0,16.0,8.0,13.152946437965905
26,67,197,0,8.216541666666656,1.4142135623730951,27.65863337187866,2.0,4.123105625617661,7.280109889280518,7.280109889280518,11.40175425099138,18.681541692269406,14.560219778561036,13.5,10.0,16.0,2.0,5.0,0.0,1.0,4.123105625617661,4.123105625617661,4.5,15.0,7.0,14.142135623730951
27,67,198,0,8.25824999999999,0.0,28.635642126552707,2.23606797749979,4.123105625617661,7.280109889280518,8.246211251235321,11.40175425099138,17.72004514666935,13.601470508735444,13.0,9.0,15.0,1.0,5.0,0.0,1.0,5.0990195135927845,4.123105625617661,4.5,15.0,8.0,14.317821063276353
28,67,199,0,8.299958333333324,0.0,27.65863337187866,2.23606797749979,5.0990195135927845,7.280109889280518,7.280109889280518,11.40175425099138,18.681541692269406,13.601470508735444,13.0,10.0,16.0,2.0,5.0,1.0,1.0,3.1622776601683795,4.0,4.0,16.0,9.0,14.142135623730951
29,67,200,0,8.341666666666658,1.4142135623730951,28.635642126552707,3.0,6.082762530298219,7.280109889280518,8.246211251235321,11.40175425099138,21.587033144922902,15.524174696260024,14.5,11.0,17.0,3.0,7.0,0.0,1.0,4.123105625617661,4.123105625617661,4.5,15.0,9.0,14.142135623730951
30,67,201,0,8.383374999999992,3.1622776601683795,27.459060435491963,2.23606797749979,6.082762530298219,6.324555320336759,7.280109889280518,11.180339887498949,22.561028345356956,16.492422502470642,14.5,11.0,16.0,2.5,8.5,1.5,0.5,4.123105625617661,4.0,4.0,16.0,9.0,14.142135623730951
31,67,202,0,8.425083333333326,3.1622776601683795,27.459060435491963,3.1622776601683795,6.082762530298219,6.082762530298219,8.06225774829855,11.180339887498949,23.53720459187964,17.46424919657298,15.5,12.0,17.0,3.5,8.5,1.5,0.5,4.123105625617661,4.123105625617661,4.0,15.0,9.0,15.132745950421556
32,67,203,0,8.46679166666666,4.0,28.442925306655784,3.1622776601683795,5.0990195135927845,7.0710678118654755,7.280109889280518,10.44030650891055,22.561028345356956,17.46424919657298,15.0,11.0,16.0,3.5,8.5,2.5,0.5,3.1622776601683795,4.0,4.5,15.0,9.0,14.142135623730951
33,67,204,0,8.508499999999994,5.0990195135927845,28.442925306655784,2.0,6.082762530298219,7.0710678118654755,7.0710678118654755,11.40175425099138,24.515301344262525,18.439088914585774,15.5,12.0,17.0,3.5,9.5,2.5,0.5,4.0,4.123105625617661,4.0,14.0,9.0,13.038404810405298
34,67,205,0,8.550208333333329,6.082762530298219,29.274562336608895,2.0,5.0990195135927845,7.0710678118654755,8.06225774829855,11.40175425099138,24.515301344262525,19.4164878389476,16.0,13.0,17.0,4.0,9.0,4.0,2.0,4.123105625617661,4.0,4.0,14.0,9.0,14.142135623730951
35,67,206,0,8.591916666666663,4.0,29.274562336608895,3.1622776601683795,6.082762530298219,7.0710678118654755,8.06225774829855,11.180339887498949,24.331050121192877,18.24828759089466,16.0,12.0,16.0,3.0,10.0,4.0,0.0,3.0,3.0,3.5,15.0,10.0,13.038404810405298
36,67,207,0,8.633624999999997,3.1622776601683795,29.427877939124322,3.1622776601683795,5.0990195135927845,8.06225774829855,8.06225774829855,10.198039027185569,21.587033144922902,16.492422502470642,14.5,13.0,18.0,5.5,5.5,0.5,2.5,3.0,4.123105625617661,4.0,13.0,9.0,14.0
37,67,208,0,8.675333333333331,3.0,30.265491900843113,3.1622776601683795,4.123105625617661,8.06225774829855,8.06225774829855,9.055385138137417,19.235384061671343,15.132745950421556,13.5,11.0,15.0,4.0,6.0,1.0,0.0,4.123105625617661,4.0,4.5,15.0,9.0,14.035668847618199
38,67,209,0,8.717041666666665,1.0,24.186773244895647,3.0,5.0990195135927845,7.0710678118654755,7.0710678118654755,12.36931687685298,21.37755832643195,16.278820596099706,15.5,14.0,17.0,3.5,5.5,0.5,0.5,3.1622776601683795,3.0,3.0,14.0,9.0,12.041594578792296
39,67,210,0,8.75875,2.23606797749979,27.294688127912362,3.0,5.0990195135927845,7.0710678118654755,7.0710678118654755,11.180339887498949,21.37755832643195,16.278820596099706,15.0,13.0,17.0,4.0,6.0,0.0,1.0,3.0,4.0,4.0,14.0,10.0,13.038404810405298
40,67,211,0,8.800458333333333,2.23606797749979,26.30589287593181,3.0,4.123105625617661,7.0710678118654755,7.0710678118654755,11.180339887498949,20.396078054371138,16.278820596099706,15.0,13.0,17.0,4.0,5.0,0.0,1.0,3.0,3.0,3.0,14.0,10.0,13.152946437965905
41,67,212,0,8.842166666666667,2.0,26.30589287593181,3.0,5.0990195135927845,7.0710678118654755,8.06225774829855,11.180339887498949,21.213203435596427,16.1245154965971,15.0,13.0,17.0,4.0,6.0,0.0,1.0,4.0,4.123105625617661,4.0,13.0,9.0,13.038404810405298
42,67,213,0,8.883875000000002,2.0,26.30589287593181,3.0,5.0990195135927845,7.0710678118654755,8.246211251235321,11.180339887498949,21.213203435596427,16.1245154965971,15.0,13.0,17.0,4.0,6.0,1.0,1.0,3.0,3.1622776601683795,3.5,13.0,9.0,13.038404810405298
43,67,214,0,8.925583333333336,3.1622776601683795,27.16615541441225,2.0,4.0,7.0,7.0710678118654755,11.045361017187261,20.09975124224178,16.1245154965971,14.5,14.0,17.0,4.5,4.5,0.5,2.5,3.0,3.0,3.5,13.0,10.0,13.038404810405298
44,67,215,0,8.96729166666667,3.0,26.1725046566048,2.0,4.123105625617661,7.0710678118654755,7.0710678118654755,11.180339887498949,20.223748416156685,16.1245154965971,14.5,13.0,16.0,3.5,5.5,0.5,1.5,3.0,4.0,4.0,13.0,10.0,14.0
45,67,216,0,9.009000000000004,2.0,26.076809620810597,3.0,5.0990195135927845,6.082762530298219,7.0710678118654755,11.180339887498949,21.213203435596427,16.1245154965971,15.0,14.0,16.0,4.0,6.0,0.0,1.0,3.0,3.1622776601683795,3.5,13.0,10.0,14.0
46,67,217,0,9.050708333333338,1.0,26.1725046566048,3.0,5.0990195135927845,6.082762530298219,7.0710678118654755,11.180339887498949,20.223748416156685,15.132745950421556,14.5,13.0,16.0,3.5,5.5,0.5,0.5,3.0,4.0,3.5,12.0,10.0,14.0
47,67,218,0,9.092416666666672,1.0,28.160255680657446,3.0,4.123105625617661,6.082762530298219,6.082762530298219,11.180339887498949,19.235384061671343,15.132745950421556,14.5,13.0,16.0,3.5,4.5,0.5,0.5,3.0,3.0,3.0,12.0,10.0,14.035668847618199
48,67,219,0,9.134125000000006,2.0,27.073972741361768,2.23606797749979,4.0,7.0,7.0710678118654755,11.045361017187261,19.1049731745428,15.132745950421556,14.0,13.0,15.0,3.0,5.0,0.0,1.0,3.1622776601683795,3.0,3.0,12.0,10.0,14.035668847618199
49,67,220,0,9.17583333333334,1.0,29.068883707497267,2.23606797749979,5.0,7.0710678118654755,7.0710678118654755,11.180339887498949,19.235384061671343,14.317821063276353,13.5,13.0,15.0,3.0,5.0,0.0,0.0,3.0,3.0,3.0,12.0,10.0,14.035668847618199
50,67,221,0,9.217541666666676,1.4142135623730951,28.071337695236398,2.0,4.0,7.0,8.0,11.180339887498949,18.24828759089466,14.317821063276353,13.5,12.0,14.0,2.0,5.0,0.0,0.0,2.0,3.0,3.0,13.0,11.0,14.0
51,67,222,0,9.259250000000009,1.0,29.068883707497267,2.0,4.123105625617661,7.0,8.0,11.045361017187261,18.110770276274835,14.035668847618199,13.5,13.0,15.0,3.0,4.0,0.0,1.0,3.0,3.1622776601683795,3.0,12.0,10.0,14.035668847618199
52,67,223,0,9.300958333333345,1.0,27.073972741361768,2.0,3.1622776601683795,6.082762530298219,7.0,12.165525060596439,18.24828759089466,15.132745950421556,14.5,13.0,15.0,2.0,4.0,0.0,0.0,3.0,3.0,3.0,12.0,10.0,14.0
53,67,224,0,9.342666666666675,1.0,27.073972741361768,2.0,5.0990195135927845,6.0,7.0,11.180339887498949,19.235384061671343,14.142135623730951,13.5,12.0,14.0,2.0,6.0,1.0,0.0,2.23606797749979,3.0,3.0,13.0,10.0,14.0
54,67,225,0,9.384375000000013,1.0,29.068883707497267,2.0,4.123105625617661,7.0,7.0,11.180339887498949,18.24828759089466,14.142135623730951,13.5,12.0,14.0,2.0,5.0,1.0,0.0,2.0,2.23606797749979,2.5,12.0,10.0,13.0
55,67,226,0,9.426083333333343,0.0,29.068883707497267,2.0,5.0,8.06225774829855,7.0710678118654755,12.36931687685298,19.235384061671343,14.317821063276353,14.0,12.0,14.0,1.0,6.0,1.0,1.0,3.0,2.0,2.0,12.0,10.0,14.0
56,67,227,0,9.46779166666668,1.0,29.017236257093817,2.0,4.123105625617661,6.0,7.0,11.180339887498949,18.24828759089466,14.142135623730951,13.5,12.0,13.0,1.5,5.5,0.5,0.5,3.0,3.1622776601683795,3.0,12.0,10.0,14.0
57,67,228,0,9.509500000000012,1.4142135623730951,28.0178514522438,2.0,5.0,7.0710678118654755,7.0710678118654755,11.180339887498949,19.235384061671343,14.317821063276353,13.5,12.0,13.0,1.5,6.5,0.5,0.5,2.23606797749979,2.23606797749979,2.5,12.0,10.0,13.0
58,67,229,0,9.551208333333348,1.0,29.068883707497267,2.23606797749979,5.0,8.06225774829855,7.0710678118654755,12.165525060596439,20.223748416156685,15.297058540778355,14.5,12.0,14.0,1.0,7.0,1.0,1.0,2.23606797749979,2.0,2.5,12.0,10.0,14.0
59,67,230,0,9.592916666666682,1.4142135623730951,30.066592756745816,2.0,5.0,7.0710678118654755,7.0710678118654755,12.165525060596439,20.223748416156685,15.297058540778355,14.5,12.0,14.0,1.0,7.0,1.0,1.0,3.0,3.1622776601683795,3.0,12.0,10.0,15.033296378372908
60,67,231,0,9.634625000000016,1.0,29.068883707497267,2.0,5.0990195135927845,7.0,7.0,11.40175425099138,19.4164878389476,14.317821063276353,13.5,12.0,14.0,2.0,6.0,1.0,0.0,3.1622776601683795,3.1622776601683795,3.0,12.0,9.0,12.041594578792296
61,67,232,0,9.67633333333335,1.4142135623730951,29.068883707497267,3.0,5.0,7.0,8.06225774829855,10.44030650891055,19.4164878389476,14.560219778561036,13.5,11.0,13.0,2.0,7.0,1.0,0.0,2.23606797749979,2.23606797749979,2.5,13.0,10.0,13.038404810405298
62,67,233,0,9.718041666666684,1.0,29.068883707497267,3.0,5.0990195135927845,7.0,8.06225774829855,11.40175425099138,20.396078054371138,15.297058540778355,14.5,12.0,14.0,2.0,7.0,1.0,0.0,1.4142135623730951,3.1622776601683795,2.5,12.0,10.0,12.041594578792296
63,67,234,0,9.759750000000018,1.0,31.064449134018133,3.0,5.0990195135927845,7.0710678118654755,8.06225774829855,11.180339887498949,20.223748416156685,15.132745950421556,14.5,12.0,14.0,2.0,7.0,2.0,1.0,2.23606797749979,3.1622776601683795,3.0,13.0,10.0,13.0
64,67,235,0,9.801458333333352,1.0,30.01666203960727,2.23606797749979,4.0,7.0,7.0710678118654755,11.180339887498949,18.24828759089466,14.317821063276353,13.5,11.0,12.0,0.5,6.5,1.5,0.5,2.23606797749979,2.0,2.5,12.0,10.0,13.038404810405298
65,67,236,0,9.843166666666686,1.0,31.064449134018133,3.1622776601683795,4.0,9.055385138137417,9.0,10.198039027185569,18.24828759089466,14.317821063276353,13.5,11.0,13.0,2.0,6.0,1.0,1.0,3.0,3.0,3.0,13.0,10.0,13.038404810405298
66,67,237,0,9.88487500000002,1.4142135623730951,31.064449134018133,2.0,4.0,9.0,9.0,10.198039027185569,17.26267650163207,13.341664064126334,12.5,10.0,12.0,1.0,6.0,1.0,1.0,2.0,3.0,3.0,12.0,10.0,13.038404810405298
67,67,238,0,9.926583333333356,1.0,32.0624390837628,2.23606797749979,4.0,10.04987562112089,10.04987562112089,11.180339887498949,18.24828759089466,14.317821063276353,13.5,11.0,13.0,1.0,6.0,1.0,1.0,2.0,3.1622776601683795,3.5,13.0,11.0,13.038404810405298
68,67,239,0,9.968291666666689,1.0,30.066592756745816,2.23606797749979,3.0,8.06225774829855,7.0,11.045361017187261,17.11724276862369,14.142135623730951,13.5,11.0,13.0,1.0,5.0,1.0,1.0,2.23606797749979,3.1622776601683795,3.0,12.0,9.0,12.041594578792296
69,67,240,0,10.010000000000025,1.0,29.068883707497267,2.0,3.1622776601683795,8.06225774829855,8.06225774829855,11.40175425099138,17.46424919657298,14.317821063276353,13.5,11.0,13.0,1.0,5.0,1.0,1.0,3.0,2.23606797749979,2.5,12.0,10.0,13.038404810405298
70,67,241,0,10.051708333333355,1.0,29.068883707497267,2.23606797749979,4.0,7.0710678118654755,8.06225774829855,11.180339887498949,18.24828759089466,14.317821063276353,13.5,11.0,13.0,1.0,6.0,1.0,1.0,2.23606797749979,2.23606797749979,2.5,12.0,10.0,12.041594578792296
71,67,242,0,10.093416666666691,1.0,28.160255680657446,2.23606797749979,4.0,7.0710678118654755,7.0,11.180339887498949,18.24828759089466,14.317821063276353,13.5,11.0,14.0,1.5,5.5,0.5,0.5,3.0,3.1622776601683795,3.0,13.0,10.0,12.041594578792296
72,67,243,0,10.135125000000023,2.0,30.066592756745816,3.1622776601683795,5.0990195135927845,8.0,8.0,9.055385138137417,19.235384061671343,14.142135623730951,13.0,11.0,13.0,3.0,7.0,2.0,1.0,3.0,3.1622776601683795,2.5,12.0,9.0,12.0
73,67,244,0,10.17683333333336,1.4142135623730951,28.071337695236398,2.0,4.0,9.0,9.055385138137417,11.180339887498949,18.24828759089466,14.317821063276353,13.5,12.0,14.0,2.0,5.0,0.0,0.0,2.0,3.0,3.0,11.0,9.0,12.041594578792296
74,67,245,0,10.218541666666694,1.4142135623730951,27.16615541441225,3.0,5.0,7.0710678118654755,7.0710678118654755,11.40175425099138,20.396078054371138,15.524174696260024,14.5,12.0,15.0,2.5,6.5,0.5,0.5,1.0,2.23606797749979,1.5,13.0,10.0,12.041594578792296
75,67,246,0,10.260250000000028,3.0,28.071337695236398,2.0,4.123105625617661,8.06225774829855,8.0,11.180339887498949,20.223748416156685,16.1245154965971,14.5,13.0,15.0,3.0,6.0,1.0,1.0,2.0,2.23606797749979,2.0,13.0,10.0,11.045361017187261
76,67,247,0,10.301958333333362,4.0,27.294688127912362,2.23606797749979,4.123105625617661,7.0710678118654755,8.06225774829855,10.04987562112089,20.223748416156685,16.1245154965971,14.0,13.0,17.0,5.0,5.0,0.0,2.0,2.0,2.23606797749979,2.0,14.0,10.0,14.035668847618199
77,67,248,0,10.343666666666696,3.0,27.294688127912362,3.0,4.0,6.082762530298219,7.0710678118654755,11.180339887498949,21.095023109728988,17.11724276862369,15.5,13.0,17.0,4.0,6.0,1.0,0.0,2.0,2.0,2.0,15.0,11.0,13.038404810405298
78,67,249,0,10.38537500000003,5.0,29.154759474226502,3.0,5.0990195135927845,8.06225774829855,8.06225774829855,9.055385138137417,22.090722034374522,17.029386365926403,14.5,12.0,15.0,4.5,8.5,2.5,1.5,2.0,2.0,2.0,15.0,11.0,16.0312195418814
79,67,250,0,10.427083333333364,5.0,27.16615541441225,3.0,5.0,7.0710678118654755,7.0710678118654755,9.055385138137417,22.02271554554524,17.029386365926403,14.5,15.0,18.0,7.5,5.5,0.5,4.5,2.0,2.0,2.0,14.0,10.0,14.142135623730951
80,67,251,0,10.468791666666698,5.0,27.294688127912362,3.1622776601683795,4.0,7.0710678118654755,7.280109889280518,9.055385138137417,21.095023109728988,17.11724276862369,14.5,13.0,17.0,6.0,6.0,1.0,3.0,2.0,3.0,3.0,15.0,10.0,15.033296378372908
81,67,252,0,10.510500000000032,6.082762530298219,25.317977802344327,2.0,5.0,6.082762530298219,7.0710678118654755,10.04987562112089,23.08679276123039,18.110770276274835,15.0,15.0,19.0,7.0,6.0,0.0,5.0,2.23606797749979,3.1622776601683795,3.0,14.0,9.0,14.142135623730951
82,67,253,0,10.552208333333366,6.0,26.30589287593181,2.0,5.0990195135927845,6.082762530298219,6.324555320336759,10.04987562112089,23.08679276123039,18.027756377319946,15.0,14.0,18.0,6.0,7.0,1.0,4.0,2.0,2.23606797749979,2.0,13.0,9.0,13.038404810405298
83,67,254,0,10.5939166666667,8.0,26.476404589747453,2.23606797749979,5.0990195135927845,6.082762530298219,6.324555320336759,9.055385138137417,24.186773244895647,19.1049731745428,15.0,13.0,18.0,6.5,8.5,2.5,3.5,2.0,3.1622776601683795,3.0,14.0,9.0,13.038404810405298
84,67,255,0,10.635625000000037,5.0,25.179356624028344,2.0,5.0990195135927845,6.082762530298219,7.0710678118654755,11.40175425099138,23.345235059857504,18.24828759089466,15.5,14.0,17.0,4.5,7.5,2.5,2.5,2.23606797749979,2.23606797749979,2.0,14.0,9.0,14.035668847618199
85,67,256,0,10.677333333333369,1.0,27.459060435491963,3.1622776601683795,4.123105625617661,6.082762530298219,7.0710678118654755,11.180339887498949,19.4164878389476,15.297058540778355,14.5,13.0,18.0,4.5,3.5,1.5,1.5,3.0,3.0,3.0,14.0,8.0,12.165525060596439
86,67,257,0,10.719041666666705,1.4142135623730951,27.65863337187866,3.0,3.1622776601683795,7.0710678118654755,7.280109889280518,12.165525060596439,19.4164878389476,16.278820596099706,15.5,14.0,20.0,5.0,2.0,2.0,2.0,2.23606797749979,2.23606797749979,2.5,14.0,8.0,12.041594578792296
87,67,258,0,10.760750000000035,5.0990195135927845,27.459060435491963,3.0,4.123105625617661,7.280109889280518,8.246211251235321,11.40175425099138,23.53720459187964,19.4164878389476,16.5,14.0,19.0,5.5,6.5,1.5,1.5,2.0,3.1622776601683795,3.0,15.0,7.0,14.142135623730951
88,67,259,0,10.802458333333371,7.0,25.96150997149434,4.123105625617661,5.0990195135927845,7.0710678118654755,7.280109889280518,10.44030650891055,26.476404589747453,21.37755832643195,17.5,14.0,21.0,7.5,8.5,2.5,3.5,2.23606797749979,3.0,3.0,16.0,8.0,13.152946437965905
89,67,260,0,10.844166666666704,7.0710678118654755,27.65863337187866,3.1622776601683795,5.0990195135927845,7.280109889280518,8.246211251235321,11.045361017187261,26.30589287593181,21.213203435596427,17.5,14.0,20.0,6.0,9.0,3.0,2.0,2.0,2.23606797749979,2.5,15.0,7.0,14.317821063276353
90,67,261,0,10.88587500000004,6.0,26.68332812825267,3.1622776601683795,5.0990195135927845,6.324555320336759,7.280109889280518,10.198039027185569,24.331050121192877,19.235384061671343,16.0,13.0,19.0,6.0,8.0,1.0,2.0,2.0,3.1622776601683795,3.0,16.0,7.0,13.341664064126334
91,67,262,0,10.927583333333374,6.082762530298219,25.96150997149434,3.1622776601683795,4.123105625617661,7.615773105863909,7.280109889280518,10.04987562112089,23.345235059857504,19.235384061671343,16.0,13.0,20.0,6.5,6.5,1.5,2.5,2.0,2.23606797749979,2.0,15.0,7.0,12.165525060596439
92,67,263,0,10.969291666666708,4.0,26.92582403567252,2.23606797749979,4.123105625617661,6.082762530298219,7.615773105863909,11.180339887498949,21.37755832643195,17.26267650163207,15.0,11.0,18.0,3.5,6.5,0.5,1.5,2.0,2.23606797749979,2.0,15.0,7.0,13.341664064126334
93,67,264,0,11.011000000000042,4.123105625617661,25.96150997149434,2.0,3.1622776601683795,7.280109889280518,7.280109889280518,10.44030650891055,19.6468827043885,16.492422502470642,14.0,11.0,18.0,4.5,4.5,0.5,1.5,2.23606797749979,3.0,3.0,16.0,7.0,13.601470508735444
94,67,265,0,11.052708333333376,2.0,27.892651361962706,2.23606797749979,4.123105625617661,6.324555320336759,7.280109889280518,10.198039027185569,18.439088914585774,14.317821063276353,13.0,10.0,17.0,3.5,4.5,0.5,0.5,2.23606797749979,3.0,3.0,15.0,7.0,12.36931687685298
95,67,266,0,11.09441666666671,3.1622776601683795,26.68332812825267,2.0,4.123105625617661,7.280109889280518,7.615773105863909,10.198039027185569,19.4164878389476,15.297058540778355,13.5,11.0,17.0,4.0,5.0,1.0,1.0,2.23606797749979,3.1622776601683795,3.0,15.0,7.0,13.341664064126334
96,67,267,0,11.136125000000044,3.1622776601683795,25.709920264364882,2.0,4.123105625617661,7.0710678118654755,8.54400374531753,10.44030650891055,19.6468827043885,15.524174696260024,13.5,10.0,16.0,3.0,6.0,0.0,1.0,3.1622776601683795,3.0,3.0,16.0,7.0,12.36931687685298
97,67,268,0,11.177833333333378,4.123105625617661,25.709920264364882,2.23606797749979,4.123105625617661,7.280109889280518,8.246211251235321,10.198039027185569,20.615528128088304,16.492422502470642,14.0,11.0,17.0,4.0,6.0,0.0,1.0,3.1622776601683795,3.1622776601683795,3.0,15.0,7.0,13.341664064126334
98,67,269,0,11.219541666666712,4.123105625617661,27.65863337187866,2.0,5.0990195135927845,6.324555320336759,7.280109889280518,10.44030650891055,21.587033144922902,16.492422502470642,14.0,10.0,16.0,3.0,8.0,1.0,0.0,3.1622776601683795,3.1622776601683795,3.0,15.0,7.0,13.341664064126334
99,67,270,0,11.261250000000048,1.4142135623730951,26.476404589747453,2.0,5.0990195135927845,7.280109889280518,7.280109889280518,11.40175425099138,19.6468827043885,14.560219778561036,13.5,11.0,16.0,2.5,5.5,0.5,0.5,3.0,3.1622776601683795,3.0,14.0,7.0,13.341664064126334
100,67,271,0,11.30295833333338,0.0,26.476404589747453,2.23606797749979,5.0990195135927845,7.0710678118654755,7.0710678118654755,11.180339887498949,18.439088914585774,13.341664064126334,13.0,11.0,16.0,2.5,4.5,1.5,0.5,2.23606797749979,3.0,3.0,15.0,8.0,12.36931687685298
101,67,272,0,11.344666666666717,1.4142135623730951,25.495097567963924,2.0,5.0990195135927845,6.324555320336759,7.280109889280518,10.44030650891055,18.681541692269406,13.601470508735444,12.5,10.0,15.0,2.5,5.5,0.5,0.5,3.1622776601683795,3.1622776601683795,3.0,14.0,7.0,12.165525060596439
102,67,273,0,11.386375000000047,1.4142135623730951,25.495097567963924,2.0,5.0990195135927845,6.324555320336759,6.324555320336759,11.40175425099138,19.6468827043885,14.560219778561036,13.5,10.0,15.0,1.5,6.5,0.5,0.5,3.1622776601683795,3.0,3.0,13.0,7.0,13.152946437965905
103,67,274,0,11.428083333333385,1.4142135623730951,28.635642126552707,3.0,5.0990195135927845,7.280109889280518,7.280109889280518,10.44030650891055,19.6468827043885,14.560219778561036,13.5,9.0,15.0,2.0,7.0,1.0,1.0,3.1622776601683795,4.123105625617661,4.0,14.0,8.0,14.035668847618199
104,67,275,0,11.469791666666715,2.23606797749979,27.294688127912362,2.0,5.0990195135927845,6.324555320336759,7.0710678118654755,10.44030650891055,19.6468827043885,14.560219778561036,13.0,10.0,14.0,2.0,7.0,1.0,1.0,2.0,3.0,2.5,14.0,8.0,13.152946437965905
105,67,276,0,11.511500000000051,4.0,28.284271247461902,2.23606797749979,4.123105625617661,8.06225774829855,8.06225774829855,10.198039027185569,20.396078054371138,16.278820596099706,14.0,11.0,15.0,3.0,7.0,2.0,1.0,3.0,3.1622776601683795,3.0,14.0,8.0,13.152946437965905
106,67,277,0,11.553208333333384,3.0,26.30589287593181,2.23606797749979,4.123105625617661,7.0710678118654755,7.280109889280518,10.198039027185569,19.4164878389476,15.297058540778355,13.5,11.0,15.0,3.0,6.0,1.0,1.0,3.1622776601683795,3.1622776601683795,3.0,14.0,8.0,12.165525060596439
107,67,278,0,11.59491666666672,3.1622776601683795,27.294688127912362,2.0,5.0,7.0710678118654755,7.0710678118654755,10.44030650891055,20.396078054371138,15.524174696260024,13.5,11.0,15.0,3.0,7.0,1.0,0.0,3.0,2.23606797749979,2.0,13.0,8.0,13.152946437965905
108,67,279,0,11.636625000000054,2.23606797749979,27.294688127912362,2.0,5.0,7.0710678118654755,7.0710678118654755,11.180339887498949,20.223748416156685,15.297058540778355,14.0,11.0,15.0,2.0,7.0,1.0,0.0,3.1622776601683795,4.0,4.0,14.0,9.0,12.165525060596439
109,67,280,0,11.678333333333388,2.23606797749979,27.459060435491963,2.0,5.0990195135927845,7.0710678118654755,7.0710678118654755,10.44030650891055,19.6468827043885,14.560219778561036,13.0,10.0,15.0,2.5,6.5,0.5,0.5,3.1622776601683795,4.123105625617661,4.0,14.0,9.0,12.041594578792296
110,67,281,0,11.720041666666722,1.4142135623730951,26.476404589747453,2.0,5.0990195135927845,7.0710678118654755,7.280109889280518,11.180339887498949,19.4164878389476,14.317821063276353,13.5,10.0,15.0,1.5,6.5,0.5,0.5,3.1622776601683795,3.1622776601683795,3.0,13.0,8.0,13.152946437965905
111,67,282,0,11.761750000000056,1.4142135623730951,26.30589287593181,2.0,4.0,7.0710678118654755,7.280109889280518,11.40175425099138,18.439088914585774,14.560219778561036,13.5,11.0,15.0,2.0,5.0,0.0,0.0,2.23606797749979,3.0,3.0,13.0,8.0,13.038404810405298
112,67,283,0,11.80345833333339,1.4142135623730951,26.30589287593181,1.0,4.0,7.0710678118654755,7.0710678118654755,11.40175425099138,17.46424919657298,13.601470508735444,12.5,10.0,14.0,1.0,5.0,0.0,0.0,3.1622776601683795,3.0,3.0,13.0,8.0,12.165525060596439
113,67,284,0,11.845166666666724,1.0,27.459060435491963,2.0,4.123105625617661,7.0710678118654755,7.280109889280518,11.40175425099138,17.72004514666935,13.601470508735444,13.0,10.0,15.0,1.5,4.5,0.5,0.5,3.1622776601683795,3.1622776601683795,3.5,14.0,9.0,13.038404810405298
114,67,285,0,11.886875000000058,1.0,27.294688127912362,2.23606797749979,5.0990195135927845,7.0710678118654755,8.06225774829855,11.40175425099138,19.6468827043885,14.560219778561036,13.5,11.0,15.0,2.0,6.0,0.0,0.0,3.1622776601683795,3.0,3.5,14.0,8.0,12.041594578792296
115,67,286,0,11.928583333333393,3.1622776601683795,27.294688127912362,2.0,5.0990195135927845,7.0710678118654755,8.06225774829855,11.40175425099138,21.587033144922902,16.492422502470642,14.5,11.0,15.0,2.0,8.0,2.0,0.0,3.1622776601683795,3.0,3.0,14.0,8.0,12.041594578792296
116,67,287,0,11.970291666666729,3.1622776601683795,27.294688127912362,2.0,5.0990195135927845,7.0710678118654755,8.06225774829855,10.44030650891055,20.615528128088304,15.524174696260024,13.5,10.0,14.0,2.0,8.0,2.0,0.0,3.0,3.1622776601683795,3.0,14.0,8.0,13.038404810405298
117,67,288,0,12.01200000000006,0.0,27.294688127912362,2.23606797749979,5.0990195135927845,7.0710678118654755,7.0710678118654755,11.180339887498949,18.439088914585774,13.341664064126334,13.0,10.0,14.0,1.0,6.0,0.0,1.0,3.0,3.1622776601683795,3.0,13.0,8.0,12.041594578792296
118,67,289,0,12.053708333333397,1.0,27.294688127912362,2.0,4.123105625617661,7.0710678118654755,8.06225774829855,9.486832980505138,16.492422502470642,12.36931687685298,11.5,9.0,13.0,2.0,5.0,0.0,0.0,3.0,3.0,3.0,13.0,8.0,13.038404810405298
119,67,290,0,12.095416666666727,1.4142135623730951,26.30589287593181,2.0,5.0,7.0710678118654755,7.0710678118654755,9.219544457292887,17.26267650163207,12.36931687685298,11.5,9.0,13.0,2.0,6.0,0.0,0.0,3.0,3.1622776601683795,3.0,13.0,8.0,13.038404810405298
120,67,291,0,12.137125000000063,4.123105625617661,27.294688127912362,2.0,5.0,7.0710678118654755,7.0710678118654755,9.486832980505138,20.396078054371138,15.524174696260024,13.0,9.0,13.0,2.0,9.0,3.0,0.0,3.1622776601683795,3.0,3.0,12.0,8.0,13.038404810405298
121,67,292,0,12.178833333333396,4.123105625617661,28.442925306655784,1.0,5.0,8.246211251235321,9.219544457292887,10.44030650891055,20.396078054371138,15.524174696260024,13.0,9.0,14.0,1.5,8.5,2.5,0.5,2.23606797749979,3.1622776601683795,3.0,12.0,8.0,13.038404810405298
122,67,293,0,12.220541666666731,3.1622776601683795,27.294688127912362,2.0,6.0,8.06225774829855,9.219544457292887,9.486832980505138,20.396078054371138,14.560219778561036,12.5,10.0,14.0,3.0,8.0,1.0,1.0,3.0,3.1622776601683795,3.0,12.0,7.0,13.152946437965905
123,67,294,0,12.262250000000066,2.23606797749979,26.30589287593181,2.0,4.123105625617661,7.0710678118654755,8.246211251235321,11.40175425099138,19.6468827043885,15.524174696260024,14.0,11.0,15.0,2.0,6.0,1.0,0.0,3.1622776601683795,3.1622776601683795,3.0,12.0,8.0,13.152946437965905
124,67,295,0,12.3039583333334,0.0,25.317977802344327,2.23606797749979,5.0990195135927845,7.0710678118654755,7.0710678118654755,12.165525060596439,19.4164878389476,14.317821063276353,14.0,12.0,16.0,2.0,5.0,1.0,0.0,2.23606797749979,3.1622776601683795,3.0,12.0,7.0,13.038404810405298
125,67,296,0,12.345666666666734,3.1622776601683795,26.476404589747453,3.0,5.0,8.06225774829855,7.0710678118654755,10.44030650891055,21.37755832643195,16.492422502470642,14.5,11.0,16.0,3.5,7.5,1.5,0.5,2.0,2.0,2.0,11.0,7.0,11.045361017187261
126,67,297,0,12.387375000000068,5.0,26.476404589747453,2.23606797749979,5.0990195135927845,7.280109889280518,8.06225774829855,9.219544457292887,21.37755832643195,16.278820596099706,13.5,11.0,16.0,4.5,7.5,1.5,1.5,2.0,3.1622776601683795,3.0,11.0,7.0,10.04987562112089
127,67,298,0,12.429083333333402,5.0,26.68332812825267,2.0,4.123105625617661,8.246211251235321,8.246211251235321,9.219544457292887,20.223748416156685,16.1245154965971,13.5,10.0,16.0,4.0,7.0,1.0,1.0,2.23606797749979,3.1622776601683795,3.0,11.0,7.0,10.0
128,67,299,0,12.470791666666736,4.123105625617661,28.442925306655784,2.0,5.0,9.055385138137417,9.219544457292887,9.219544457292887,20.223748416156685,15.297058540778355,13.0,10.0,15.0,3.5,7.5,1.5,1.5,2.0,2.0,2.0,11.0,7.0,11.045361017187261
129,67,300,0,12.51250000000007,3.1622776601683795,28.635642126552707,2.0,4.123105625617661,7.0710678118654755,8.246211251235321,9.219544457292887,18.439088914585774,14.317821063276353,12.5,9.0,15.0,3.0,6.0,1.0,1.0,2.0,2.23606797749979,2.0,11.0,7.0,10.04987562112089
130,67,301,0,12.554208333333404,4.123105625617661,27.294688127912362,1.0,4.0,7.280109889280518,8.246211251235321,10.198039027185569,19.235384061671343,15.297058540778355,13.0,11.0,15.0,3.0,6.0,1.0,1.0,2.0,3.1622776601683795,2.5,12.0,8.0,12.041594578792296
131,67,302,0,12.59591666666674,4.123105625617661,27.294688127912362,2.0,5.0990195135927845,7.280109889280518,8.06225774829855,10.44030650891055,21.587033144922902,16.492422502470642,14.0,12.0,16.0,4.0,7.0,1.0,1.0,2.23606797749979,2.0,2.0,12.0,8.0,11.045361017187261
132,67,303,0,12.637625000000073,4.123105625617661,26.30589287593181,2.0,5.0990195135927845,7.280109889280518,8.06225774829855,10.44030650891055,21.587033144922902,16.492422502470642,14.0,12.0,16.0,4.0,7.0,1.0,1.0,2.0,3.0,3.0,13.0,8.0,13.038404810405298
133,67,304,0,12.679333333333409,4.123105625617661,26.30589287593181,2.0,5.0990195135927845,7.0710678118654755,8.06225774829855,11.180339887498949,22.360679774997898,17.26267650163207,15.0,13.0,17.0,4.0,7.0,1.0,2.0,3.1622776601683795,3.0,3.0,12.0,8.0,12.041594578792296
134,67,305,0,12.72104166666674,5.0990195135927845,26.30589287593181,2.0,4.123105625617661,7.0710678118654755,8.246211251235321,10.44030650891055,21.587033144922902,17.46424919657298,14.5,12.0,16.0,4.0,7.0,2.0,2.0,3.0,3.1622776601683795,3.0,12.0,8.0,12.165525060596439
135,67,306,0,12.762750000000077,5.0,26.30589287593181,2.23606797749979,4.123105625617661,6.082762530298219,7.280109889280518,10.198039027185569,21.37755832643195,17.26267650163207,14.5,13.0,17.0,5.0,6.0,1.0,2.0,3.0,4.0,4.0,13.0,9.0,13.038404810405298
136,67,307,0,12.80445833333341,5.0990195135927845,26.30589287593181,2.0,4.123105625617661,7.0710678118654755,8.06225774829855,10.44030650891055,21.587033144922902,17.46424919657298,14.5,12.0,16.0,4.0,7.0,2.0,2.0,3.0,4.0,3.5,13.0,8.0,14.035668847618199
137,67,308,0,12.846166666666743,4.123105625617661,26.30589287593181,2.0,4.123105625617661,7.280109889280518,8.246211251235321,10.44030650891055,20.615528128088304,16.492422502470642,14.0,12.0,16.0,4.0,6.0,1.0,1.0,3.0,4.0,4.0,12.0,8.0,13.038404810405298
138,67,309,0,12.887875000000076,1.4142135623730951,26.30589287593181,3.0,5.0990195135927845,7.280109889280518,8.06225774829855,10.198039027185569,19.4164878389476,14.317821063276353,13.5,12.0,16.0,4.0,5.0,1.0,0.0,3.0,3.1622776601683795,3.0,12.0,8.0,12.165525060596439
139,67,310,0,12.929583333333412,1.4142135623730951,27.294688127912362,2.0,4.0,7.0710678118654755,7.0710678118654755,11.180339887498949,18.24828759089466,14.317821063276353,13.5,12.0,16.0,3.0,4.0,1.0,1.0,3.0,3.1622776601683795,3.0,12.0,8.0,12.041594578792296
140,67,311,0,12.971291666666746,0.0,27.16615541441225,2.23606797749979,4.0,7.0710678118654755,7.0710678118654755,11.045361017187261,17.11724276862369,13.152946437965905,13.0,12.0,15.0,2.5,3.5,1.5,0.5,3.0,3.1622776601683795,3.0,13.0,9.0,13.038404810405298
141,67,312,0,13.01300000000008,1.0,27.16615541441225,2.0,5.0990195135927845,7.0,8.06225774829855,11.180339887498949,19.235384061671343,14.142135623730951,13.5,12.0,15.0,2.5,5.5,0.5,0.5,4.0,3.0,3.0,13.0,9.0,13.038404810405298
142,67,313,0,13.054708333333414,2.0,25.079872407968907,3.1622776601683795,5.0,6.082762530298219,7.0710678118654755,10.04987562112089,20.09975124224178,15.132745950421556,14.0,13.0,15.0,4.0,6.0,0.0,1.0,2.0,3.0,3.0,12.0,9.0,12.041594578792296
143,67,314,0,13.096416666666748,2.0,24.08318915758459,2.0,5.0,6.0,6.0,11.180339887498949,20.09975124224178,15.132745950421556,14.0,13.0,15.0,3.0,6.0,1.0,1.0,2.0,3.0,2.5,13.0,11.0,11.0
144,67,315,0,13.138125000000082,1.0,24.0,3.0,5.0,5.0990195135927845,6.0,11.045361017187261,20.024984394500787,15.033296378372908,14.5,15.0,15.0,4.0,5.0,0.0,1.0,1.4142135623730951,2.0,1.5,12.0,12.0,11.045361017187261
145,67,316,0,13.179833333333416,0.0,23.021728866442675,3.0,5.0,7.0,7.0,12.041594578792296,20.024984394500787,15.033296378372908,15.0,16.0,15.0,3.5,4.5,0.5,0.5,1.0,1.0,1.5,11.0,12.0,10.0
146,67,317,0,13.22154166666675,1.0,26.076809620810597,3.0,4.0,6.082762530298219,6.082762530298219,11.045361017187261,18.110770276274835,14.142135623730951,14.0,15.0,13.0,3.0,4.0,1.0,1.0,2.0,1.0,1.5,10.0,13.0,10.04987562112089
147,67,318,0,13.263250000000085,0.0,27.16615541441225,2.0,4.0,6.0,6.082762530298219,12.165525060596439,18.110770276274835,14.142135623730951,14.0,16.0,13.0,2.5,3.5,0.5,0.5,2.23606797749979,2.0,2.0,10.0,14.0,11.045361017187261
148,67,319,0,13.30495833333342,1.0,27.65863337187866,3.1622776601683795,4.123105625617661,6.324555320336759,6.324555320336759,10.198039027185569,18.0,14.035668847618199,13.5,17.0,11.0,4.0,4.0,1.0,2.0,4.123105625617661,4.0,4.0,9.0,14.0,10.198039027185569
149,67,320,0,13.346666666666756,1.0,26.68332812825267,3.1622776601683795,4.123105625617661,6.324555320336759,6.324555320336759,10.04987562112089,18.027756377319946,14.0,13.5,18.0,12.0,5.0,3.0,0.0,3.0,4.123105625617661,4.123105625617661,4.0,8.0,14.0,10.198039027185569
150,67,321,0,13.388375000000089,0.0,25.709920264364882,3.0,4.123105625617661,6.082762530298219,6.324555320336759,11.0,18.027756377319946,14.0,14.0,19.0,13.0,5.0,2.0,1.0,3.0,4.123105625617661,4.47213595499958,4.0,7.0,14.0,11.180339887498949
151,67,322,0,13.43008333333342,0.0,27.65863337187866,2.23606797749979,4.123105625617661,6.082762530298219,6.324555320336759,12.0,18.110770276274835,14.035668847618199,14.0,19.0,13.0,4.0,2.0,1.0,2.0,4.0,4.123105625617661,4.0,6.0,14.0,11.045361017187261
152,67,323,0,13.471791666666755,0.0,26.68332812825267,3.1622776601683795,3.1622776601683795,6.082762530298219,6.324555320336759,12.041594578792296,18.24828759089466,15.132745950421556,15.0,19.0,13.0,4.0,2.0,1.0,2.0,4.123105625617661,4.123105625617661,4.0,6.0,15.0,11.40175425099138
153,67,324,0,13.51350000000009,1.0,25.96150997149434,3.0,4.123105625617661,6.082762530298219,6.708203932499369,11.045361017187261,18.24828759089466,14.142135623730951,14.0,19.0,12.0,4.5,2.5,1.5,2.5,4.123105625617661,4.123105625617661,4.0,6.0,16.0,11.40175425099138
154,67,325,0,13.555208333333423,1.0,25.96150997149434,2.23606797749979,4.123105625617661,6.324555320336759,6.708203932499369,12.0,18.24828759089466,14.142135623730951,14.0,19.0,12.0,3.5,2.5,0.5,2.5,4.123105625617661,4.47213595499958,4.0,5.0,16.0,13.601470508735444
155,67,326,0,13.596916666666758,1.0,26.248809496813376,2.0,4.47213595499958,6.324555320336759,6.708203932499369,12.041594578792296,18.439088914585774,14.142135623730951,14.0,19.0,11.0,3.0,3.0,1.0,2.0,4.123105625617661,4.47213595499958,4.0,5.0,16.0,12.649110640673518
156,67,327,0,13.638625000000092,1.4142135623730951,26.570660511172846,2.23606797749979,4.123105625617661,6.324555320336759,7.615773105863909,13.038404810405298,18.439088914585774,14.317821063276353,14.5,20.0,11.0,2.5,2.5,0.5,2.5,3.1622776601683795,4.47213595499958,4.0,4.0,16.0,13.341664064126334
157,67,328,0,13.680333333333426,1.0,27.85677655436824,4.123105625617661,4.47213595499958,7.615773105863909,8.06225774829855,10.04987562112089,18.681541692269406,14.317821063276353,14.0,19.0,9.0,4.0,4.0,1.0,2.0,3.1622776601683795,2.23606797749979,2.5,4.0,16.0,14.560219778561036
158,67,329,0,13.72204166666676,4.123105625617661,28.160255680657446,2.23606797749979,4.123105625617661,7.280109889280518,7.615773105863909,11.0,21.213203435596427,17.11724276862369,15.0,19.0,11.0,4.0,6.0,3.0,3.0,4.123105625617661,4.47213595499958,4.0,6.0,15.0,13.341664064126334
159,67,330,0,13.763750000000094,4.123105625617661,27.202941017470888,2.23606797749979,4.123105625617661,7.280109889280518,8.54400374531753,11.045361017187261,21.37755832643195,17.26267650163207,15.0,19.0,11.0,4.0,6.0,3.0,3.0,4.123105625617661,4.123105625617661,4.0,4.0,18.0,13.92838827718412
160,67,331,0,13.805458333333428,4.0,27.202941017470888,2.23606797749979,3.605551275463989,7.0710678118654755,7.280109889280518,12.165525060596439,21.587033144922902,18.24828759089466,16.0,20.0,12.0,4.0,5.0,2.0,3.0,4.47213595499958,3.1622776601683795,3.5,4.0,18.0,16.15549442140351
161,67,332,0,13.847166666666762,4.123105625617661,27.202941017470888,2.23606797749979,3.605551275463989,7.280109889280518,7.280109889280518,12.041594578792296,21.587033144922902,18.24828759089466,16.0,20.0,12.0,4.0,5.0,2.0,3.0,3.605551275463989,3.1622776601683795,3.5,4.0,17.0,13.92838827718412
162,67,333,0,13.888875000000096,3.1622776601683795,26.92582403567252,2.23606797749979,4.47213595499958,7.280109889280518,8.54400374531753,13.152946437965905,22.80350850198276,18.439088914585774,16.5,20.0,13.0,3.5,5.5,2.5,3.5,3.1622776601683795,3.605551275463989,3.0,4.0,18.0,14.866068747318506
163,67,334,0,13.93058333333343,4.123105625617661,28.160255680657446,2.23606797749979,4.123105625617661,7.280109889280518,8.246211251235321,12.165525060596439,22.561028345356956,18.439088914585774,16.0,20.0,12.0,4.0,6.0,2.0,3.0,3.1622776601683795,3.605551275463989,3.5,3.0,17.0,14.866068747318506
164,67,335,0,13.972291666666765,4.123105625617661,28.160255680657446,3.1622776601683795,3.605551275463989,7.280109889280518,8.246211251235321,11.045361017187261,21.587033144922902,18.24828759089466,16.0,20.0,12.0,5.0,5.0,2.0,3.0,3.1622776601683795,3.1622776601683795,3.0,4.0,18.0,14.866068747318506
165,67,336,0,14.0140000000001,4.123105625617661,27.51363298439521,2.23606797749979,3.605551275463989,7.280109889280518,7.615773105863909,13.038404810405298,22.561028345356956,19.235384061671343,17.0,21.0,12.0,3.5,5.5,2.5,3.5,3.1622776601683795,3.1622776601683795,3.5,3.0,17.0,14.866068747318506
166,67,337,0,14.055708333333431,4.123105625617661,27.202941017470888,2.23606797749979,3.1622776601683795,7.280109889280518,8.246211251235321,12.165525060596439,21.587033144922902,18.439088914585774,16.0,20.0,12.0,4.0,5.0,2.0,4.0,3.605551275463989,3.605551275463989,3.0,3.0,17.0,13.92838827718412
167,67,338,0,14.097416666666769,4.123105625617661,27.202941017470888,2.23606797749979,3.605551275463989,7.280109889280518,7.280109889280518,12.165525060596439,21.840329667841555,18.439088914585774,16.0,20.0,12.0,4.0,5.0,2.0,3.0,4.123105625617661,3.605551275463989,3.5,3.0,17.0,13.92838827718412
168,67,339,0,14.1391250000001,4.123105625617661,25.96150997149434,1.4142135623730951,4.47213595499958,7.280109889280518,7.280109889280518,13.038404810405298,22.561028345356956,18.24828759089466,16.0,20.0,13.0,3.5,5.5,2.5,3.5,3.1622776601683795,3.1622776601683795,3.0,4.0,18.0,14.317821063276353
169,67,340,0,14.180833333333435,4.123105625617661,28.160255680657446,2.23606797749979,3.605551275463989,7.0710678118654755,7.280109889280518,12.041594578792296,21.587033144922902,18.24828759089466,16.0,19.0,11.0,3.0,6.0,3.0,2.0,2.23606797749979,2.8284271247461903,2.0,5.0,19.0,13.0
170,67,341,0,14.22254166666677,4.123105625617661,27.892651361962706,2.23606797749979,3.605551275463989,8.246211251235321,7.280109889280518,12.041594578792296,21.587033144922902,18.24828759089466,16.0,19.0,12.0,3.5,5.5,2.5,2.5,2.8284271247461903,2.23606797749979,2.0,5.0,19.0,13.92838827718412
171,67,342,0,14.264250000000104,3.605551275463989,27.202941017470888,1.0,3.1622776601683795,7.280109889280518,8.246211251235321,12.165525060596439,19.6468827043885,16.492422502470642,14.5,19.0,11.0,3.0,4.0,1.0,3.0,1.4142135623730951,2.23606797749979,1.0,4.0,18.0,13.0
172,67,343,0,14.305958333333438,3.1622776601683795,25.632011235952593,2.23606797749979,3.1622776601683795,7.280109889280518,8.246211251235321,11.045361017187261,19.4164878389476,16.278820596099706,14.5,20.0,11.0,4.5,3.5,0.5,3.5,2.23606797749979,1.4142135623730951,1.0,3.0,18.0,12.529964086141668
173,67,344,0,14.347666666666772,1.4142135623730951,25.632011235952593,2.0,5.385164807134504,7.615773105863909,7.615773105863909,12.165525060596439,20.615528128088304,15.297058540778355,14.5,20.0,11.0,3.5,4.5,0.5,3.5,1.4142135623730951,1.4142135623730951,1.0,2.0,17.0,13.416407864998739
174,67,345,0,14.389375000000106,1.4142135623730951,25.079872407968907,2.23606797749979,5.385164807134504,7.280109889280518,7.615773105863909,11.045361017187261,19.6468827043885,14.317821063276353,13.5,20.0,10.0,4.0,4.0,0.0,3.0,2.23606797749979,1.4142135623730951,1.0,1.0,15.0,12.083045973594572
175,67,346,0,14.43108333333344,1.4142135623730951,23.259406699226016,2.23606797749979,4.47213595499958,7.615773105863909,8.06225774829855,11.045361017187261,18.681541692269406,14.317821063276353,13.5,20.0,10.0,4.0,3.0,0.0,4.0,2.23606797749979,1.4142135623730951,1.5,2.0,15.0,10.295630140987
176,67,347,0,14.472791666666774,1.0,23.769728648009426,2.23606797749979,5.0990195135927845,6.708203932499369,7.615773105863909,11.180339887498949,18.681541692269406,13.601470508735444,13.0,19.0,10.0,3.5,3.5,0.5,3.5,1.4142135623730951,2.23606797749979,1.5,1.0,14.0,11.180339887498949
177,67,348,0,14.514500000000108,1.0,25.079872407968907,2.23606797749979,5.0990195135927845,7.615773105863909,7.615773105863909,11.045361017187261,18.439088914585774,13.341664064126334,13.0,20.0,10.0,4.0,3.0,1.0,4.0,2.23606797749979,2.23606797749979,1.5,2.0,15.0,12.083045973594572
178,67,349,0,14.556208333333442,1.4142135623730951,25.495097567963924,2.23606797749979,4.123105625617661,7.280109889280518,7.615773105863909,11.180339887498949,18.681541692269406,14.560219778561036,13.5,21.0,10.0,4.5,2.5,0.5,3.5,2.23606797749979,1.4142135623730951,1.5,2.0,15.0,12.083045973594572
179,67,350,0,14.597916666666777,1.0,25.079872407968907,2.23606797749979,5.385164807134504,7.280109889280518,8.94427190999916,11.045361017187261,18.681541692269406,13.341664064126334,13.0,20.0,10.0,4.0,3.0,0.0,3.0,2.23606797749979,2.23606797749979,2.0,1.0,15.0,11.180339887498949
180,67,351,0,14.63962500000011,1.0,26.0,2.23606797749979,5.385164807134504,7.280109889280518,8.94427190999916,11.045361017187261,18.681541692269406,13.341664064126334,13.0,20.0,10.0,4.0,3.0,1.0,3.0,2.23606797749979,2.23606797749979,2.0,2.0,15.0,12.529964086141668
181,67,352,0,14.681333333333445,1.0,23.769728648009426,1.4142135623730951,5.0990195135927845,7.615773105863909,7.615773105863909,12.041594578792296,18.439088914585774,13.341664064126334,13.0,19.0,10.0,2.5,3.5,0.5,3.5,2.23606797749979,2.23606797749979,2.0,1.0,14.0,11.180339887498949
182,67,353,0,14.72304166666678,1.0,25.079872407968907,2.23606797749979,5.385164807134504,7.615773105863909,7.615773105863909,11.045361017187261,18.681541692269406,13.341664064126334,13.0,20.0,10.0,4.0,3.0,1.0,4.0,2.23606797749979,2.23606797749979,2.0,1.0,15.0,12.083045973594572
183,67,354,0,14.764750000000111,1.4142135623730951,25.079872407968907,2.23606797749979,5.385164807134504,8.54400374531753,7.615773105863909,11.045361017187261,19.6468827043885,14.317821063276353,13.5,20.0,10.0,4.0,4.0,0.0,4.0,2.8284271247461903,1.4142135623730951,1.0,1.0,14.0,11.180339887498949
184,67,355,0,14.806458333333447,1.4142135623730951,24.166091947189145,1.4142135623730951,5.0990195135927845,8.246211251235321,8.06225774829855,12.041594578792296,19.4164878389476,14.317821063276353,13.5,20.0,10.0,3.0,4.0,0.0,3.0,1.4142135623730951,2.23606797749979,2.0,1.0,14.0,10.295630140987
185,67,356,0,14.84816666666678,1.4142135623730951,25.079872407968907,2.0,5.385164807134504,7.615773105863909,7.615773105863909,12.041594578792296,20.396078054371138,15.132745950421556,14.5,20.0,10.0,3.0,5.0,1.0,3.0,1.4142135623730951,2.23606797749979,2.0,1.0,14.0,10.295630140987
186,67,357,0,14.889875000000115,1.4142135623730951,23.769728648009426,2.23606797749979,5.0990195135927845,7.615773105863909,8.54400374531753,12.041594578792296,20.396078054371138,15.297058540778355,14.5,20.0,11.0,3.5,4.5,0.5,3.5,1.4142135623730951,2.23606797749979,2.0,1.0,14.0,11.180339887498949
187,67,358,0,14.93158333333345,1.4142135623730951,24.351591323771842,2.23606797749979,5.0990195135927845,7.280109889280518,7.615773105863909,11.045361017187261,19.4164878389476,14.317821063276353,13.5,18.0,10.0,3.0,5.0,1.0,2.0,1.4142135623730951,1.4142135623730951,1.5,1.0,14.0,11.180339887498949
188,67,359,0,14.973291666666784,3.1622776601683795,25.96150997149434,2.23606797749979,5.0990195135927845,7.280109889280518,7.615773105863909,11.045361017187261,21.37755832643195,16.278820596099706,14.5,17.0,10.0,2.5,7.5,3.5,2.5,1.4142135623730951,2.23606797749979,2.0,3.0,15.0,10.770329614269007
189,67,360,0,15.015000000000118,1.4142135623730951,25.96150997149434,2.23606797749979,5.0990195135927845,7.615773105863909,7.615773105863909,11.0,19.235384061671343,14.142135623730951,13.5,17.0,10.0,2.5,5.5,1.5,2.5,1.4142135623730951,2.0,2.0,3.0,14.0,12.083045973594572
190,67,361,0,15.056708333333452,1.0,25.0,2.23606797749979,4.123105625617661,8.246211251235321,8.246211251235321,11.0,18.110770276274835,14.035668847618199,13.5,17.0,10.0,2.5,4.5,1.5,1.5,1.4142135623730951,1.4142135623730951,1.5,4.0,14.0,9.848857801796104
191,67,362,0,15.098416666666786,1.4142135623730951,25.495097567963924,3.0,4.123105625617661,8.06225774829855,7.280109889280518,10.0,18.110770276274835,14.035668847618199,13.5,16.0,11.0,3.5,4.5,0.5,1.5,1.4142135623730951,2.0,1.5,5.0,13.0,8.54400374531753
192,67,363,0,15.14012500000012,1.0,25.495097567963924,2.0,5.0990195135927845,7.0710678118654755,8.06225774829855,11.0,19.026297590440446,14.0,13.5,17.0,12.0,3.5,4.5,0.5,2.5,1.4142135623730951,2.0,2.0,7.0,12.0,8.06225774829855
193,67,364,0,15.181833333333454,1.0,25.079872407968907,3.1622776601683795,6.0,7.0710678118654755,8.06225774829855,10.04987562112089,20.0,14.0,13.5,15.0,13.0,4.0,6.0,0.0,2.0,2.0,2.0,2.0,9.0,11.0,12.165525060596439
194,67,365,0,15.223541666666788,4.0,26.0,3.0,5.0,7.0710678118654755,7.0,10.0,22.0,17.0,15.0,15.0,15.0,5.0,7.0,2.0,3.0,3.0,3.0,3.0,10.0,10.0,12.041594578792296
195,67,366,0,15.265250000000124,5.0,25.019992006393608,2.0,6.0,8.0,8.0,11.180339887498949,24.08318915758459,18.110770276274835,15.5,16.0,17.0,5.5,7.5,1.5,3.5,2.0,3.0,3.0,11.0,10.0,14.0
196,67,367,0,15.306958333333457,3.0,25.079872407968907,3.0,5.0,6.082762530298219,7.0710678118654755,12.165525060596439,23.08679276123039,18.110770276274835,16.5,16.0,18.0,5.0,6.0,1.0,2.0,3.0,3.1622776601683795,3.0,12.0,9.0,13.0
197,67,368,0,15.34866666666679,1.0,26.1725046566048,2.0,4.123105625617661,7.0710678118654755,7.0710678118654755,13.152946437965905,20.223748416156685,16.1245154965971,15.5,16.0,19.0,4.5,2.5,2.5,2.5,3.0,4.123105625617661,4.0,11.0,7.0,12.041594578792296
198,67,369,0,15.390375000000123,1.0,26.30589287593181,2.0,4.123105625617661,7.0710678118654755,7.280109889280518,14.142135623730951,21.213203435596427,17.11724276862369,16.5,16.0,20.0,4.0,3.0,2.0,2.0,3.0,4.123105625617661,3.5,12.0,6.0,13.038404810405298
199,67,370,0,15.43208333333346,3.1622776601683795,24.331050121192877,3.0,6.082762530298219,6.082762530298219,7.0710678118654755,12.041594578792296,24.186773244895647,18.110770276274835,16.5,16.0,20.0,6.0,6.0,1.0,3.0,3.0,4.0,3.5,12.0,6.0,13.152946437965905
200,67,371,0,15.473791666666791,5.0,23.345235059857504,2.23606797749979,6.082762530298219,6.324555320336759,7.0710678118654755,12.041594578792296,25.179356624028344,19.1049731745428,16.5,16.0,20.0,6.0,7.0,0.0,3.0,2.0,4.123105625617661,3.5,13.0,6.0,12.165525060596439
201,67,372,0,15.515500000000127,4.123105625617661,23.53720459187964,3.1622776601683795,5.0990195135927845,6.082762530298219,6.324555320336759,12.041594578792296,24.331050121192877,19.235384061671343,17.0,16.0,21.0,6.5,5.5,0.5,3.5,3.1622776601683795,4.123105625617661,3.5,15.0,6.0,11.40175425099138
202,67,373,0,15.55720833333346,5.0,22.561028345356956,2.23606797749979,6.082762530298219,6.082762530298219,6.324555320336759,11.180339887498949,24.331050121192877,18.24828759089466,15.5,14.0,19.0,5.5,7.5,0.5,2.5,3.1622776601683795,3.1622776601683795,3.0,15.0,6.0,12.36931687685298
203,67,374,0,15.598916666666796,4.123105625617661,22.135943621178654,3.1622776601683795,6.082762530298219,5.385164807134504,6.324555320336759,10.198039027185569,23.53720459187964,17.46424919657298,15.0,12.0,19.0,5.5,7.5,0.5,1.5,3.1622776601683795,3.1622776601683795,3.0,16.0,6.0,12.36931687685298
204,67,375,0,15.64062500000013,4.123105625617661,21.840329667841555,2.23606797749979,5.0990195135927845,5.0990195135927845,6.324555320336759,11.40175425099138,22.80350850198276,17.72004514666935,15.0,13.0,19.0,5.0,6.0,0.0,2.0,2.23606797749979,3.605551275463989,2.5,16.0,5.0,10.770329614269007
205,67,376,0,15.682333333333464,2.0,22.135943621178654,3.605551275463989,6.324555320336759,5.385164807134504,6.324555320336759,11.180339887498949,22.80350850198276,16.492422502470642,15.0,12.0,19.0,4.5,6.5,0.5,1.5,3.605551275463989,3.1622776601683795,3.5,16.0,5.0,9.486832980505138
206,67,377,0,15.724041666666798,3.1622776601683795,22.47220505424423,2.8284271247461903,6.324555320336759,5.385164807134504,6.324555320336759,11.40175425099138,23.40939982143925,17.08800749063506,14.5,11.0,19.0,4.0,7.0,0.0,1.0,3.1622776601683795,3.605551275463989,3.0,17.0,5.0,10.770329614269007
207,67,378,0,15.765750000000132,3.1622776601683795,23.40939982143925,3.1622776601683795,5.385164807134504,5.385164807134504,6.324555320336759,11.40175425099138,23.08679276123039,17.72004514666935,15.5,11.0,19.0,4.0,7.0,1.0,0.0,3.605551275463989,3.1622776601683795,3.0,17.0,5.0,11.704699910719626
208,67,379,0,15.807458333333466,3.1622776601683795,23.08679276123039,2.23606797749979,5.385164807134504,5.385164807134504,6.324555320336759,11.40175425099138,22.135943621178654,16.76305461424021,14.5,10.0,17.0,2.5,7.5,1.5,0.5,3.605551275463989,3.605551275463989,3.0,17.0,4.0,12.083045973594572
209,67,380,0,15.8491666666668,3.1622776601683795,24.351591323771842,2.8284271247461903,5.385164807134504,6.324555320336759,6.708203932499369,10.44030650891055,21.540659228538015,16.15549442140351,13.5,9.0,17.0,3.0,7.0,1.0,0.0,3.1622776601683795,3.1622776601683795,3.0,17.0,5.0,11.40175425099138
210,67,381,0,15.890875000000134,3.1622776601683795,25.632011235952593,2.23606797749979,5.385164807134504,6.324555320336759,6.708203932499369,10.44030650891055,21.18962010041709,15.811388300841896,13.5,8.0,17.0,2.5,7.5,1.5,0.5,3.1622776601683795,3.1622776601683795,3.0,17.0,5.0,10.770329614269007
211,67,382,0,15.932583333333469,3.1622776601683795,26.570660511172846,2.23606797749979,5.385164807134504,7.280109889280518,7.280109889280518,11.704699910719626,22.47220505424423,17.08800749063506,14.5,8.0,17.0,1.5,8.5,1.5,0.5,3.605551275463989,3.1622776601683795,3.0,17.0,4.0,10.770329614269007
212,67,383,0,15.974291666666804,3.605551275463989,26.570660511172846,2.23606797749979,5.0990195135927845,6.324555320336759,7.615773105863909,11.40175425099138,22.135943621178654,17.08800749063506,14.5,8.0,17.0,1.5,8.5,2.5,1.5,3.1622776601683795,3.605551275463989,2.5,18.0,5.0,10.770329614269007
213,67,384,0,16.016000000000137,3.1622776601683795,26.248809496813376,2.23606797749979,5.385164807134504,5.385164807134504,7.615773105863909,11.704699910719626,22.47220505424423,17.08800749063506,14.5,9.0,17.0,2.0,8.0,1.0,1.0,3.1622776601683795,3.1622776601683795,3.5,17.0,5.0,12.649110640673518
214,67,385,0,16.05770833333347,2.23606797749979,26.570660511172846,2.23606797749979,5.0990195135927845,6.324555320336759,7.615773105863909,10.770329614269007,20.248456731316587,15.231546211727817,13.0,7.0,16.0,1.5,7.5,1.5,1.5,3.1622776601683795,3.1622776601683795,3.5,17.0,5.0,11.704699910719626
215,67,386,0,16.0994166666668,1.4142135623730951,25.298221281347036,3.0,5.385164807134504,7.280109889280518,7.280109889280518,10.770329614269007,20.248456731316587,14.866068747318506,13.5,9.0,17.0,3.0,6.0,0.0,0.0,3.1622776601683795,4.123105625617661,3.5,17.0,5.0,10.44030650891055
216,67,387,0,16.141125000000134,1.4142135623730951,25.96150997149434,2.23606797749979,5.385164807134504,6.324555320336759,7.280109889280518,10.44030650891055,19.313207915827967,13.92838827718412,12.5,9.0,16.0,2.5,5.5,0.5,0.5,3.1622776601683795,3.1622776601683795,3.5,16.0,6.0,11.704699910719626
217,67,388,0,16.182833333333466,2.23606797749979,28.160255680657446,1.4142135623730951,4.123105625617661,6.324555320336759,7.280109889280518,11.40175425099138,18.973665961010276,14.866068747318506,13.0,8.0,16.0,1.0,6.0,0.0,1.0,3.1622776601683795,3.605551275463989,3.0,15.0,5.0,11.40175425099138
218,67,389,0,16.2245416666668,1.4142135623730951,28.160255680657446,2.23606797749979,5.0990195135927845,6.324555320336759,7.280109889280518,10.44030650891055,18.973665961010276,13.92838827718412,12.5,8.0,16.0,2.0,6.0,0.0,1.0,3.1622776601683795,3.1622776601683795,3.5,15.0,6.0,12.36931687685298
219,67,390,0,16.26625000000013,1.4142135623730951,27.65863337187866,2.0,5.0990195135927845,7.280109889280518,7.280109889280518,11.40175425099138,19.6468827043885,14.560219778561036,13.5,10.0,16.0,2.0,6.0,0.0,1.0,3.1622776601683795,4.123105625617661,3.5,15.0,6.0,12.36931687685298
220,67,391,0,16.307958333333463,2.23606797749979,28.861739379323623,1.4142135623730951,5.0990195135927845,7.280109889280518,7.280109889280518,11.40175425099138,19.924858845171276,14.866068747318506,13.0,9.0,16.0,1.5,6.5,0.5,0.5,1.4142135623730951,2.23606797749979,2.0,14.0,7.0,11.180339887498949
221,67,392,0,16.349666666666796,3.1622776601683795,27.65863337187866,2.23606797749979,5.0990195135927845,8.246211251235321,9.219544457292887,10.04987562112089,20.396078054371138,15.297058540778355,13.5,11.0,17.0,4.0,6.0,1.0,1.0,1.0,2.23606797749979,1.5,14.0,7.0,11.180339887498949
222,67,393,0,16.391375000000128,3.1622776601683795,26.476404589747453,2.0,5.0990195135927845,7.280109889280518,7.0710678118654755,10.198039027185569,20.396078054371138,15.297058540778355,13.5,12.0,17.0,4.5,5.5,0.5,1.5,3.0,3.0,3.0,12.0,7.0,13.038404810405298
223,67,394,0,16.43308333333346,1.0,26.30589287593181,2.23606797749979,5.0990195135927845,7.0710678118654755,7.0710678118654755,12.041594578792296,20.223748416156685,15.132745950421556,14.5,13.0,17.0,3.0,5.0,1.0,1.0,3.1622776601683795,4.0,4.0,13.0,8.0,14.035668847618199
224,67,395,0,16.474791666666793,1.0,25.179356624028344,2.0,5.0990195135927845,7.0710678118654755,7.0710678118654755,12.041594578792296,20.09975124224178,15.033296378372908,14.5,14.0,17.0,3.5,4.5,1.5,1.5,4.0,5.0,4.5,11.0,8.0,14.035668847618199
225,67,396,0,16.516500000000125,2.0,26.076809620810597,2.0,5.0990195135927845,6.0,7.0710678118654755,11.0,20.024984394500787,15.0,14.0,13.0,15.0,3.0,6.0,1.0,1.0,4.0,4.0,4.0,11.0,9.0,14.0
226,67,397,0,16.558208333333457,4.0,29.017236257093817,2.0,5.0,7.0,8.0,11.045361017187261,22.02271554554524,17.029386365926403,15.0,15.0,16.0,4.5,6.5,0.5,2.5,4.0,4.0,4.0,11.0,10.0,13.038404810405298
227,67,398,0,16.59991666666679,4.0,28.071337695236398,2.0,5.0,7.0710678118654755,7.0710678118654755,11.0,22.0,17.0,15.0,15.0,17.0,5.0,6.0,1.0,3.0,4.0,4.0,4.0,10.0,10.0,14.035668847618199
228,67,399,0,16.641625000000122,5.0,28.0178514522438,1.0,4.123105625617661,6.082762530298219,7.0,11.045361017187261,21.0,17.029386365926403,14.5,15.0,16.0,4.5,5.5,0.5,2.5,4.0,4.0,4.0,10.0,10.0,13.038404810405298
229,67,400,0,16.683333333333454,5.0,28.0,2.23606797749979,4.123105625617661,7.0,7.0,10.04987562112089,21.02379604162864,17.11724276862369,14.5,16.0,16.0,6.0,5.0,1.0,4.0,4.0,4.0,4.0,11.0,12.0,12.041594578792296
230,67,401,0,16.725041666666787,4.0,29.017236257093817,2.0,5.0,7.0,8.06225774829855,11.045361017187261,22.02271554554524,17.029386365926403,15.0,15.0,16.0,4.5,6.5,1.5,2.5,4.0,4.0,4.0,10.0,11.0,14.035668847618199
231,67,402,0,16.76675000000012,4.0,28.0178514522438,2.0,4.123105625617661,6.082762530298219,7.0,11.045361017187261,21.0,17.029386365926403,15.0,15.0,16.0,4.5,5.5,0.5,2.5,4.0,4.0,4.0,10.0,11.0,13.0
232,67,403,0,16.80845833333345,5.0,29.017236257093817,2.0,5.0,7.0,7.0710678118654755,10.0,22.0,17.0,14.5,14.0,15.0,4.5,7.5,2.5,2.5,4.123105625617661,5.0,4.5,10.0,10.0,13.038404810405298
233,67,404,0,16.850166666666784,5.0,29.017236257093817,1.0,4.0,7.0710678118654755,7.0710678118654755,11.045361017187261,21.02379604162864,17.029386365926403,14.5,15.0,16.0,4.5,5.5,0.5,2.5,4.0,4.0,4.0,11.0,12.0,12.041594578792296
234,67,405,0,16.891875000000116,4.0,28.0,1.0,5.0,6.0,7.0710678118654755,11.045361017187261,21.02379604162864,16.0312195418814,14.0,15.0,15.0,4.0,6.0,1.0,3.0,4.0,4.123105625617661,4.0,10.0,11.0,12.041594578792296
235,67,406,0,16.93358333333345,2.23606797749979,26.019223662515376,3.0,5.0,6.0,7.0710678118654755,11.045361017187261,21.0,16.0,15.0,15.0,16.0,4.5,5.5,0.5,1.5,4.0,4.0,4.0,10.0,11.0,12.041594578792296
236,67,407,0,16.97529166666678,1.0,25.0,2.23606797749979,5.0,6.082762530298219,7.0,12.0,20.024984394500787,15.033296378372908,14.5,15.0,15.0,3.0,5.0,1.0,2.0,4.0,5.0,5.0,10.0,11.0,13.038404810405298
237,67,408,0,17.017000000000113,3.0,26.019223662515376,4.0,5.0990195135927845,7.0,7.0,8.06225774829855,20.0,15.033296378372908,13.5,14.0,15.0,6.5,5.5,0.5,3.5,4.0,5.0,4.5,10.0,13.0,12.165525060596439
238,67,409,0,17.058708333333445,1.0,24.020824298928627,3.1622776601683795,4.0,7.0,7.0,12.041594578792296,19.026297590440446,15.033296378372908,15.0,16.0,15.0,3.5,3.5,0.5,1.5,4.0,4.123105625617661,4.0,9.0,12.0,13.152946437965905
239,67,410,0,17.100416666666778,1.0,25.0,3.0,4.0,6.0,6.0,11.045361017187261,19.026297590440446,15.033296378372908,14.5,15.0,15.0,4.0,4.0,1.0,2.0,3.0,4.0,4.0,9.0,12.0,12.041594578792296
240,67,411,0,17.14212500000011,2.0,27.018512172212592,2.0,4.0,7.0710678118654755,7.0,11.180339887498949,19.1049731745428,15.132745950421556,14.0,15.0,14.0,3.5,4.5,0.5,2.5,3.0,3.0,3.0,8.0,12.0,13.152946437965905
241,67,412,0,17.183833333333443,3.0,29.068883707497267,1.0,4.0,8.06225774829855,8.06225774829855,11.045361017187261,19.026297590440446,15.033296378372908,13.5,16.0,14.0,4.0,4.0,0.0,3.0,3.0,3.1622776601683795,3.0,8.0,13.0,12.165525060596439
242,67,413,0,17.225541666666775,3.0,29.017236257093817,1.0,4.123105625617661,7.0,7.0,11.045361017187261,19.1049731745428,15.033296378372908,13.5,15.0,14.0,3.5,4.5,0.5,2.5,3.1622776601683795,3.0,3.0,7.0,11.0,14.142135623730951
243,67,414,0,17.267250000000107,2.0,28.0178514522438,2.0,4.123105625617661,7.0,7.0,11.0,19.026297590440446,15.0,14.0,15.0,14.0,3.5,4.5,0.5,2.5,2.0,3.1622776601683795,3.0,8.0,11.0,13.152946437965905
244,67,415,0,17.30895833333344,5.0990195135927845,29.0,1.4142135623730951,4.123105625617661,7.0,8.06225774829855,11.045361017187261,21.0,17.029386365926403,14.5,15.0,15.0,4.0,6.0,1.0,3.0,2.0,3.0,3.0,8.0,11.0,12.041594578792296
245,67,416,0,17.350666666666772,6.0,29.017236257093817,2.0,4.0,8.06225774829855,9.0,10.04987562112089,22.02271554554524,18.027756377319946,15.0,14.0,15.0,4.5,7.5,3.5,2.5,2.0,2.0,2.5,10.0,10.0,14.035668847618199
246,67,417,0,17.392375000000104,4.0,31.016124838541646,2.0,4.0,9.055385138137417,9.055385138137417,10.04987562112089,20.024984394500787,16.0312195418814,14.0,13.0,14.0,3.5,6.5,1.5,1.5,3.0,3.0,3.0,10.0,10.0,14.0
247,67,418,0,17.434083333333437,4.0,30.066592756745816,2.0,4.123105625617661,8.06225774829855,9.0,10.04987562112089,20.09975124224178,16.0312195418814,14.0,13.0,15.0,4.0,6.0,1.0,2.0,3.0,3.0,3.0,11.0,9.0,14.0
248,67,419,0,17.47579166666677,4.0,29.154759474226502,1.0,4.123105625617661,7.0710678118654755,8.06225774829855,11.180339887498949,20.223748416156685,16.1245154965971,14.0,12.0,15.0,2.5,6.5,1.5,1.5,3.1622776601683795,3.0,3.0,12.0,9.0,14.035668847618199
249,67,420,0,17.5175000000001,4.0,29.274562336608895,2.23606797749979,4.123105625617661,7.0710678118654755,8.06225774829855,10.198039027185569,20.396078054371138,16.278820596099706,14.0,12.0,16.0,4.0,6.0,1.0,2.0,2.0,3.0,3.0,12.0,8.0,13.0
250,67,421,0,17.559208333333434,4.123105625617661,29.274562336608895,1.0,4.0,7.280109889280518,7.280109889280518,11.180339887498949,20.223748416156685,16.278820596099706,14.0,12.0,16.0,3.0,6.0,2.0,1.0,3.1622776601683795,4.0,3.5,13.0,8.0,13.152946437965905
251,67,422,0,17.600916666666766,4.123105625617661,28.442925306655784,2.0,4.123105625617661,7.280109889280518,7.0710678118654755,10.44030650891055,20.615528128088304,16.492422502470642,14.0,11.0,16.0,3.5,6.5,1.5,0.5,3.1622776601683795,4.123105625617661,3.5,14.0,9.0,12.165525060596439
252,67,423,0,17.6426250000001,3.1622776601683795,28.442925306655784,2.0,4.123105625617661,7.280109889280518,8.246211251235321,10.44030650891055,19.6468827043885,15.524174696260024,13.5,10.0,15.0,2.5,6.5,1.5,0.5,2.23606797749979,2.23606797749979,2.0,14.0,7.0,13.152946437965905
253,67,424,0,17.68433333333343,4.123105625617661,26.68332812825267,2.23606797749979,4.123105625617661,7.280109889280518,7.280109889280518,10.198039027185569,20.615528128088304,16.492422502470642,14.0,10.0,16.0,3.0,7.0,1.0,1.0,3.1622776601683795,3.1622776601683795,3.0,14.0,7.0,12.165525060596439
254,67,425,0,17.726041666666763,4.0,28.861739379323623,1.4142135623730951,4.47213595499958,7.280109889280518,8.246211251235321,10.44030650891055,19.924858845171276,15.524174696260024,13.0,9.0,16.0,2.5,6.5,1.5,0.5,3.0,3.1622776601683795,3.0,15.0,7.0,12.36931687685298
255,67,426,0,17.767750000000095,4.0,26.92582403567252,2.23606797749979,3.605551275463989,7.280109889280518,8.246211251235321,10.44030650891055,19.924858845171276,16.492422502470642,14.0,9.0,16.0,2.5,6.5,1.5,0.5,3.1622776601683795,3.1622776601683795,3.0,15.0,6.0,12.36931687685298
256,67,427,0,17.809458333333428,4.123105625617661,26.92582403567252,2.0,3.605551275463989,7.280109889280518,7.280109889280518,10.44030650891055,19.924858845171276,16.492422502470642,14.0,10.0,17.0,3.5,5.5,0.5,0.5,3.0,3.1622776601683795,3.0,16.0,7.0,10.198039027185569
257,67,428,0,17.85116666666676,2.23606797749979,24.73863375370596,3.1622776601683795,5.0990195135927845,6.324555320336759,6.324555320336759,10.44030650891055,20.8806130178211,15.811388300841896,14.0,10.0,16.0,3.0,7.0,1.0,1.0,3.0,3.0,3.0,16.0,8.0,11.180339887498949
258,67,429,0,17.892875000000092,2.0,24.73863375370596,2.23606797749979,5.385164807134504,6.324555320336759,6.324555320336759,11.40175425099138,20.8806130178211,15.524174696260024,14.0,11.0,17.0,3.0,6.0,1.0,0.0,3.1622776601683795,3.1622776601683795,3.0,15.0,7.0,11.40175425099138
259,67,430,0,17.934583333333425,2.0,23.769728648009426,2.23606797749979,5.385164807134504,6.324555320336759,6.324555320336759,10.198039027185569,19.6468827043885,14.317821063276353,13.0,10.0,16.0,3.0,6.0,0.0,0.0,3.1622776601683795,3.0,3.0,15.0,8.0,11.40175425099138
260,67,431,0,17.976291666666757,1.0,24.73863375370596,2.23606797749979,5.0990195135927845,6.324555320336759,7.280109889280518,11.40175425099138,19.6468827043885,14.560219778561036,13.5,11.0,17.0,3.0,5.0,1.0,0.0,2.23606797749979,3.1622776601683795,3.0,15.0,7.0,11.180339887498949
261,67,432,0,18.01800000000009,2.0,24.73863375370596,2.23606797749979,5.0990195135927845,7.280109889280518,7.280109889280518,10.198039027185569,19.4164878389476,14.317821063276353,13.0,10.0,16.0,3.0,6.0,1.0,0.0,2.23606797749979,3.1622776601683795,2.5,15.0,8.0,12.165525060596439
262,67,433,0,18.059708333333425,1.4142135623730951,25.495097567963924,2.0,5.0,7.0710678118654755,7.280109889280518,11.40175425099138,19.4164878389476,14.560219778561036,13.5,11.0,16.0,2.5,5.5,0.5,0.5,2.23606797749979,3.1622776601683795,3.0,14.0,8.0,12.165525060596439
263,67,434,0,18.10141666666676,1.4142135623730951,26.30589287593181,2.0,6.082762530298219,7.280109889280518,7.0710678118654755,10.198039027185569,19.4164878389476,13.341664064126334,12.5,11.0,15.0,3.0,6.0,1.0,0.0,3.0,2.23606797749979,2.5,13.0,7.0,12.041594578792296
264,67,435,0,18.143125000000087,2.23606797749979,25.317977802344327,2.0,6.082762530298219,7.0710678118654755,8.06225774829855,10.198039027185569,20.396078054371138,14.317821063276353,13.0,12.0,16.0,4.0,6.0,1.0,1.0,2.23606797749979,3.0,3.0,13.0,8.0,12.041594578792296
265,67,436,0,18.18483333333342,1.4142135623730951,24.331050121192877,3.0,6.082762530298219,7.0710678118654755,7.280109889280518,11.180339887498949,21.37755832643195,15.297058540778355,14.5,13.0,17.0,4.0,6.0,0.0,1.0,3.1622776601683795,3.1622776601683795,3.0,13.0,9.0,12.041594578792296
266,67,437,0,18.22654166666675,3.1622776601683795,25.179356624028344,2.0,6.082762530298219,7.0710678118654755,7.0710678118654755,12.165525060596439,23.345235059857504,17.26267650163207,15.5,15.0,18.0,4.5,6.5,0.5,1.5,2.0,3.1622776601683795,3.0,13.0,9.0,12.041594578792296
267,67,438,0,18.268250000000084,2.0,26.1725046566048,3.0,6.082762530298219,7.0710678118654755,8.246211251235321,11.180339887498949,22.20360331117452,16.1245154965971,15.0,15.0,18.0,5.5,5.5,1.5,2.5,2.23606797749979,3.1622776601683795,3.0,12.0,9.0,12.0
268,67,439,0,18.309958333333416,3.0,27.294688127912362,2.23606797749979,5.0,8.06225774829855,8.06225774829855,12.041594578792296,22.090722034374522,17.11724276862369,15.5,13.0,17.0,3.0,7.0,1.0,1.0,3.0,3.0,2.5,12.0,9.0,13.0
269,67,440,0,18.35166666666675,5.0,28.160255680657446,2.23606797749979,4.123105625617661,7.0710678118654755,9.055385138137417,11.045361017187261,22.20360331117452,18.110770276274835,15.5,13.0,16.0,3.5,7.5,2.5,1.5,2.0,3.1622776601683795,3.0,12.0,9.0,13.0
270,67,441,0,18.39337500000008,6.0,31.144823004794873,2.23606797749979,4.0,9.0,9.0,11.0,23.021728866442675,19.026297590440446,16.0,13.0,16.0,3.5,8.5,3.5,2.5,2.0,2.0,2.5,11.0,9.0,13.038404810405298
271,67,442,0,18.435083333333413,4.0,30.066592756745816,2.23606797749979,4.0,8.0,9.0,11.045361017187261,21.095023109728988,17.11724276862369,15.0,13.0,15.0,3.0,7.0,2.0,1.0,2.0,3.0,2.5,11.0,9.0,13.038404810405298
272,67,443,0,18.476791666666745,5.0990195135927845,31.064449134018133,2.0,4.0,9.0,8.06225774829855,12.0,23.021728866442675,19.026297590440446,16.5,14.0,16.0,3.0,8.0,3.0,2.0,2.0,3.0,3.0,10.0,10.0,12.041594578792296
273,67,444,0,18.51850000000008,4.0,31.064449134018133,2.0,4.123105625617661,8.0,9.0,11.045361017187261,21.095023109728988,17.029386365926403,15.0,13.0,15.0,3.0,7.0,2.0,1.0,3.1622776601683795,3.0,2.5,10.0,10.0,13.038404810405298
274,67,445,0,18.56020833333341,2.0,30.066592756745816,2.0,4.123105625617661,8.06225774829855,9.055385138137417,11.045361017187261,19.1049731745428,15.033296378372908,14.0,13.0,15.0,3.0,5.0,0.0,1.0,3.1622776601683795,3.0,3.0,10.0,10.0,13.038404810405298
275,67,446,0,18.601916666666742,2.0,27.073972741361768,3.0,5.0,7.0710678118654755,8.06225774829855,10.04987562112089,20.024984394500787,15.033296378372908,14.0,13.0,15.0,4.0,6.0,0.0,1.0,2.0,3.0,3.0,10.0,10.0,14.035668847618199
276,67,447,0,18.643625000000075,2.0,27.018512172212592,2.0,5.0,7.0710678118654755,8.0,11.045361017187261,20.024984394500787,15.033296378372908,14.0,14.0,15.0,3.5,5.5,0.5,1.5,2.0,3.0,3.0,10.0,10.0,15.033296378372908
277,67,448,0,18.685333333333407,2.0,27.018512172212592,2.0,5.0,8.0,8.0,11.045361017187261,20.024984394500787,15.033296378372908,14.0,14.0,15.0,3.5,5.5,0.5,1.5,3.0,3.0,3.0,11.0,11.0,14.142135623730951
278,67,449,0,18.72704166666674,4.0,29.017236257093817,3.0,5.0,8.0,8.0,10.04987562112089,22.02271554554524,17.029386365926403,15.0,14.0,15.0,4.5,7.5,1.5,2.5,3.0,3.0,3.0,13.0,13.0,15.0
279,67,450,0,18.76875000000007,5.0,29.017236257093817,1.0,6.0,8.0,8.0,11.045361017187261,23.021728866442675,17.029386365926403,14.5,14.0,15.0,3.5,8.5,2.5,2.5,3.0,3.0,3.0,13.0,13.0,14.0
280,67,451,0,18.810458333333404,6.0,31.064449134018133,2.0,6.0,9.0,9.0,11.045361017187261,25.019992006393608,19.026297590440446,16.0,14.0,16.0,4.0,10.0,3.0,2.0,3.0,3.0,3.5,14.0,13.0,15.0
281,67,452,0,18.852166666666736,4.123105625617661,30.066592756745816,2.0,5.0,7.0710678118654755,8.06225774829855,11.045361017187261,22.090722034374522,17.11724276862369,15.0,14.0,16.0,4.0,7.0,1.0,2.0,3.0,4.0,3.5,13.0,12.0,13.0
282,67,453,0,18.89387500000007,5.0,32.0624390837628,2.0,3.0,8.06225774829855,9.0,10.198039027185569,20.09975124224178,17.11724276862369,14.5,13.0,15.0,4.0,6.0,2.0,2.0,3.0,3.0,3.0,12.0,10.0,14.0
283,67,454,0,18.9355833333334,5.0990195135927845,31.144823004794873,1.0,5.0,7.0710678118654755,8.06225774829855,11.180339887498949,22.20360331117452,17.26267650163207,14.5,12.0,15.0,2.5,8.5,2.5,0.5,3.0,3.0,2.5,14.0,11.0,15.0
284,67,455,0,18.977291666666734,7.0710678118654755,30.14962686336267,2.0,5.0990195135927845,9.055385138137417,9.055385138137417,10.198039027185569,24.331050121192877,19.235384061671343,15.5,12.0,15.0,3.5,10.5,4.5,1.5,2.0,2.0,2.0,13.0,10.0,13.038404810405298
285,67,456,0,19.019000000000062,7.0710678118654755,29.274562336608895,2.23606797749979,6.0,8.06225774829855,9.219544457292887,10.198039027185569,25.317977802344327,19.4164878389476,15.5,12.0,16.0,4.0,11.0,4.0,2.0,3.0,3.0,3.0,13.0,10.0,13.038404810405298
286,67,457,0,19.0607083333334,6.082762530298219,29.154759474226502,3.0,4.0,8.246211251235321,9.219544457292887,10.198039027185569,23.194827009486403,19.235384061671343,16.0,13.0,16.0,4.5,8.5,3.5,1.5,2.0,3.1622776601683795,3.0,14.0,10.0,12.165525060596439
287,67,458,0,19.10241666666673,7.0710678118654755,28.160255680657446,2.0,4.123105625617661,7.0710678118654755,8.06225774829855,10.44030650891055,23.53720459187964,19.4164878389476,15.5,13.0,16.0,4.5,8.5,3.5,2.5,3.0,3.1622776601683795,3.0,14.0,9.0,11.180339887498949
288,67,459,0,19.144125000000063,6.082762530298219,26.476404589747453,2.23606797749979,5.0990195135927845,7.0710678118654755,7.0710678118654755,10.198039027185569,23.53720459187964,18.439088914585774,15.0,13.0,18.0,5.5,7.5,1.5,3.5,2.23606797749979,3.0,3.0,14.0,8.0,12.165525060596439
289,67,460,0,19.185833333333395,5.0990195135927845,26.476404589747453,2.0,4.123105625617661,6.082762530298219,7.280109889280518,10.198039027185569,21.37755832643195,17.26267650163207,14.5,12.0,17.0,4.5,6.5,1.5,2.5,3.1622776601683795,2.23606797749979,2.5,15.0,9.0,12.165525060596439
290,67,461,0,19.227541666666728,5.0990195135927845,28.284271247461902,2.23606797749979,4.123105625617661,8.246211251235321,8.246211251235321,9.055385138137417,20.396078054371138,16.278820596099706,13.5,11.0,15.0,4.0,7.0,2.0,1.0,3.1622776601683795,3.1622776601683795,3.0,15.0,9.0,11.180339887498949
291,67,462,0,19.26925000000006,4.123105625617661,26.476404589747453,2.23606797749979,4.123105625617661,7.280109889280518,7.280109889280518,10.198039027185569,20.615528128088304,16.492422502470642,14.0,11.0,16.0,3.5,6.5,1.5,0.5,2.23606797749979,2.23606797749979,2.0,14.0,7.0,11.40175425099138
292,67,463,0,19.310958333333392,2.0,26.68332812825267,3.1622776601683795,6.082762530298219,6.324555320336759,7.280109889280518,9.219544457292887,20.396078054371138,14.317821063276353,13.0,10.0,16.0,4.0,7.0,0.0,0.0,3.1622776601683795,2.23606797749979,2.5,15.0,8.0,11.40175425099138
293,67,464,0,19.352666666666725,2.0,26.92582403567252,2.23606797749979,6.082762530298219,6.324555320336759,7.280109889280518,9.486832980505138,19.6468827043885,13.601470508735444,12.0,8.0,15.0,2.5,7.5,0.5,0.5,3.1622776601683795,3.1622776601683795,3.0,15.0,7.0,11.180339887498949
294,67,465,0,19.394375000000057,1.0,25.0,2.23606797749979,6.324555320336759,6.324555320336759,7.615773105863909,10.44030650891055,19.924858845171276,13.601470508735444,12.5,9.0,16.0,2.5,6.5,0.5,0.5,3.1622776601683795,3.605551275463989,3.0,15.0,7.0,12.36931687685298
295,67,466,0,19.43608333333339,1.0,25.298221281347036,2.23606797749979,5.385164807134504,6.324555320336759,7.615773105863909,10.44030650891055,18.973665961010276,13.601470508735444,12.5,8.0,16.0,2.0,6.0,1.0,0.0,3.1622776601683795,3.1622776601683795,3.5,15.0,6.0,12.36931687685298
296,67,467,0,19.47779166666672,1.0,27.202941017470888,3.1622776601683795,5.0990195135927845,8.246211251235321,7.280109889280518,9.486832980505138,18.027756377319946,13.0,12.0,7.0,15.0,2.0,6.0,0.0,1.0,3.1622776601683795,3.1622776601683795,3.0,16.0,6.0,10.770329614269007
297,67,468,0,19.51950000000005,1.4142135623730951,27.202941017470888,2.0,4.47213595499958,7.280109889280518,8.246211251235321,9.486832980505138,17.08800749063506,12.649110640673518,11.5,6.0,14.0,1.0,6.0,0.0,2.0,2.23606797749979,3.1622776601683795,2.5,16.0,6.0,10.770329614269007
298,67,469,0,19.561208333333383,1.4142135623730951,25.96150997149434,2.23606797749979,4.123105625617661,6.324555320336759,7.280109889280518,10.198039027185569,17.72004514666935,13.601470508735444,12.5,8.0,15.0,1.5,5.5,0.5,0.5,2.23606797749979,3.1622776601683795,2.5,16.0,6.0,10.44030650891055
299,67,470,0,19.60291666666672,0.0,25.96150997149434,2.23606797749979,5.0990195135927845,6.324555320336759,7.280109889280518,10.44030650891055,17.72004514666935,12.649110640673518,12.0,8.0,15.0,1.5,5.5,1.5,0.5,2.23606797749979,3.1622776601683795,3.0,15.0,6.0,10.44030650891055
300,67,471,0,19.64462500000005,1.0,26.92582403567252,2.23606797749979,5.0990195135927845,6.324555320336759,7.280109889280518,10.198039027185569,18.439088914585774,13.341664064126334,12.5,8.0,15.0,1.5,6.5,0.5,1.5,2.23606797749979,2.23606797749979,2.0,14.0,6.0,11.180339887498949
301,67,472,0,19.686333333333383,1.0,26.476404589747453,3.0,5.0990195135927845,7.0710678118654755,7.0710678118654755,10.44030650891055,18.681541692269406,13.601470508735444,13.0,10.0,15.0,2.5,5.5,0.5,0.5,3.0,3.0,3.0,13.0,7.0,13.152946437965905
302,67,473,0,19.72804166666672,1.0,27.16615541441225,3.0,6.082762530298219,6.082762530298219,7.0710678118654755,10.198039027185569,20.223748416156685,14.142135623730951,13.5,11.0,14.0,2.5,7.5,1.5,0.5,2.0,2.23606797749979,2.5,12.0,8.0,13.0
303,67,474,0,19.769750000000048,3.0,27.018512172212592,3.0,5.0,7.0710678118654755,7.0,10.04987562112089,21.02379604162864,16.0312195418814,14.5,14.0,15.0,4.5,6.5,0.5,1.5,3.0,3.0,3.0,11.0,10.0,13.038404810405298
304,67,475,0,19.81145833333338,6.0,29.0,2.23606797749979,4.0,7.0710678118654755,8.06225774829855,11.045361017187261,23.0,19.0,16.0,15.0,15.0,4.0,8.0,3.0,3.0,3.1622776601683795,3.1622776601683795,3.5,10.0,13.0,16.1245154965971
305,67,476,0,19.85316666666672,6.0,29.068883707497267,3.1622776601683795,6.082762530298219,7.0710678118654755,9.055385138137417,10.0,25.079872407968907,19.026297590440446,16.0,17.0,15.0,6.0,9.0,3.0,4.0,3.1622776601683795,3.1622776601683795,3.0,11.0,14.0,14.035668847618199
306,67,477,0,19.894875000000045,6.0,30.14962686336267,3.1622776601683795,5.0990195135927845,8.06225774829855,8.06225774829855,10.04987562112089,24.186773244895647,19.1049731745428,16.0,18.0,15.0,6.5,7.5,2.5,4.5,2.23606797749979,3.1622776601683795,2.5,10.0,16.0,16.1245154965971
307,67,478,0,19.936583333333378,4.123105625617661,27.294688127912362,2.0,4.123105625617661,7.0710678118654755,7.0710678118654755,12.041594578792296,22.20360331117452,18.110770276274835,16.0,19.0,15.0,5.0,5.0,1.0,3.0,3.0,2.23606797749979,2.0,9.0,14.0,14.142135623730951
308,67,479,0,19.97829166666671,2.23606797749979,26.30589287593181,3.0,4.123105625617661,7.0710678118654755,7.0,12.0,21.095023109728988,17.029386365926403,16.0,19.0,15.0,5.0,4.0,0.0,3.0,3.0,2.23606797749979,2.5,10.0,16.0,14.142135623730951
309,67,480,0,20.02000000000004,1.0,27.16615541441225,3.1622776601683795,5.0990195135927845,6.082762530298219,7.0710678118654755,12.0,21.095023109728988,16.0312195418814,15.5,18.0,15.0,4.5,4.5,0.5,2.5,3.1622776601683795,3.0,3.0,10.0,13.0,15.132745950421556
310,67,481,0,20.06170833333337,2.23606797749979,27.073972741361768,3.0,5.0990195135927845,7.0710678118654755,7.0710678118654755,12.0,22.090722034374522,17.029386365926403,16.0,18.0,16.0,5.0,5.0,0.0,3.0,3.1622776601683795,3.0,3.5,11.0,16.0,15.132745950421556
311,67,482,0,20.103416666666707,2.23606797749979,26.076809620810597,2.0,6.0,7.0,8.0,12.0,22.02271554554524,16.0312195418814,15.0,17.0,15.0,4.0,6.0,0.0,2.0,3.1622776601683795,3.0,3.0,11.0,15.0,14.142135623730951
312,67,483,0,20.14512500000004,3.1622776601683795,27.018512172212592,3.0,4.0,8.0,8.0,12.0,22.02271554554524,18.027756377319946,16.5,17.0,16.0,4.5,5.5,0.5,2.5,3.0,4.0,4.0,11.0,14.0,15.132745950421556
313,67,484,0,20.18683333333337,1.0,27.0,2.0,4.123105625617661,7.0,8.0,12.041594578792296,19.0,15.033296378372908,14.5,15.0,15.0,3.0,4.0,0.0,1.0,3.1622776601683795,3.0,3.0,11.0,12.0,15.033296378372908
314,67,485,0,20.228541666666704,1.0,26.0,2.23606797749979,4.0,7.0,7.0,12.165525060596439,19.026297590440446,15.033296378372908,14.5,14.0,14.0,2.0,5.0,0.0,0.0,3.0,4.0,4.0,12.0,13.0,14.142135623730951
315,67,486,0,20.27025000000004,2.23606797749979,30.01666203960727,2.0,5.0,7.0710678118654755,8.0,11.045361017187261,20.09975124224178,15.132745950421556,14.0,12.0,13.0,1.5,7.5,1.5,0.5,3.0,3.0,2.5,11.0,11.0,15.0
316,67,487,0,20.31195833333337,3.1622776601683795,28.0178514522438,1.0,5.0,8.0,8.0,11.045361017187261,20.09975124224178,15.132745950421556,13.5,12.0,13.0,1.5,7.5,2.5,0.5,3.1622776601683795,3.0,3.0,12.0,10.0,13.0
317,67,488,0,20.3536666666667,3.0,30.01666203960727,2.0,5.0990195135927845,9.0,9.0,10.198039027185569,20.223748416156685,15.132745950421556,13.5,11.0,12.0,1.5,8.5,2.5,0.5,2.0,3.0,3.0,13.0,10.0,12.0
318,67,489,0,20.39537500000004,2.0,29.068883707497267,2.23606797749979,4.123105625617661,6.082762530298219,7.0710678118654755,10.198039027185569,18.439088914585774,14.317821063276353,13.0,10.0,12.0,1.0,7.0,2.0,1.0,3.0,3.0,3.0,13.0,10.0,13.038404810405298
319,67,490,0,20.43708333333337,1.4142135623730951,28.0178514522438,2.0,4.0,7.0710678118654755,7.0,11.40175425099138,18.439088914585774,14.560219778561036,13.5,11.0,12.0,0.5,6.5,2.5,1.5,3.0,3.0,3.5,12.0,9.0,12.0
320,67,491,0,20.47879166666669,1.0,27.073972741361768,2.0,5.0,7.0710678118654755,7.0710678118654755,11.40175425099138,18.439088914585774,13.601470508735444,13.0,10.0,12.0,0.0,7.0,2.0,2.0,3.0,3.1622776601683795,3.0,12.0,10.0,13.0
321,67,492,0,20.52050000000003,2.23606797749979,29.017236257093817,2.0,4.0,7.0,8.0,11.180339887498949,19.235384061671343,15.297058540778355,14.0,11.0,12.0,0.5,7.5,3.5,1.5,3.0,3.1622776601683795,3.0,13.0,10.0,12.041594578792296
322,67,493,0,20.562208333333363,4.123105625617661,27.073972741361768,2.0,5.0,7.0,7.0710678118654755,11.180339887498949,22.20360331117452,17.26267650163207,15.0,13.0,15.0,3.0,8.0,2.0,1.0,3.1622776601683795,3.0,3.0,12.0,9.0,12.041594578792296
323,67,494,0,20.60391666666669,5.0990195135927845,28.160255680657446,3.0,5.0,7.0710678118654755,8.06225774829855,10.44030650891055,23.345235059857504,18.439088914585774,15.5,12.0,15.0,3.5,9.5,3.5,0.5,3.0,3.1622776601683795,3.0,12.0,10.0,12.0
324,67,495,0,20.645625000000027,7.0710678118654755,29.154759474226502,2.0,5.0,7.0710678118654755,8.06225774829855,10.198039027185569,24.186773244895647,19.235384061671343,15.5,12.0,15.0,3.5,10.5,4.5,1.5,3.0,3.0,3.0,12.0,10.0,13.0
325,67,496,0,20.68733333333336,6.082762530298219,29.068883707497267,2.0,5.0990195135927845,7.0710678118654755,8.06225774829855,10.198039027185569,23.345235059857504,18.24828759089466,15.0,13.0,15.0,4.0,9.0,3.0,2.0,3.0,4.0,3.5,11.0,9.0,12.041594578792296
326,67,497,0,20.72904166666669,7.0710678118654755,29.068883707497267,1.0,4.0,7.0710678118654755,8.06225774829855,11.180339887498949,23.194827009486403,19.235384061671343,15.5,13.0,15.0,3.0,9.0,4.0,1.0,2.0,3.0,3.5,11.0,10.0,12.0
327,67,498,0,20.770750000000024,7.0710678118654755,29.068883707497267,1.0,5.0,8.0,8.0,10.198039027185569,23.194827009486403,18.24828759089466,14.5,13.0,15.0,4.0,9.0,3.0,3.0,2.0,3.0,3.0,11.0,10.0,12.0
328,67,499,0,20.81245833333336,7.0710678118654755,29.068883707497267,1.0,5.0,8.06225774829855,9.055385138137417,11.180339887498949,24.186773244895647,19.235384061671343,15.5,13.0,15.0,3.0,10.0,4.0,2.0,2.0,3.0,2.5,10.0,9.0,13.0
329,67,500,0,20.85416666666669,5.0,29.068883707497267,2.23606797749979,5.0990195135927845,8.06225774829855,8.06225774829855,10.04987562112089,22.20360331117452,17.11724276862369,14.5,13.0,15.0,4.0,8.0,3.0,2.0,3.0,3.0,3.0,11.0,10.0,13.0
330,67,501,0,20.89587500000002,5.0,29.154759474226502,2.23606797749979,5.0990195135927845,8.06225774829855,8.06225774829855,10.198039027185569,22.360679774997898,17.26267650163207,14.5,12.0,15.0,3.5,8.5,3.5,1.5,2.0,3.0,3.0,12.0,10.0,13.038404810405298
331,67,502,0,20.93758333333336,3.1622776601683795,30.14962686336267,2.0,4.0,8.06225774829855,9.055385138137417,10.198039027185569,19.235384061671343,15.297058540778355,13.5,11.0,14.0,2.5,6.5,1.5,0.5,3.0,3.0,3.0,12.0,10.0,12.0
332,67,503,0,20.97929166666669,2.23606797749979,30.14962686336267,2.0,4.123105625617661,7.0710678118654755,8.06225774829855,11.180339887498949,19.4164878389476,15.297058540778355,14.0,11.0,14.0,1.5,6.5,1.5,0.5,3.0,3.0,3.0,13.0,10.0,12.041594578792296
333,67,504,0,21.02100000000002,2.0,29.274562336608895,2.23606797749979,4.123105625617661,8.06225774829855,8.246211251235321,10.198039027185569,18.439088914585774,14.317821063276353,13.0,10.0,14.0,2.0,6.0,1.0,0.0,3.0,3.1622776601683795,3.0,12.0,9.0,12.0
334,67,505,0,21.06270833333335,1.0,29.274562336608895,2.23606797749979,4.123105625617661,7.280109889280518,7.0710678118654755,10.198039027185569,17.46424919657298,13.341664064126334,12.5,9.0,13.0,1.0,6.0,1.0,1.0,3.0,4.0,3.5,13.0,9.0,12.041594578792296
335,67,506,0,21.104416666666683,1.0,29.274562336608895,2.23606797749979,4.123105625617661,7.280109889280518,8.06225774829855,10.198039027185569,17.46424919657298,13.341664064126334,12.5,9.0,13.0,1.0,6.0,1.0,1.0,3.0,3.0,3.0,13.0,9.0,13.038404810405298
336,67,507,0,21.146125000000016,2.23606797749979,29.274562336608895,2.0,3.1622776601683795,8.06225774829855,9.219544457292887,10.198039027185569,17.46424919657298,14.317821063276353,13.0,10.0,14.0,2.0,5.0,1.0,0.0,3.0,3.1622776601683795,3.0,12.0,8.0,13.152946437965905
337,67,508,0,21.187833333333348,2.23606797749979,29.427877939124322,2.0,4.123105625617661,7.0710678118654755,8.246211251235321,10.44030650891055,18.681541692269406,14.560219778561036,13.0,9.0,14.0,1.5,6.5,1.5,0.5,2.0,3.1622776601683795,3.0,14.0,9.0,12.165525060596439
338,67,509,0,21.22954166666668,2.23606797749979,30.59411708155671,1.0,4.123105625617661,8.246211251235321,8.246211251235321,10.44030650891055,17.72004514666935,13.601470508735444,12.0,8.0,14.0,1.0,6.0,1.0,1.0,2.23606797749979,3.0,3.0,14.0,8.0,12.165525060596439
339,67,510,0,21.271250000000013,2.23606797749979,29.614185789921695,3.0,4.47213595499958,7.280109889280518,8.246211251235321,9.486832980505138,18.973665961010276,14.560219778561036,13.0,8.0,14.0,2.0,7.0,2.0,1.0,3.1622776601683795,3.0,3.0,14.0,8.0,12.36931687685298
340,67,511,0,21.312958333333345,4.123105625617661,29.832867780352597,1.0,5.0990195135927845,7.280109889280518,8.246211251235321,10.770329614269007,20.8806130178211,15.811388300841896,13.0,8.0,15.0,1.5,8.5,2.5,0.5,2.0,3.1622776601683795,3.0,15.0,8.0,12.165525060596439
341,67,512,0,21.35466666666668,4.123105625617661,31.04834939252005,3.1622776601683795,4.47213595499958,8.246211251235321,8.246211251235321,8.54400374531753,20.248456731316587,15.811388300841896,13.0,6.0,14.0,2.0,9.0,3.0,1.0,2.23606797749979,3.1622776601683795,3.0,17.0,8.0,12.36931687685298
342,67,513,0,21.39637500000001,3.1622776601683795,31.78049716414141,2.23606797749979,5.0990195135927845,9.219544457292887,9.219544457292887,10.770329614269007,21.18962010041709,16.15549442140351,13.5,7.0,14.0,0.5,9.5,3.5,1.5,2.23606797749979,3.1622776601683795,3.0,15.0,6.0,12.36931687685298
343,67,514,0,21.438083333333346,4.123105625617661,31.78049716414141,2.23606797749979,4.123105625617661,9.219544457292887,9.219544457292887,9.848857801796104,20.248456731316587,16.15549442140351,13.0,7.0,14.0,1.5,8.5,3.5,0.5,2.23606797749979,3.0,3.0,16.0,7.0,11.40175425099138
344,67,515,0,21.479791666666674,5.385164807134504,31.32091952673165,2.23606797749979,4.123105625617661,9.486832980505138,9.219544457292887,9.486832980505138,21.18962010041709,17.08800749063506,13.5,6.0,15.0,1.5,9.5,3.5,1.5,2.23606797749979,3.1622776601683795,3.0,15.0,6.0,11.40175425099138
345,67,516,0,21.521500000000007,6.082762530298219,31.32091952673165,1.4142135623730951,4.47213595499958,8.246211251235321,9.219544457292887,10.44030650891055,22.135943621178654,17.72004514666935,14.0,7.0,16.0,1.5,9.5,3.5,0.5,3.1622776601683795,2.23606797749979,2.5,16.0,6.0,12.36931687685298
346,67,517,0,21.56320833333334,5.385164807134504,32.984845004941285,2.0,5.0990195135927845,9.486832980505138,9.219544457292887,9.486832980505138,21.840329667841555,16.76305461424021,13.5,7.0,15.0,2.0,10.0,4.0,1.0,3.1622776601683795,3.1622776601683795,3.0,16.0,6.0,12.36931687685298
347,67,518,0,21.60491666666667,5.0990195135927845,28.160255680657446,1.4142135623730951,5.385164807134504,7.280109889280518,8.54400374531753,10.44030650891055,22.135943621178654,16.76305461424021,13.5,9.0,17.0,3.0,8.0,2.0,1.0,2.23606797749979,2.23606797749979,2.5,16.0,6.0,11.40175425099138
348,67,519,0,21.646625000000004,2.23606797749979,25.298221281347036,3.1622776601683795,5.0990195135927845,5.385164807134504,7.615773105863909,9.486832980505138,19.924858845171276,14.866068747318506,13.0,8.0,16.0,3.0,7.0,1.0,0.0,2.23606797749979,3.1622776601683795,3.0,17.0,7.0,13.601470508735444
349,67,520,0,21.688333333333336,3.1622776601683795,25.298221281347036,2.23606797749979,4.123105625617661,6.324555320336759,6.324555320336759,11.40175425099138,20.8806130178211,16.76305461424021,14.5,10.0,18.0,3.0,6.0,0.0,0.0,3.1622776601683795,4.123105625617661,3.5,15.0,5.0,11.180339887498949
350,67,521,0,21.73004166666667,2.23606797749979,25.96150997149434,2.0,4.47213595499958,5.385164807134504,6.324555320336759,11.40175425099138,19.924858845171276,15.524174696260024,14.0,10.0,17.0,2.5,5.5,0.5,0.5,2.0,2.23606797749979,2.5,17.0,7.0,12.36931687685298
351,67,522,0,21.77175,3.1622776601683795,26.248809496813376,2.23606797749979,4.123105625617661,6.324555320336759,6.324555320336759,10.198039027185569,19.6468827043885,15.524174696260024,13.5,9.0,17.0,3.0,6.0,0.0,0.0,3.1622776601683795,3.1622776601683795,2.5,15.0,6.0,13.341664064126334
352,67,523,0,21.813458333333333,3.1622776601683795,28.160255680657446,2.23606797749979,4.123105625617661,6.708203932499369,8.54400374531753,10.44030650891055,19.924858845171276,15.811388300841896,13.5,9.0,17.0,3.0,6.0,0.0,0.0,2.0,3.1622776601683795,3.0,15.0,6.0,12.36931687685298
353,67,524,0,21.855166666666666,3.1622776601683795,29.120439557122072,2.0,4.123105625617661,7.615773105863909,7.280109889280518,11.40175425099138,20.615528128088304,16.492422502470642,14.5,10.0,18.0,3.0,6.0,0.0,0.0,3.1622776601683795,3.1622776601683795,3.0,15.0,6.0,12.165525060596439
354,67,525,0,21.896875,1.4142135623730951,27.202941017470888,2.23606797749979,4.47213595499958,7.615773105863909,7.280109889280518,10.44030650891055,18.384776310850235,13.92838827718412,12.5,9.0,17.0,3.0,4.0,2.0,0.0,2.23606797749979,2.23606797749979,2.0,15.0,6.0,12.36931687685298
355,67,526,0,21.93858333333333,1.0,26.92582403567252,2.23606797749979,5.0990195135927845,6.324555320336759,7.0710678118654755,11.40175425099138,19.6468827043885,14.560219778561036,13.5,10.0,17.0,2.5,5.5,0.5,0.5,1.4142135623730951,1.4142135623730951,1.5,15.0,6.0,12.165525060596439
356,67,527,0,21.980291666666663,2.0,24.73863375370596,2.23606797749979,4.47213595499958,6.324555320336759,6.324555320336759,11.40175425099138,19.924858845171276,15.524174696260024,14.0,11.0,17.0,3.0,5.0,1.0,0.0,1.4142135623730951,2.23606797749979,1.0,16.0,7.0,12.36931687685298
357,67,528,0,22.021999999999995,1.4142135623730951,24.73863375370596,2.23606797749979,4.123105625617661,6.324555320336759,7.280109889280518,12.36931687685298,19.924858845171276,15.811388300841896,14.5,12.0,18.0,3.0,4.0,1.0,0.0,1.4142135623730951,2.23606797749979,2.0,14.0,6.0,10.44030650891055
358,67,529,0,22.063708333333327,2.0,24.041630560342615,2.23606797749979,4.47213595499958,6.324555320336759,6.324555320336759,11.40175425099138,19.924858845171276,15.524174696260024,14.0,11.0,18.0,3.5,4.5,1.5,0.5,1.4142135623730951,2.8284271247461903,1.5,15.0,6.0,11.180339887498949
359,67,530,0,22.10541666666666,1.4142135623730951,25.0,3.1622776601683795,5.0990195135927845,7.0710678118654755,7.280109889280518,10.44030650891055,19.924858845171276,14.866068747318506,13.5,10.0,17.0,3.5,5.5,1.5,0.5,2.23606797749979,1.4142135623730951,1.5,16.0,7.0,12.165525060596439
360,67,531,0,22.147124999999992,2.23606797749979,25.96150997149434,2.23606797749979,5.0990195135927845,6.324555320336759,7.280109889280518,10.198039027185569,19.6468827043885,14.560219778561036,13.0,10.0,17.0,3.5,5.5,1.5,0.5,1.4142135623730951,2.8284271247461903,2.0,15.0,6.0,12.165525060596439
361,67,532,0,22.188833333333324,2.23606797749979,26.92582403567252,2.0,5.0990195135927845,7.280109889280518,8.246211251235321,10.44030650891055,19.6468827043885,14.560219778561036,13.0,10.0,17.0,3.5,5.5,1.5,0.5,2.23606797749979,2.23606797749979,2.0,15.0,6.0,13.341664064126334
362,67,533,0,22.230541666666657,1.0,25.96150997149434,3.1622776601683795,6.082762530298219,6.082762530298219,7.280109889280518,10.44030650891055,20.615528128088304,14.560219778561036,13.5,10.0,17.0,3.5,6.5,1.5,0.5,2.23606797749979,2.23606797749979,2.5,15.0,6.0,12.36931687685298
363,67,534,0,22.27224999999999,2.23606797749979,25.96150997149434,2.23606797749979,6.082762530298219,7.280109889280518,8.246211251235321,10.198039027185569,20.615528128088304,14.560219778561036,13.0,10.0,17.0,3.5,6.5,0.5,0.5,2.23606797749979,3.0,2.5,15.0,6.0,12.165525060596439
364,67,535,0,22.31395833333332,2.23606797749979,26.92582403567252,3.1622776601683795,6.082762530298219,6.324555320336759,8.54400374531753,10.44030650891055,21.840329667841555,15.811388300841896,14.0,10.0,17.0,3.5,7.5,0.5,0.5,2.23606797749979,3.1622776601683795,2.5,16.0,7.0,12.36931687685298
365,67,536,0,22.355666666666654,5.0990195135927845,27.892651361962706,2.0,5.385164807134504,7.280109889280518,7.615773105863909,9.848857801796104,22.135943621178654,16.76305461424021,13.5,9.0,16.0,3.5,8.5,1.5,0.5,2.23606797749979,3.1622776601683795,2.5,16.0,7.0,12.36931687685298
366,67,537,0,22.397374999999982,3.1622776601683795,30.083217912982647,3.1622776601683795,6.082762530298219,6.324555320336759,7.280109889280518,9.848857801796104,22.135943621178654,16.15549442140351,13.5,8.0,16.0,3.0,9.0,2.0,0.0,3.1622776601683795,3.1622776601683795,3.0,16.0,7.0,13.341664064126334
367,67,538,0,22.43908333333332,5.0990195135927845,28.861739379323623,2.23606797749979,4.123105625617661,7.280109889280518,7.280109889280518,10.44030650891055,21.840329667841555,17.72004514666935,14.5,9.0,16.0,2.5,8.5,3.5,0.5,3.1622776601683795,3.0,3.0,15.0,7.0,13.152946437965905
368,67,539,0,22.48079166666665,4.123105625617661,31.04834939252005,2.23606797749979,4.123105625617661,7.280109889280518,8.54400374531753,9.848857801796104,20.248456731316587,16.15549442140351,13.0,7.0,15.0,2.0,8.0,2.0,0.0,3.1622776601683795,3.1622776601683795,3.0,16.0,7.0,12.165525060596439
369,67,540,0,22.522499999999983,5.0990195135927845,31.04834939252005,1.4142135623730951,4.47213595499958,8.246211251235321,8.246211251235321,10.44030650891055,21.18962010041709,16.76305461424021,13.5,8.0,16.0,2.0,8.0,2.0,0.0,2.23606797749979,3.1622776601683795,2.5,15.0,6.0,12.36931687685298
370,67,541,0,22.564208333333315,5.0990195135927845,29.120439557122072,2.23606797749979,5.385164807134504,7.280109889280518,8.246211251235321,10.44030650891055,23.08679276123039,17.72004514666935,14.5,9.0,17.0,3.0,9.0,3.0,1.0,3.1622776601683795,3.1622776601683795,3.0,16.0,7.0,12.165525060596439
371,67,542,0,22.605916666666648,7.0710678118654755,28.861739379323623,1.4142135623730951,5.0990195135927845,6.324555320336759,7.280109889280518,10.44030650891055,23.769728648009426,18.681541692269406,14.5,10.0,17.0,3.5,9.5,3.5,1.5,3.1622776601683795,3.1622776601683795,3.0,15.0,6.0,11.180339887498949
372,67,543,0,22.64762499999998,7.0710678118654755,27.65863337187866,1.4142135623730951,5.385164807134504,8.246211251235321,8.246211251235321,10.44030650891055,24.041630560342615,18.681541692269406,14.5,10.0,16.0,3.0,10.0,3.0,1.0,2.0,3.1622776601683795,3.0,15.0,7.0,13.152946437965905
373,67,544,0,22.689333333333312,4.123105625617661,27.892651361962706,3.1622776601683795,5.0990195135927845,6.082762530298219,7.280109889280518,9.486832980505138,21.840329667841555,16.76305461424021,14.0,9.0,16.0,3.5,8.5,2.5,0.5,2.23606797749979,3.1622776601683795,3.0,14.0,6.0,11.180339887498949
374,67,545,0,22.731041666666645,2.23606797749979,25.96150997149434,3.1622776601683795,5.0990195135927845,6.324555320336759,8.54400374531753,10.44030650891055,20.8806130178211,15.811388300841896,14.0,10.0,17.0,3.5,6.5,0.5,0.5,3.1622776601683795,3.1622776601683795,3.5,15.0,7.0,12.165525060596439
375,67,546,0,22.772749999999977,1.4142135623730951,25.96150997149434,3.1622776601683795,5.0990195135927845,6.324555320336759,7.615773105863909,10.44030650891055,19.924858845171276,14.866068747318506,13.5,10.0,17.0,3.5,5.5,1.5,0.5,2.23606797749979,3.1622776601683795,3.0,15.0,7.0,12.36931687685298
376,67,547,0,22.81445833333331,1.0,25.709920264364882,3.1622776601683795,5.0990195135927845,7.0710678118654755,7.280109889280518,10.44030650891055,19.6468827043885,14.560219778561036,13.5,11.0,17.0,4.0,5.0,1.0,1.0,3.1622776601683795,3.1622776601683795,3.0,15.0,7.0,13.152946437965905
377,67,548,0,22.85616666666664,1.4142135623730951,26.92582403567252,2.23606797749979,5.0990195135927845,8.246211251235321,8.54400374531753,11.180339887498949,19.6468827043885,14.560219778561036,13.5,10.0,17.0,2.5,5.5,1.5,0.5,3.0,3.1622776601683795,3.0,14.0,6.0,12.165525060596439
378,67,549,0,22.89787499999997,1.4142135623730951,26.92582403567252,2.23606797749979,5.0990195135927845,7.280109889280518,8.54400374531753,10.44030650891055,18.973665961010276,13.92838827718412,12.5,9.0,16.0,2.5,5.5,1.5,0.5,2.0,3.1622776601683795,3.0,15.0,7.0,12.36931687685298
379,67,550,0,22.939583333333307,1.4142135623730951,27.65863337187866,3.1622776601683795,5.0990195135927845,7.280109889280518,8.54400374531753,10.44030650891055,19.924858845171276,14.866068747318506,13.5,10.0,16.0,3.0,6.0,1.0,0.0,3.1622776601683795,3.0,3.0,15.0,7.0,13.341664064126334
380,67,551,0,22.98129166666664,2.23606797749979,27.892651361962706,2.23606797749979,6.082762530298219,7.280109889280518,8.246211251235321,11.40175425099138,21.840329667841555,15.811388300841896,14.0,10.0,17.0,2.5,7.5,0.5,0.5,3.0,4.123105625617661,3.5,14.0,7.0,12.165525060596439
381,67,552,0,23.02299999999997,2.23606797749979,26.92582403567252,2.23606797749979,6.082762530298219,6.324555320336759,7.280109889280518,11.40175425099138,21.840329667841555,15.811388300841896,14.0,10.0,17.0,2.5,7.5,0.5,0.5,2.23606797749979,3.1622776601683795,3.0,15.0,7.0,13.152946437965905
382,67,553,0,23.064708333333304,1.0,27.65863337187866,2.23606797749979,4.47213595499958,7.0710678118654755,7.280109889280518,11.180339887498949,18.681541692269406,14.317821063276353,13.5,10.0,16.0,2.0,5.0,0.0,0.0,3.1622776601683795,3.0,3.0,15.0,7.0,13.152946437965905
383,67,554,0,23.10641666666664,1.4142135623730951,27.65863337187866,2.23606797749979,4.123105625617661,7.280109889280518,8.246211251235321,11.40175425099138,18.973665961010276,14.866068747318506,13.5,10.0,16.0,2.0,5.0,0.0,0.0,3.1622776601683795,3.1622776601683795,3.0,15.0,7.0,11.180339887498949
384,67,555,0,23.14812499999997,1.4142135623730951,27.65863337187866,2.0,6.082762530298219,6.082762530298219,8.246211251235321,12.649110640673518,21.840329667841555,15.811388300841896,14.5,11.0,17.0,2.0,7.0,0.0,0.0,3.1622776601683795,3.0,3.0,15.0,7.0,13.152946437965905
385,67,556,0,23.1898333333333,4.123105625617661,27.892651361962706,1.0,5.385164807134504,7.280109889280518,7.615773105863909,11.704699910719626,22.135943621178654,16.76305461424021,14.0,10.0,17.0,2.5,7.5,1.5,0.5,2.0,3.0,3.0,14.0,6.0,13.152946437965905
386,67,557,0,23.23154166666664,4.0,28.635642126552707,2.23606797749979,5.385164807134504,7.280109889280518,7.280109889280518,10.44030650891055,21.840329667841555,16.492422502470642,14.0,10.0,16.0,3.0,8.0,2.0,0.0,3.1622776601683795,3.1622776601683795,3.5,15.0,8.0,12.165525060596439
387,67,558,0,23.273249999999965,3.1622776601683795,29.832867780352597,3.0,5.0990195135927845,7.280109889280518,7.280109889280518,10.770329614269007,21.840329667841555,16.76305461424021,14.5,10.0,17.0,3.5,7.5,1.5,0.5,3.1622776601683795,3.1622776601683795,3.0,14.0,7.0,13.038404810405298
388,67,559,0,23.314958333333298,4.123105625617661,29.832867780352597,2.23606797749979,5.0990195135927845,7.280109889280518,8.54400374531753,10.44030650891055,21.840329667841555,16.76305461424021,14.0,10.0,17.0,3.5,7.5,0.5,0.5,3.1622776601683795,3.1622776601683795,3.0,15.0,7.0,12.041594578792296
389,67,560,0,23.35666666666663,4.123105625617661,28.861739379323623,3.1622776601683795,5.0990195135927845,6.324555320336759,7.280109889280518,10.44030650891055,22.80350850198276,17.72004514666935,15.0,10.0,17.0,3.5,8.5,2.5,0.5,3.1622776601683795,4.123105625617661,3.5,15.0,7.0,12.165525060596439
390,67,561,0,23.39837499999996,4.123105625617661,28.861739379323623,1.0,5.0990195135927845,7.280109889280518,7.280109889280518,11.40175425099138,21.587033144922902,16.492422502470642,14.0,10.0,17.0,2.5,7.5,0.5,0.5,3.1622776601683795,4.123105625617661,3.5,15.0,7.0,12.165525060596439
391,67,562,0,23.44008333333329,4.123105625617661,28.861739379323623,2.0,4.123105625617661,7.280109889280518,7.280109889280518,10.44030650891055,20.615528128088304,16.492422502470642,14.0,10.0,17.0,3.5,6.5,1.5,0.5,3.1622776601683795,3.0,3.0,15.0,8.0,12.165525060596439
392,67,563,0,23.481791666666627,2.0,28.861739379323623,2.23606797749979,5.0990195135927845,7.0710678118654755,7.280109889280518,11.40175425099138,20.615528128088304,15.524174696260024,14.0,10.0,17.0,2.5,6.5,0.5,0.5,3.0,4.123105625617661,3.5,14.0,7.0,12.165525060596439
393,67,564,0,23.52349999999996,1.4142135623730951,27.892651361962706,2.0,5.0990195135927845,7.280109889280518,7.280109889280518,11.40175425099138,19.6468827043885,14.560219778561036,13.5,10.0,17.0,2.5,5.5,0.5,0.5,3.0,4.123105625617661,3.5,14.0,7.0,13.152946437965905
394,67,565,0,23.56520833333329,2.23606797749979,26.68332812825267,2.0,5.0990195135927845,7.280109889280518,8.246211251235321,11.40175425099138,20.615528128088304,15.524174696260024,14.0,11.0,17.0,3.0,6.0,1.0,0.0,3.1622776601683795,3.1622776601683795,3.0,13.0,6.0,12.165525060596439
395,67,566,0,23.606916666666624,1.0,25.709920264364882,2.0,5.0990195135927845,7.280109889280518,8.246211251235321,11.40175425099138,18.681541692269406,13.601470508735444,13.0,10.0,16.0,2.0,5.0,1.0,0.0,2.0,3.1622776601683795,3.0,14.0,7.0,12.041594578792296
396,67,567,0,23.64862499999996,1.0,27.892651361962706,2.23606797749979,5.385164807134504,7.280109889280518,7.615773105863909,11.180339887498949,19.6468827043885,14.317821063276353,13.5,9.0,16.0,1.5,6.5,0.5,0.5,2.23606797749979,3.0,3.0,14.0,7.0,12.165525060596439
397,67,568,0,23.69033333333329,2.23606797749979,27.892651361962706,2.0,4.123105625617661,6.324555320336759,6.324555320336759,11.40175425099138,19.6468827043885,15.524174696260024,14.0,9.0,16.0,1.5,6.5,0.5,0.5,3.1622776601683795,4.123105625617661,3.5,14.0,7.0,13.152946437965905
398,67,569,0,23.73204166666662,2.23606797749979,28.635642126552707,2.0,5.0990195135927845,7.280109889280518,8.246211251235321,11.704699910719626,20.8806130178211,15.811388300841896,14.0,10.0,16.0,2.0,7.0,1.0,0.0,3.1622776601683795,4.123105625617661,3.5,14.0,7.0,12.165525060596439
399,67,570,0,23.77374999999996,3.1622776601683795,28.861739379323623,3.1622776601683795,6.082762530298219,6.324555320336759,7.615773105863909,10.44030650891055,22.80350850198276,16.76305461424021,14.5,9.0,16.0,2.5,9.5,2.5,1.5,3.1622776601683795,3.1622776601683795,3.0,15.0,8.0,13.152946437965905
400,67,571,0,23.81545833333329,4.123105625617661,26.68332812825267,2.23606797749979,6.082762530298219,6.324555320336759,7.280109889280518,11.40175425099138,23.769728648009426,17.72004514666935,15.0,11.0,17.0,3.0,9.0,2.0,0.0,3.1622776601683795,3.1622776601683795,3.5,15.0,8.0,12.165525060596439
401,67,572,0,23.85716666666662,4.123105625617661,25.709920264364882,2.0,5.0990195135927845,6.324555320336759,7.280109889280518,11.40175425099138,22.561028345356956,17.46424919657298,15.0,11.0,17.0,3.0,8.0,1.0,0.0,3.1622776601683795,3.1622776601683795,3.5,15.0,8.0,11.180339887498949
402,67,573,0,23.89887499999995,3.1622776601683795,26.68332812825267,2.23606797749979,4.123105625617661,8.06225774829855,9.219544457292887,11.40175425099138,20.8806130178211,16.76305461424021,14.5,11.0,17.0,3.0,6.0,1.0,1.0,2.0,3.1622776601683795,3.0,14.0,7.0,12.165525060596439
403,67,574,0,23.940583333333283,1.4142135623730951,28.861739379323623,2.0,5.0990195135927845,8.246211251235321,8.06225774829855,11.40175425099138,19.6468827043885,14.560219778561036,13.5,10.0,17.0,2.5,5.5,0.5,0.5,3.0,3.1622776601683795,3.5,13.0,7.0,11.045361017187261
404,67,575,0,23.98229166666661,4.0,28.861739379323623,3.1622776601683795,5.385164807134504,8.246211251235321,9.219544457292887,7.280109889280518,19.6468827043885,14.317821063276353,12.0,9.0,16.0,5.5,6.5,0.5,1.5,3.1622776601683795,3.1622776601683795,3.5,14.0,7.0,12.041594578792296
405,67,576,0,24.023999999999948,3.0,28.635642126552707,2.23606797749979,4.123105625617661,9.219544457292887,9.219544457292887,11.40175425099138,20.615528128088304,16.492422502470642,14.5,10.0,16.0,2.0,7.0,2.0,1.0,3.1622776601683795,3.1622776601683795,3.0,13.0,6.0,12.36931687685298
406,67,577,0,24.06570833333328,3.1622776601683795,29.832867780352597,1.4142135623730951,5.0990195135927845,7.280109889280518,8.246211251235321,12.36931687685298,21.840329667841555,16.76305461424021,14.5,10.0,17.0,1.5,7.5,1.5,0.5,3.1622776601683795,4.0,4.0,14.0,7.0,11.180339887498949
407,67,578,0,24.10741666666661,3.1622776601683795,29.614185789921695,2.0,4.123105625617661,9.055385138137417,9.219544457292887,10.198039027185569,19.4164878389476,15.297058540778355,13.5,9.0,15.0,2.0,7.0,2.0,0.0,2.23606797749979,2.23606797749979,2.0,14.0,7.0,12.165525060596439
408,67,579,0,24.149124999999945,2.0,29.832867780352597,2.23606797749979,4.123105625617661,7.280109889280518,7.615773105863909,11.180339887498949,19.4164878389476,15.297058540778355,14.0,9.0,16.0,1.5,6.5,0.5,0.5,2.23606797749979,2.23606797749979,2.5,14.0,8.0,12.041594578792296
409,67,580,0,24.19083333333328,2.23606797749979,30.805843601498726,2.0,4.123105625617661,8.06225774829855,8.246211251235321,10.198039027185569,18.439088914585774,14.317821063276353,13.0,8.0,15.0,1.5,6.5,1.5,0.5,2.23606797749979,3.1622776601683795,3.0,14.0,7.0,12.165525060596439
410,67,581,0,24.23254166666661,1.4142135623730951,29.614185789921695,2.23606797749979,4.123105625617661,8.246211251235321,8.246211251235321,11.180339887498949,18.681541692269406,14.560219778561036,13.5,9.0,15.0,1.0,6.0,1.0,1.0,2.23606797749979,3.0,3.0,14.0,7.0,13.152946437965905
411,67,582,0,24.27424999999994,1.4142135623730951,29.614185789921695,2.0,4.123105625617661,7.0710678118654755,8.246211251235321,11.40175425099138,18.681541692269406,14.560219778561036,13.5,10.0,16.0,2.0,5.0,0.0,0.0,2.0,3.1622776601683795,3.0,14.0,8.0,13.152946437965905
412,67,583,0,24.31595833333328,2.0,29.614185789921695,2.23606797749979,4.123105625617661,9.055385138137417,9.055385138137417,10.198039027185569,18.439088914585774,14.317821063276353,13.0,8.0,14.0,1.0,7.0,2.0,1.0,2.23606797749979,2.23606797749979,2.5,14.0,7.0,12.165525060596439
413,67,584,0,24.357666666666606,1.0,26.68332812825267,2.23606797749979,4.123105625617661,7.280109889280518,7.280109889280518,11.180339887498949,18.439088914585774,14.317821063276353,13.5,10.0,16.0,2.0,5.0,1.0,1.0,1.4142135623730951,2.23606797749979,2.0,14.0,8.0,11.180339887498949
414,67,585,0,24.39937499999994,1.4142135623730951,26.68332812825267,2.23606797749979,5.0990195135927845,7.0710678118654755,8.06225774829855,11.180339887498949,19.6468827043885,14.560219778561036,13.5,10.0,16.0,2.0,6.0,0.0,0.0,1.0,2.23606797749979,2.0,14.0,7.0,12.041594578792296
415,67,586,0,24.44108333333327,3.1622776601683795,29.832867780352597,3.0,4.123105625617661,8.246211251235321,9.219544457292887,9.219544457292887,19.4164878389476,15.297058540778355,13.5,9.0,16.0,3.5,6.5,0.5,0.5,2.23606797749979,2.23606797749979,2.0,15.0,8.0,13.038404810405298
416,67,587,0,24.482791666666603,3.1622776601683795,29.832867780352597,2.0,4.123105625617661,8.246211251235321,8.246211251235321,10.198039027185569,19.4164878389476,15.297058540778355,13.5,9.0,16.0,2.5,6.5,1.5,0.5,2.0,2.23606797749979,2.5,13.0,7.0,14.142135623730951
417,67,588,0,24.524499999999936,5.0990195135927845,30.805843601498726,1.0,4.123105625617661,9.055385138137417,10.198039027185569,10.04987562112089,20.223748416156685,16.1245154965971,13.5,9.0,16.0,2.5,7.5,1.5,1.5,2.0,2.0,2.5,14.0,6.0,14.142135623730951
418,67,589,0,24.566208333333268,5.0990195135927845,28.861739379323623,1.4142135623730951,5.0990195135927845,8.246211251235321,8.246211251235321,10.04987562112089,21.37755832643195,16.278820596099706,13.5,10.0,17.0,3.5,7.5,1.5,1.5,2.23606797749979,3.605551275463989,3.0,15.0,7.0,14.035668847618199
419,67,590,0,24.6079166666666,5.0990195135927845,28.635642126552707,1.0,4.123105625617661,8.246211251235321,8.246211251235321,10.04987562112089,20.223748416156685,16.1245154965971,13.5,11.0,17.0,4.0,6.0,0.0,2.0,2.23606797749979,3.1622776601683795,3.0,13.0,6.0,14.317821063276353
420,67,591,0,24.649624999999933,3.1622776601683795,29.614185789921695,3.0,4.123105625617661,10.04987562112089,10.198039027185569,9.055385138137417,19.235384061671343,15.132745950421556,13.5,11.0,17.0,5.0,5.0,1.0,2.0,2.23606797749979,2.23606797749979,2.5,13.0,6.0,14.035668847618199
421,67,592,0,24.691333333333265,2.23606797749979,29.832867780352597,2.23606797749979,5.0990195135927845,8.246211251235321,8.246211251235321,10.04987562112089,19.4164878389476,14.317821063276353,13.0,10.0,17.0,3.5,5.5,0.5,0.5,2.23606797749979,3.1622776601683795,2.5,13.0,6.0,13.038404810405298
422,67,593,0,24.7330416666666,4.123105625617661,29.614185789921695,1.0,4.123105625617661,8.246211251235321,9.219544457292887,10.198039027185569,19.4164878389476,15.297058540778355,13.0,9.0,15.0,2.0,7.0,1.0,0.0,2.23606797749979,3.1622776601683795,3.0,13.0,7.0,14.142135623730951
423,67,594,0,24.77474999999993,5.0990195135927845,30.59411708155671,1.0,4.123105625617661,8.06225774829855,10.198039027185569,11.180339887498949,21.37755832643195,17.26267650163207,14.5,10.0,16.0,2.0,8.0,3.0,1.0,2.0,3.1622776601683795,3.0,13.0,7.0,14.142135623730951
424,67,595,0,24.816458333333262,8.06225774829855,31.575306807693888,1.0,4.47213595499958,8.246211251235321,10.04987562112089,10.198039027185569,23.53720459187964,19.235384061671343,15.0,10.0,16.0,3.0,10.0,4.0,1.0,3.1622776601683795,3.0,3.0,14.0,7.0,13.152946437965905
425,67,596,0,24.858166666666595,6.324555320336759,33.734255586866,1.0,5.0990195135927845,9.219544457292887,10.198039027185569,10.198039027185569,22.561028345356956,17.46424919657298,14.0,9.0,16.0,2.5,9.5,3.5,0.5,2.23606797749979,3.1622776601683795,3.0,13.0,7.0,13.152946437965905
426,67,597,0,24.899874999999927,7.0710678118654755,32.984845004941285,2.23606797749979,5.0990195135927845,9.219544457292887,10.198039027185569,10.198039027185569,24.515301344262525,19.4164878389476,15.5,9.0,17.0,3.0,11.0,5.0,1.0,3.1622776601683795,4.123105625617661,3.5,15.0,7.0,14.142135623730951
427,67,598,0,24.94158333333326,10.04987562112089,32.7566787083184,1.4142135623730951,5.0990195135927845,9.219544457292887,10.198039027185569,9.486832980505138,25.709920264364882,20.615528128088304,15.0,9.0,16.0,3.5,12.5,6.5,1.5,3.0,3.1622776601683795,3.0,14.0,6.0,13.152946437965905
428,67,599,0,24.98329166666659,9.055385138137417,32.984845004941285,1.4142135623730951,4.47213595499958,8.246211251235321,9.486832980505138,10.198039027185569,24.73863375370596,20.396078054371138,15.5,9.0,17.0,3.0,11.0,6.0,1.0,3.0,3.1622776601683795,3.0,13.0,5.0,13.152946437965905
429,67,600,0,25.024999999999924,5.0990195135927845,31.78049716414141,2.0,4.47213595499958,9.055385138137417,9.219544457292887,10.198039027185569,21.587033144922902,17.26267650163207,14.5,9.0,16.0,2.5,8.5,2.5,0.5,2.23606797749979,3.1622776601683795,3.0,14.0,6.0,12.165525060596439
430,67,601,0,25.066708333333256,6.082762530298219,30.083217912982647,2.23606797749979,4.47213595499958,9.219544457292887,9.486832980505138,9.219544457292887,21.840329667841555,17.46424919657298,14.0,10.0,18.0,5.0,7.0,1.0,2.0,3.0,3.1622776601683795,3.0,13.0,5.0,13.341664064126334
431,67,602,0,25.10841666666659,1.4142135623730951,27.65863337187866,3.0,4.47213595499958,8.246211251235321,8.246211251235321,11.40175425099138,19.924858845171276,15.524174696260024,14.5,11.0,17.0,3.0,5.0,1.0,0.0,2.23606797749979,3.1622776601683795,3.0,14.0,5.0,13.152946437965905
432,67,603,0,25.15012499999992,4.123105625617661,31.04834939252005,3.1622776601683795,4.123105625617661,8.246211251235321,9.219544457292887,9.219544457292887,20.615528128088304,16.492422502470642,14.0,9.0,17.0,4.0,7.0,1.0,1.0,3.1622776601683795,3.1622776601683795,3.0,14.0,5.0,13.152946437965905
433,67,604,0,25.191833333333253,4.123105625617661,28.861739379323623,2.23606797749979,4.123105625617661,7.280109889280518,8.54400374531753,10.44030650891055,20.8806130178211,16.76305461424021,14.0,9.0,16.0,2.5,7.5,1.5,0.5,3.0,3.1622776601683795,3.0,14.0,6.0,14.317821063276353
434,67,605,0,25.233541666666586,4.123105625617661,31.04834939252005,2.23606797749979,4.47213595499958,8.246211251235321,9.219544457292887,10.44030650891055,21.18962010041709,16.76305461424021,14.0,8.0,16.0,2.0,8.0,2.0,1.0,3.1622776601683795,3.1622776601683795,3.0,14.0,6.0,12.165525060596439
435,67,606,0,25.27524999999992,2.23606797749979,30.805843601498726,1.4142135623730951,4.123105625617661,8.246211251235321,9.219544457292887,11.180339887498949,18.681541692269406,14.560219778561036,13.0,8.0,15.0,0.5,6.5,1.5,1.5,2.23606797749979,3.1622776601683795,3.0,14.0,6.0,13.152946437965905
436,67,607,0,25.31695833333325,2.23606797749979,31.04834939252005,2.0,4.47213595499958,8.246211251235321,9.219544457292887,9.848857801796104,18.384776310850235,13.92838827718412,12.0,6.0,14.0,1.0,7.0,1.0,2.0,2.23606797749979,3.1622776601683795,2.5,14.0,5.0,12.165525060596439
437,67,608,0,25.358666666666583,5.0990195135927845,35.4400902933387,1.4142135623730951,4.47213595499958,9.486832980505138,9.486832980505138,10.44030650891055,21.18962010041709,16.76305461424021,13.5,5.0,15.0,0.0,10.0,4.0,2.0,2.23606797749979,3.0,3.0,14.0,5.0,12.36931687685298
438,67,609,0,25.400374999999915,5.0990195135927845,34.48187929913333,2.23606797749979,5.385164807134504,10.198039027185569,10.198039027185569,9.219544457292887,21.840329667841555,16.492422502470642,13.5,5.0,15.0,1.0,11.0,4.0,1.0,2.23606797749979,2.8284271247461903,2.5,15.0,5.0,13.601470508735444
439,67,610,0,25.442083333333247,4.123105625617661,34.48187929913333,2.23606797749979,4.47213595499958,9.486832980505138,9.486832980505138,8.246211251235321,18.973665961010276,14.560219778561036,12.0,4.0,14.0,1.0,9.0,3.0,2.0,2.23606797749979,3.1622776601683795,2.5,15.0,5.0,12.36931687685298
440,67,611,0,25.48379166666658,3.605551275463989,36.40054944640259,2.23606797749979,4.123105625617661,10.198039027185569,10.44030650891055,9.219544457292887,18.973665961010276,14.866068747318506,12.5,4.0,14.0,0.0,9.0,3.0,2.0,3.1622776601683795,2.23606797749979,2.5,14.0,5.0,13.341664064126334
441,67,612,0,25.525499999999912,3.1622776601683795,35.17101079013795,1.4142135623730951,4.47213595499958,9.486832980505138,10.198039027185569,9.219544457292887,18.027756377319946,13.601470508735444,11.5,4.0,13.0,0.5,8.5,2.5,2.5,2.23606797749979,3.0,2.5,15.0,5.0,12.36931687685298
442,67,613,0,25.567208333333244,3.1622776601683795,35.17101079013795,1.4142135623730951,4.47213595499958,9.486832980505138,10.198039027185569,9.219544457292887,18.027756377319946,13.601470508735444,11.5,4.0,13.0,0.5,8.5,2.5,2.5,3.1622776601683795,3.0,3.0,14.0,5.0,14.317821063276353
443,67,614,0,25.608916666666577,4.123105625617661,36.40054944640259,2.23606797749979,3.605551275463989,10.198039027185569,11.40175425099138,8.246211251235321,18.027756377319946,14.560219778561036,12.0,3.0,13.0,0.0,9.0,4.0,2.0,2.23606797749979,3.0,2.5,15.0,5.0,14.142135623730951
444,67,615,0,25.65062499999991,3.605551275463989,35.4400902933387,1.4142135623730951,3.1622776601683795,9.486832980505138,10.44030650891055,10.198039027185569,18.027756377319946,14.866068747318506,12.5,4.0,14.0,1.0,8.0,3.0,2.0,2.23606797749979,3.1622776601683795,2.5,15.0,5.0,12.36931687685298
445,67,616,0,25.69233333333324,4.47213595499958,38.600518131237564,1.4142135623730951,4.47213595499958,10.44030650891055,11.40175425099138,9.219544457292887,19.313207915827967,14.866068747318506,12.0,3.0,14.0,0.5,9.5,3.5,2.5,2.23606797749979,3.1622776601683795,2.5,15.0,5.0,13.341664064126334
446,67,617,0,25.73404166666657,4.47213595499958,38.600518131237564,2.23606797749979,4.123105625617661,11.40175425099138,12.36931687685298,8.246211251235321,18.973665961010276,14.866068747318506,12.0,2.0,13.0,0.5,10.5,4.5,2.5,2.23606797749979,3.1622776601683795,3.0,15.0,5.0,13.152946437965905
447,67,618,0,25.775749999999903,4.47213595499958,38.600518131237564,1.4142135623730951,4.123105625617661,9.486832980505138,10.44030650891055,9.486832980505138,19.313207915827967,15.231546211727817,12.0,3.0,14.0,0.5,9.5,3.5,2.5,2.23606797749979,2.23606797749979,2.5,15.0,6.0,14.317821063276353
448,67,619,0,25.81745833333324,5.385164807134504,37.36308338453881,1.4142135623730951,4.123105625617661,10.44030650891055,10.44030650891055,8.54400374531753,19.313207915827967,15.231546211727817,11.5,3.0,13.0,0.0,10.0,4.0,2.0,2.23606797749979,3.1622776601683795,3.0,15.0,6.0,13.152946437965905
449,67,620,0,25.85916666666657,4.123105625617661,36.138621999185304,1.4142135623730951,4.47213595499958,10.44030650891055,10.44030650891055,9.486832980505138,19.313207915827967,14.866068747318506,12.0,4.0,13.0,0.5,9.5,3.5,2.5,2.23606797749979,3.1622776601683795,2.5,15.0,5.0,14.142135623730951
450,67,621,0,25.900874999999903,5.0990195135927845,37.107950630558946,1.4142135623730951,4.47213595499958,9.486832980505138,11.40175425099138,8.54400374531753,19.313207915827967,14.866068747318506,11.5,3.0,12.0,0.5,10.5,4.5,2.5,2.23606797749979,3.1622776601683795,3.0,16.0,7.0,13.341664064126334
451,67,622,0,25.94258333333324,4.47213595499958,35.90264614203248,2.23606797749979,5.0990195135927845,10.198039027185569,11.180339887498949,8.246211251235321,19.924858845171276,14.866068747318506,12.0,4.0,12.0,0.0,11.0,5.0,2.0,3.1622776601683795,3.0,3.0,15.0,6.0,12.165525060596439
452,67,623,0,25.98429166666657,3.605551275463989,37.107950630558946,3.1622776601683795,4.123105625617661,10.198039027185569,11.180339887498949,9.486832980505138,20.248456731316587,16.15549442140351,13.5,6.0,15.0,1.5,8.5,3.5,1.5,3.1622776601683795,4.0,4.0,16.0,5.0,11.40175425099138
453,67,624,0,26.0259999999999,2.8284271247461903,39.05124837953327,3.1622776601683795,4.123105625617661,9.219544457292887,10.198039027185569,10.44030650891055,20.248456731316587,16.15549442140351,14.0,8.0,17.0,2.5,6.5,1.5,0.5,4.123105625617661,5.0990195135927845,5.0,18.0,5.0,11.704699910719626
454,67,625,0,26.06770833333324,2.23606797749979,30.083217912982647,2.23606797749979,3.1622776601683795,7.615773105863909,8.54400374531753,11.045361017187261,15.811388300841896,12.649110640673518,12.5,9.0,17.0,2.0,2.0,2.0,1.0,5.0990195135927845,5.0990195135927845,4.5,18.0,5.0,13.601470508735444
455,67,626,0,26.109416666666565,4.0,29.427877939124322,2.0,4.123105625617661,7.0710678118654755,7.280109889280518,9.219544457292887,19.235384061671343,15.132745950421556,13.0,9.0,14.0,2.5,7.5,2.5,0.5,4.123105625617661,5.0990195135927845,4.5,19.0,7.0,13.341664064126334
456,67,627,0,26.151124999999897,2.23606797749979,27.892651361962706,2.0,5.0990195135927845,7.280109889280518,7.280109889280518,10.198039027185569,19.4164878389476,14.317821063276353,13.0,10.0,17.0,3.5,5.5,0.5,0.5,3.1622776601683795,4.123105625617661,4.0,19.0,8.0,13.601470508735444
