,video_id,frame_seq,time_seconds,m1,m3,m4,m5,m6,m7,m8,m9,m10,m11,m12,m13,m14,m15,m16,m17,e1,e2,e3,b1,b2,b3
0,60,5,0.166833333333333,11.045361017187261,78.02563681252464,8.0,14.0,21.02379604162864,23.0,22.0,55.00909015790027,41.012193308819754,35.5,35.0,33.0,12.0,21.0,6.0,5.0,8.0,9.055385138137417,9.0,27.0,30.0,25.019992006393608
1,60,6,0.2001999999999996,9.055385138137417,76.02631123499285,8.0,15.0,20.024984394500787,22.02271554554524,23.021728866442675,55.036351623268054,40.049968789001575,35.5,36.0,34.0,12.0,20.0,4.0,5.0,8.0,8.0,8.0,27.0,30.0,24.020824298928627
2,60,7,0.2335666666666662,6.082762530298219,75.05997601918082,9.0,14.0,20.024984394500787,22.02271554554524,24.0,53.009433122794285,39.01281840626232,36.0,38.0,35.0,12.5,16.5,1.5,4.5,8.0,8.0,8.0,27.0,29.0,27.0
3,60,8,0.2669333333333328,6.082762530298219,75.05997601918082,9.0,15.0,20.024984394500787,22.02271554554524,24.020824298928627,54.0,39.0,36.0,37.0,34.0,11.5,18.5,2.5,4.5,7.0,7.0710678118654755,7.5,26.0,28.0,28.0
4,60,9,0.3002999999999994,5.0990195135927845,76.10519036176179,8.0,14.0,21.095023109728988,23.08679276123039,26.019223662515376,53.03772242470448,39.05124837953327,36.5,38.0,34.0,10.0,17.0,3.0,4.0,6.0,6.0,6.5,25.0,29.0,30.01666203960727
5,60,10,0.333666666666666,5.0,76.16429609731846,9.055385138137417,15.033296378372908,22.090722034374522,24.020824298928627,24.0,53.03772242470448,38.01315561749642,35.5,38.0,33.0,11.5,17.5,1.5,4.5,7.0710678118654755,7.0,7.0,26.0,29.0,31.016124838541646
6,60,11,0.3670333333333326,5.0990195135927845,74.16872656315464,9.0,14.0,21.095023109728988,23.08679276123039,24.0,52.009614495783374,38.01315561749642,35.5,38.0,33.0,11.5,16.5,1.5,4.5,7.0,7.0,7.0,26.0,29.0,30.01666203960727
7,60,12,0.4003999999999992,4.123105625617661,76.23647421018367,9.0,13.0,22.090722034374522,23.08679276123039,25.019992006393608,51.03920062069938,38.05259518088089,36.0,38.0,32.0,10.0,16.0,2.0,3.0,7.0710678118654755,8.0,8.0,27.0,31.0,31.016124838541646
8,60,13,0.4337666666666658,3.1622776601683795,76.23647421018367,9.0,16.0,22.02271554554524,23.08679276123039,24.020824298928627,52.03844732503075,36.05551275463989,34.5,37.0,31.0,10.0,18.0,2.0,3.0,8.0,8.0,8.5,29.0,31.0,32.01562118716424
9,60,14,0.4671333333333324,5.0990195135927845,78.31347265956222,8.0,14.035668847618199,21.095023109728988,22.090722034374522,24.0,51.03920062069938,37.013511046643494,34.5,37.0,30.0,9.5,17.5,3.5,3.5,9.0,9.0,9.0,31.0,32.0,35.0
10,60,15,0.5004999999999991,4.123105625617661,78.23042886243178,9.0,14.0,21.02379604162864,22.090722034374522,24.020824298928627,51.03920062069938,37.05401462729781,35.0,38.0,32.0,11.0,16.0,2.0,4.0,9.0,9.0,9.0,31.0,32.0,35.0
11,60,16,0.5338666666666656,5.0990195135927845,79.30952023559341,8.0,13.038404810405298,23.08679276123039,24.186773244895647,24.0,50.039984012787215,37.013511046643494,34.5,37.0,30.0,9.5,16.5,3.5,4.5,9.055385138137417,9.0,9.5,31.0,33.0,35.014282800023196
12,60,17,0.5672333333333321,3.1622776601683795,78.31347265956222,8.06225774829855,14.0,22.02271554554524,22.090722034374522,24.0,49.040799340956916,35.05709628591621,33.5,37.0,30.0,9.5,15.5,1.5,3.5,9.0,9.0,9.5,30.0,32.0,35.0
13,60,18,0.6005999999999987,7.0710678118654755,77.23341245859851,7.0,14.0,22.090722034374522,23.194827009486403,23.08679276123039,51.088159097779204,37.12142238654117,33.5,36.0,30.0,10.0,18.0,4.0,5.0,9.0,9.0,9.5,30.0,32.0,36.0
14,60,19,0.6339666666666652,4.123105625617661,79.30952023559341,8.0,13.0,22.090722034374522,23.08679276123039,23.021728866442675,48.041648597857254,35.05709628591621,33.0,37.0,30.0,10.5,14.5,1.5,4.5,10.0,9.0,9.5,31.0,33.0,34.0147027033899
15,60,20,0.6673333333333318,10.0,93.34345183246653,9.0,15.0,24.331050121192877,26.30589287593181,25.0,59.0,44.0,39.0,41.0,33.0,12.0,22.0,8.0,7.0,10.0,10.04987562112089,10.0,33.0,32.0,38.0
16,60,21,0.7006999999999983,9.055385138137417,88.2779700718135,10.0,15.0,23.194827009486403,24.331050121192877,26.076809620810597,60.00833275470999,45.0111097397076,40.5,41.0,34.0,11.5,22.5,8.5,4.5,10.0,11.045361017187261,10.5,32.0,32.0,40.0
17,60,22,0.7340666666666649,9.055385138137417,86.37129152675674,10.0,14.0,23.194827009486403,25.317977802344327,26.019223662515376,59.0,45.0,40.5,42.0,34.0,12.0,21.0,8.0,5.0,11.045361017187261,10.0,10.0,31.0,33.0,39.0
18,60,23,0.7674333333333314,9.055385138137417,85.47514258543241,10.0,15.0,22.20360331117452,24.186773244895647,26.0,60.00833275470999,45.0111097397076,40.5,42.0,33.0,11.5,22.5,8.5,4.5,9.0,10.0,9.5,31.0,33.0,37.013511046643494
19,60,24,0.800799999999998,9.055385138137417,85.70880934886448,10.0,16.0312195418814,21.37755832643195,24.331050121192877,26.019223662515376,61.00819617067857,45.0,40.5,44.0,33.0,12.5,22.5,7.5,5.5,9.0,10.0,9.5,30.0,33.0,36.013886210738214
20,60,25,0.8341666666666645,6.082762530298219,76.32168761236873,10.0,15.0,20.09975124224178,21.213203435596427,23.08679276123039,54.00925846556311,39.01281840626232,36.0,42.0,35.0,15.5,15.5,1.5,7.5,9.0,10.0,10.0,34.0,36.0,35.014282800023196
21,60,26,0.867533333333331,6.0,78.23042886243178,11.0,16.0,20.223748416156685,21.213203435596427,25.0,58.0,42.0,39.0,45.0,39.0,17.0,16.0,1.0,8.0,10.04987562112089,11.0,11.0,34.0,34.0,34.0
22,60,27,0.9008999999999976,6.082762530298219,73.33484846919642,9.0,13.0,18.24828759089466,20.09975124224178,26.076809620810597,54.08326913195984,41.10960958218893,38.0,45.0,38.0,15.5,12.5,0.5,9.5,10.04987562112089,11.0,10.5,35.0,35.0,33.0
23,60,28,0.934266666666664,3.0,75.23961722390672,9.0,14.035668847618199,19.1049731745428,21.095023109728988,26.0,52.009614495783374,38.0,36.5,43.0,37.0,14.0,12.0,1.0,7.0,9.055385138137417,10.04987562112089,9.5,33.0,33.0,36.013886210738214
24,60,29,0.9676333333333308,6.0,77.1621668954417,9.0,14.0,20.09975124224178,22.090722034374522,24.020824298928627,53.009433122794285,39.01281840626232,36.0,41.0,36.0,14.5,14.5,0.5,7.5,9.0,10.04987562112089,10.0,35.0,34.0,34.0147027033899
25,60,30,1.0009999999999972,7.0,74.10802925459562,9.0,14.0,20.09975124224178,21.095023109728988,23.021728866442675,53.009433122794285,39.01281840626232,35.5,39.0,35.0,14.0,16.0,2.0,7.0,8.0,9.0,9.0,35.0,34.0,34.0147027033899
26,60,31,1.0343666666666638,4.123105625617661,75.05997601918082,11.0,16.0,21.095023109728988,22.090722034374522,23.021728866442675,54.0,38.0,36.0,40.0,37.0,15.5,15.5,0.5,6.5,10.0,10.04987562112089,10.0,35.0,34.0,37.013511046643494
27,60,32,1.0677333333333303,5.0,79.02531240052139,9.0,15.033296378372908,19.1049731745428,21.095023109728988,24.020824298928627,53.03772242470448,38.01315561749642,35.5,37.0,35.0,12.0,17.0,3.0,4.0,10.0,9.0,9.0,32.0,33.0,35.0
28,60,33,1.1010999999999969,2.23606797749979,76.16429609731846,11.0,15.0,20.09975124224178,21.213203435596427,24.0,52.009614495783374,37.013511046643494,36.0,42.0,37.0,15.5,12.5,1.5,6.5,8.0,9.055385138137417,9.5,34.0,33.0,36.0
29,60,34,1.1344666666666634,0.0,73.24616030891995,9.0,14.035668847618199,19.1049731745428,20.09975124224178,27.073972741361768,50.00999900019995,36.05551275463989,36.0,43.0,37.0,13.0,10.0,3.0,5.0,9.0,10.0,9.5,33.0,33.0,40.0
30,60,35,1.16783333333333,0.0,77.31752712031083,11.0,15.0,19.235384061671343,20.223748416156685,24.08318915758459,50.039984012787215,35.05709628591621,35.0,43.0,36.0,15.5,10.5,3.5,6.5,9.0,10.0,9.5,34.0,34.0,34.0
31,60,36,1.2011999999999965,2.0,74.43117626371358,9.0,12.041594578792296,19.1049731745428,19.235384061671343,25.179356624028344,48.041648597857254,36.124783736376884,35.0,44.0,36.0,15.0,8.0,3.0,7.0,9.0,10.0,10.0,33.0,33.0,38.0
32,60,37,1.234566666666663,0.0,78.40918313565064,12.0,14.0,20.09975124224178,21.213203435596427,23.08679276123039,49.040799340956916,35.05709628591621,35.0,44.0,36.0,17.0,9.0,4.0,6.0,9.055385138137417,10.0,9.5,33.0,33.0,37.0
33,60,38,1.2679333333333296,2.23606797749979,75.66372975210778,9.0,14.0,21.213203435596427,22.20360331117452,26.0,51.0098029794274,37.013511046643494,36.0,46.0,36.0,15.0,10.0,2.0,8.0,10.0,9.0,9.5,31.0,32.0,36.013886210738214
34,60,39,1.301299999999996,2.23606797749979,80.75270893288967,11.0,12.0,22.20360331117452,23.194827009486403,25.019992006393608,50.039984012787215,38.05259518088089,37.0,46.0,35.0,15.5,9.5,1.5,7.5,10.04987562112089,10.0,10.0,30.0,32.0,38.01315561749642
35,60,40,1.334666666666663,4.123105625617661,80.89499366462674,10.0,14.035668847618199,23.345235059857504,24.515301344262525,26.0,54.037024344425184,40.01249804748511,38.0,47.0,35.0,15.0,13.0,1.0,8.0,9.0,10.0,9.5,29.0,31.0,36.013886210738214
36,60,41,1.3680333333333292,9.0,92.13576938409967,10.0,13.0,25.019992006393608,27.073972741361768,27.0,59.0,46.0,41.5,41.0,36.0,11.5,20.5,7.5,3.5,9.055385138137417,10.0,9.5,30.0,33.0,36.05551275463989
37,60,42,1.4013999999999958,3.1622776601683795,88.2779700718135,10.04987562112089,13.038404810405298,23.194827009486403,24.186773244895647,28.0178514522438,54.037024344425184,41.012193308819754,39.5,42.0,35.0,10.5,15.5,2.5,3.5,10.04987562112089,10.04987562112089,9.5,30.0,34.0,37.05401462729781
38,60,43,1.4347666666666623,4.47213595499958,87.36704184073076,10.04987562112089,13.0,24.331050121192877,25.317977802344327,27.018512172212592,54.037024344425184,41.048751503547585,39.0,45.0,37.0,14.0,13.0,1.0,7.0,11.0,10.0,10.0,29.0,33.0,39.01281840626232
39,60,44,1.4681333333333288,3.0,72.3394774656273,9.0,13.0,20.09975124224178,21.095023109728988,25.079872407968907,50.039984012787215,37.05401462729781,35.5,43.0,36.0,14.5,10.5,2.5,6.5,8.0,9.0,9.0,32.0,34.0,34.058772731852805
40,60,45,1.5014999999999954,2.23606797749979,70.25667228100119,9.0,11.045361017187261,20.09975124224178,21.095023109728988,26.076809620810597,48.16637831516918,37.12142238654117,36.0,42.0,36.0,13.0,9.0,2.0,6.0,7.0,8.0,8.5,32.0,34.0,33.015148038438355
41,60,46,1.534866666666662,2.0,74.33034373659252,10.0,12.0,20.09975124224178,20.223748416156685,25.079872407968907,49.040799340956916,37.05401462729781,36.0,42.0,35.0,13.5,10.5,1.5,5.5,8.0,10.0,10.0,32.0,35.0,34.058772731852805
42,60,47,1.5682333333333285,2.23606797749979,77.64663547121665,10.0,13.0,21.37755832643195,22.20360331117452,24.08318915758459,49.09175083453431,36.124783736376884,35.0,44.0,34.0,15.0,10.0,2.0,8.0,10.04987562112089,10.0,9.5,32.0,32.0,36.0
43,60,48,1.601599999999995,3.0,73.24616030891995,10.04987562112089,12.0,20.024984394500787,21.095023109728988,24.0,49.01020301937138,37.013511046643494,35.5,41.0,35.0,14.0,11.0,1.0,6.0,9.0,10.0,10.0,31.0,34.0,37.013511046643494
44,60,49,1.6349666666666616,4.47213595499958,74.81310045707235,9.0,12.041594578792296,20.396078054371138,21.587033144922902,27.0,52.08646657242167,40.049968789001575,38.0,47.0,36.0,14.5,10.5,0.5,8.5,11.0,10.04987562112089,10.0,30.0,33.0,39.01281840626232
45,60,50,1.668333333333328,1.0,77.64663547121665,9.055385138137417,13.0,21.213203435596427,22.20360331117452,27.0,50.00999900019995,37.013511046643494,36.5,47.0,37.0,15.0,8.0,4.0,8.0,8.0,8.06225774829855,8.0,29.0,32.0,39.05124837953327
46,60,51,1.7016999999999949,4.123105625617661,75.8023746329889,9.0,13.0,20.223748416156685,21.37755832643195,26.0,52.009614495783374,39.01281840626232,37.0,48.0,37.0,16.5,9.5,2.5,9.5,10.0,10.0,10.0,31.0,33.0,39.0
47,60,52,1.7350666666666612,3.1622776601683795,75.95393340703298,10.0,13.0,21.37755832643195,22.360679774997898,27.018512172212592,53.03772242470448,40.049968789001575,38.5,48.0,36.0,15.0,11.0,1.0,8.0,9.0,9.0,9.0,30.0,33.0,38.0
48,60,53,1.7684333333333278,4.123105625617661,85.21150157109074,10.0,14.0,23.194827009486403,24.186773244895647,26.019223662515376,54.0,40.0,38.0,41.0,35.0,12.0,16.0,2.0,5.0,9.0,9.055385138137417,9.0,29.0,31.0,35.014282800023196
49,60,54,1.8017999999999943,1.0,78.63841300535,9.055385138137417,14.0,24.331050121192877,24.186773244895647,26.0,50.00999900019995,36.013886210738214,35.5,45.0,35.0,14.0,10.0,3.0,8.0,7.0,8.0,7.5,30.0,33.0,38.01315561749642
50,60,55,1.8351666666666608,2.23606797749979,75.23961722390672,9.055385138137417,13.0,22.090722034374522,23.08679276123039,23.021728866442675,47.095647357266465,34.132096331752024,33.0,38.0,32.0,12.0,12.0,1.0,6.0,7.0710678118654755,8.06225774829855,8.5,31.0,33.0,38.0
51,60,56,1.8685333333333276,2.23606797749979,75.1065909225016,8.0,13.0,20.09975124224178,21.02379604162864,25.019992006393608,48.041648597857254,35.05709628591621,34.0,36.0,32.0,9.0,14.0,1.0,3.0,9.0,9.0,9.0,33.0,35.0,38.0
52,60,57,1.901899999999994,2.0,75.16648189186454,9.055385138137417,12.041594578792296,20.09975124224178,22.090722034374522,23.021728866442675,46.09772228646444,34.058772731852805,33.0,38.0,33.0,12.5,10.5,1.5,5.5,8.0,9.0,9.0,32.0,33.0,37.0
53,60,58,1.9352666666666605,3.1622776601683795,77.1621668954417,9.055385138137417,13.0,21.095023109728988,23.021728866442675,23.0,48.041648597857254,35.05709628591621,33.5,38.0,33.0,12.5,12.5,0.5,5.5,10.04987562112089,10.04987562112089,10.0,32.0,32.0,38.01315561749642
54,60,59,1.968633333333327,2.0,78.10249675906654,9.055385138137417,13.0,22.02271554554524,23.021728866442675,24.020824298928627,48.041648597857254,35.05709628591621,34.0,38.0,34.0,12.0,12.0,2.0,5.0,8.0,9.055385138137417,9.5,31.0,34.0,39.0
55,60,60,2.0019999999999936,4.123105625617661,76.16429609731846,9.0,13.0,22.02271554554524,23.021728866442675,23.0,49.01020301937138,36.013886210738214,34.0,39.0,34.0,13.5,12.5,1.5,6.5,8.0,8.0,8.5,32.0,34.0,37.0
56,60,61,2.0353666666666603,5.0990195135927845,71.11258679024411,8.0,14.0,20.09975124224178,21.02379604162864,25.079872407968907,52.08646657242167,38.118237105091836,35.5,40.0,36.0,13.0,14.0,0.0,7.0,7.0,8.0,8.5,32.0,33.0,38.01315561749642
57,60,62,2.068733333333327,5.0990195135927845,75.23961722390672,10.0,15.0,23.08679276123039,24.08318915758459,24.020824298928627,54.0,39.0,36.5,41.0,35.0,14.0,16.0,1.0,6.0,8.06225774829855,8.0,8.0,32.0,34.0,34.0147027033899
58,60,63,2.102099999999994,3.0,77.10382610480494,10.0,15.0,21.213203435596427,22.090722034374522,27.0,55.0,40.0,38.5,40.0,36.0,11.0,17.0,3.0,4.0,7.0710678118654755,8.06225774829855,8.0,32.0,34.0,39.01281840626232
59,60,64,2.1354666666666606,6.0,73.43704787094863,9.0,15.0,21.213203435596427,22.090722034374522,25.019992006393608,55.00909015790027,40.01249804748511,37.0,44.0,36.0,15.0,15.0,1.0,8.0,8.06225774829855,9.0,9.0,31.0,33.0,36.0
60,60,65,2.1688333333333274,2.0,81.09870529176159,10.04987562112089,16.0,20.09975124224178,22.090722034374522,25.179356624028344,53.03772242470448,37.05401462729781,36.0,37.0,33.0,10.0,18.0,2.0,2.0,9.055385138137417,9.0,8.5,32.0,33.0,34.0147027033899
61,60,66,2.202199999999994,9.0,87.20665112249179,9.055385138137417,14.0,23.194827009486403,25.317977802344327,26.1725046566048,58.034472514187634,44.04543109109048,39.5,39.0,33.0,10.0,22.0,8.0,4.0,9.0,9.055385138137417,9.0,34.0,35.0,38.0
62,60,67,2.235566666666661,6.0,88.20430828479978,10.0,15.0,24.186773244895647,25.317977802344327,25.0,56.0,41.0,38.0,40.0,34.0,12.0,19.0,4.0,5.0,9.0,9.0,9.0,33.0,34.0,38.01315561749642
63,60,68,2.268933333333328,5.0,87.20665112249179,10.0,16.0312195418814,23.194827009486403,25.317977802344327,25.079872407968907,56.08029957123981,40.049968789001575,37.5,39.0,33.0,11.0,20.0,5.0,4.0,10.0,10.04987562112089,9.5,34.0,35.0,35.014282800023196
64,60,69,2.3022999999999945,8.06225774829855,85.28774824088158,9.0,15.0,22.20360331117452,23.08679276123039,26.076809620810597,58.008620049092706,43.01162633521314,39.0,40.0,33.0,10.5,21.5,6.5,3.5,9.0,10.04987562112089,9.5,31.0,34.0,34.0147027033899
65,60,70,2.335666666666661,7.0710678118654755,86.28441342444185,9.0,15.033296378372908,24.186773244895647,26.1725046566048,25.019992006393608,56.00892785976178,41.0,37.5,41.0,34.0,12.5,18.5,4.5,6.5,9.055385138137417,9.0,9.0,32.0,34.0,32.0
66,60,71,2.369033333333328,4.0,79.40403012442127,9.0,15.0,24.186773244895647,24.331050121192877,26.0,54.0,39.0,37.0,41.0,33.0,11.0,17.0,3.0,4.0,7.0,8.06225774829855,8.0,31.0,35.0,39.05124837953327
67,60,72,2.4023999999999948,3.1622776601683795,80.50465825031493,10.0,16.0,23.194827009486403,24.331050121192877,26.0,55.00909015790027,39.01281840626232,37.5,43.0,34.0,12.5,16.5,2.5,5.5,8.06225774829855,9.055385138137417,9.0,32.0,35.0,36.0
68,60,73,2.435766666666661,3.1622776601683795,82.49242389456137,9.055385138137417,15.0,21.213203435596427,22.360679774997898,27.16615541441225,54.00925846556311,39.01281840626232,37.5,43.0,34.0,11.5,15.5,1.5,4.5,8.0,9.055385138137417,9.5,31.0,35.0,38.01315561749642
69,60,74,2.4691333333333283,3.0,76.23647421018367,9.0,14.035668847618199,22.20360331117452,23.345235059857504,28.0178514522438,54.0,40.01249804748511,38.5,41.0,35.0,10.0,16.0,3.0,4.0,8.06225774829855,9.055385138137417,9.0,31.0,36.0,38.01315561749642
70,60,75,2.502499999999995,4.123105625617661,77.92945527847606,10.04987562112089,16.0,22.360679774997898,23.53720459187964,25.019992006393608,55.00909015790027,39.01281840626232,37.0,46.0,34.0,15.0,15.0,1.0,8.0,8.0,9.055385138137417,8.5,32.0,34.0,39.05124837953327
71,60,76,2.535866666666662,4.0,83.38465086573187,9.0,15.033296378372908,21.213203435596427,23.194827009486403,28.0178514522438,56.0,41.012193308819754,39.0,43.0,35.0,11.0,17.0,3.0,5.0,8.0,9.0,9.0,31.0,34.0,39.01281840626232
72,60,77,2.5692333333333286,1.4142135623730951,75.66372975210778,10.0,14.0,21.213203435596427,22.20360331117452,26.019223662515376,51.03920062069938,37.05401462729781,36.5,46.0,36.0,15.0,10.0,3.0,8.0,8.0,9.055385138137417,9.0,31.0,33.0,38.01315561749642
73,60,78,2.602599999999996,4.0,76.6550715869472,10.0,15.0,22.360679774997898,23.194827009486403,25.0,54.0,39.0,37.0,47.0,37.0,17.0,12.0,1.0,10.0,7.0710678118654755,8.0,8.0,31.0,32.0,37.05401462729781
74,60,79,2.635966666666662,1.4142135623730951,78.16009211867653,9.0,13.038404810405298,21.213203435596427,21.213203435596427,28.0178514522438,51.0098029794274,38.0,37.5,40.0,35.0,9.5,13.5,0.5,3.5,7.0,9.055385138137417,9.0,31.0,32.0,37.013511046643494
75,60,80,2.669333333333329,3.0,76.94153624668537,10.04987562112089,15.0,21.37755832643195,22.360679774997898,26.019223662515376,54.037024344425184,39.05124837953327,37.5,46.0,34.0,14.0,14.0,0.0,7.0,9.0,10.0,9.5,32.0,34.0,35.0
76,60,81,2.702699999999996,5.0,80.89499366462674,9.055385138137417,14.0,22.360679774997898,23.345235059857504,27.073972741361768,55.00909015790027,41.012193308819754,38.5,46.0,34.0,13.0,15.0,3.0,7.0,10.0,9.0,9.5,31.0,34.0,39.0
77,60,82,2.7360666666666624,5.0,78.77182237323191,10.04987562112089,16.0,22.360679774997898,23.345235059857504,25.0,56.00892785976178,40.01249804748511,37.5,45.0,34.0,14.5,16.5,1.5,7.5,8.0,8.0,8.0,32.0,34.0,40.01249804748511
78,60,83,2.769433333333329,1.0,78.63841300535,10.0,15.0,22.20360331117452,23.345235059857504,26.0,52.0,37.0,36.5,45.0,35.0,14.0,12.0,2.0,7.0,9.055385138137417,10.0,9.5,31.0,34.0,40.0
79,60,84,2.802799999999996,1.0,73.68174807915459,10.0,14.0,21.095023109728988,21.213203435596427,25.019992006393608,49.040799340956916,35.05709628591621,35.0,44.0,34.0,14.0,10.0,3.0,6.0,8.0,9.055385138137417,8.5,33.0,36.0,39.05124837953327
80,60,85,2.8361666666666627,6.082762530298219,78.40918313565064,10.0,14.0,20.09975124224178,21.37755832643195,24.08318915758459,54.00925846556311,40.01249804748511,37.0,43.0,35.0,15.0,15.0,2.0,7.0,8.06225774829855,10.04987562112089,10.0,33.0,36.0,35.05709628591621
81,60,86,2.869533333333329,3.0,83.15046602394962,10.04987562112089,15.0,24.186773244895647,24.186773244895647,25.0,53.009433122794285,38.01315561749642,36.5,38.0,33.0,10.5,17.5,2.5,3.5,9.0,9.055385138137417,8.0,32.0,33.0,36.013886210738214
82,60,87,2.9028999999999963,4.0,88.36288813749809,9.0,16.0312195418814,23.194827009486403,25.495097567963924,26.019223662515376,55.0,39.01281840626232,37.0,40.0,32.0,10.0,19.0,4.0,4.0,8.0,7.0,7.0,34.0,31.0,39.0
83,60,88,2.936266666666663,9.055385138137417,89.08984229416954,9.0,14.0,23.08679276123039,24.08318915758459,24.0,56.00892785976178,42.01190307520001,37.5,35.0,31.0,9.0,23.0,9.0,2.0,9.0,9.055385138137417,9.0,36.0,33.0,35.014282800023196
84,60,89,2.96963333333333,11.045361017187261,91.26883367283708,9.0,14.0,25.179356624028344,26.1725046566048,24.0,58.008620049092706,44.01136216933077,38.5,39.0,32.0,11.5,22.5,8.5,5.5,10.0,10.04987562112089,9.5,36.0,33.0,38.0
85,60,90,3.002999999999997,6.324555320336759,89.35882720806042,10.0,13.0,21.37755832643195,23.345235059857504,24.0,53.03772242470448,40.049968789001575,37.0,39.0,31.0,11.0,18.0,5.0,4.0,8.06225774829855,7.0710678118654755,6.5,33.0,32.0,38.0
86,60,91,3.0363666666666638,9.0,91.13725912051558,9.0,14.035668847618199,24.186773244895647,25.079872407968907,24.0,56.00892785976178,42.0,37.5,35.0,30.0,8.5,23.5,9.5,2.5,9.055385138137417,7.0710678118654755,7.0,37.0,33.0,34.0147027033899
87,60,92,3.06973333333333,4.123105625617661,87.14355971613737,10.0,14.0,22.20360331117452,24.08318915758459,25.019992006393608,53.0,39.0,37.0,38.0,33.0,10.5,17.5,4.5,3.5,8.0,8.0,7.5,33.0,33.0,37.013511046643494
88,60,93,3.103099999999997,8.06225774829855,89.27485648266257,9.0,15.0,24.186773244895647,26.1725046566048,25.0,57.0087712549569,42.01190307520001,38.0,39.0,32.0,10.5,21.5,6.5,4.5,11.0,10.0,9.5,34.0,31.0,33.015148038438355
89,60,94,3.136466666666664,12.041594578792296,89.20201791439474,8.0,12.041594578792296,25.179356624028344,26.1725046566048,27.0,59.033888572581766,47.01063709417264,41.0,42.0,36.0,12.0,20.0,8.0,7.0,9.0,8.0,8.0,30.0,29.0,33.015148038438355
90,60,95,3.1698333333333304,10.0,95.04735661763561,8.0,14.0,27.073972741361768,29.068883707497267,26.019223662515376,58.008620049092706,44.01136216933077,39.0,35.0,32.0,7.5,24.5,10.5,2.5,7.0,5.0990195135927845,5.0,33.0,32.0,39.01281840626232
91,60,96,3.203199999999997,4.123105625617661,86.37129152675674,11.0,16.0312195418814,21.37755832643195,23.194827009486403,24.186773244895647,55.00909015790027,39.05124837953327,37.0,40.0,32.0,12.0,19.0,3.0,5.0,12.041594578792296,12.041594578792296,12.0,37.0,41.0,45.044422518220834
92,60,97,3.236566666666664,14.035668847618199,79.42921376924235,10.04987562112089,15.033296378372908,22.360679774997898,23.769728648009426,23.021728866442675,62.03224967708329,47.01063709417264,40.0,48.0,33.0,17.5,21.5,8.5,10.5,13.038404810405298,14.035668847618199,14.0,35.0,44.0,45.09988913511872
93,60,98,3.2699333333333307,17.0,85.58621384311844,9.055385138137417,14.142135623730951,22.360679774997898,23.194827009486403,23.0,63.071388124885914,49.01020301937138,40.5,42.0,32.0,14.0,26.0,12.0,8.0,14.035668847618199,15.033296378372908,14.5,35.0,43.0,42.1070065428546
94,60,99,3.303299999999997,6.082762530298219,83.02409288875127,12.041594578792296,15.132745950421556,20.396078054371138,21.37755832643195,23.0,56.142675390472796,41.048751503547585,38.0,46.0,33.0,16.5,16.5,2.5,7.5,15.033296378372908,15.132745950421556,15.0,35.0,47.0,45.27692569068709
95,60,100,3.336666666666664,5.0990195135927845,83.02409288875127,11.045361017187261,14.317821063276353,20.396078054371138,20.615528128088304,25.0,55.226805085936306,41.048751503547585,38.5,47.0,34.0,15.5,14.5,2.5,7.5,15.033296378372908,15.132745950421556,15.5,36.0,46.0,44.181444068749045
96,60,101,3.370033333333331,12.041594578792296,83.54639429682169,10.04987562112089,14.142135623730951,21.587033144922902,22.80350850198276,26.0,62.12889826803627,48.041648597857254,42.0,47.0,31.0,13.0,23.0,10.0,7.0,15.033296378372908,15.132745950421556,15.0,37.0,48.0,45.39823785126467
97,60,106,3.536866666666665,18.027756377319946,84.17244204607586,10.198039027185569,14.035668847618199,21.587033144922902,23.53720459187964,27.16615541441225,69.00724599634447,55.0,46.0,52.0,38.0,18.0,24.0,12.0,12.0,12.165525060596439,13.152946437965905,13.0,31.0,45.0,44.721359549995796
98,60,107,3.570233333333332,23.021728866442675,88.11923740024082,8.06225774829855,12.165525060596439,24.515301344262525,26.476404589747453,25.0,68.11754546370561,56.0357029044876,44.5,47.0,33.0,15.0,28.0,17.0,11.0,11.180339887498949,12.165525060596439,12.0,32.0,46.0,43.41658669218482
99,60,108,3.6035999999999984,19.1049731745428,84.72307831990054,9.219544457292887,12.165525060596439,23.53720459187964,24.515301344262525,26.076809620810597,66.48308055437865,54.3323108288245,44.5,52.0,35.0,17.5,22.5,11.5,11.5,11.180339887498949,12.165525060596439,12.0,33.0,46.0,44.721359549995796
100,60,109,3.636966666666665,10.198039027185569,78.85429601486528,9.055385138137417,13.038404810405298,19.6468827043885,20.615528128088304,31.016124838541646,63.071388124885914,50.039984012787215,45.0,57.0,40.0,17.5,14.5,3.5,11.5,12.041594578792296,11.045361017187261,11.5,32.0,44.0,43.56604182158393
101,60,110,3.670333333333332,18.0,76.11832893594026,10.04987562112089,15.033296378372908,19.6468827043885,21.587033144922902,29.154759474226502,72.00694410957877,57.0350769263968,48.0,62.0,49.0,26.5,16.5,3.5,18.5,13.038404810405298,14.142135623730951,13.5,30.0,41.0,39.45883931389772
102,60,111,3.703699999999999,19.026297590440446,94.54099639838793,11.180339887498949,15.132745950421556,25.495097567963924,26.476404589747453,25.019992006393608,70.25667228100119,55.14526271584895,45.5,54.0,37.0,20.5,24.5,11.5,13.5,13.152946437965905,13.152946437965905,13.0,29.0,45.0,43.73785545725808
103,60,112,3.7370666666666654,21.095023109728988,93.74433316206373,11.180339887498949,15.132745950421556,26.30589287593181,28.442925306655784,26.019223662515376,73.17103251970687,58.077534382926416,47.5,56.0,38.0,21.0,26.0,12.0,13.0,12.165525060596439,14.142135623730951,14.0,27.0,43.0,46.389654018972806
104,60,113,3.770433333333332,15.132745950421556,93.17188417113823,11.045361017187261,14.142135623730951,23.53720459187964,25.709920264364882,27.018512172212592,67.26812023536856,53.150729063673246,45.5,54.0,34.0,17.0,23.0,11.0,10.0,13.152946437965905,14.142135623730951,14.5,29.0,48.0,47.265209192385896
105,60,114,3.803799999999999,10.198039027185569,82.71033792700887,11.180339887498949,15.132745950421556,21.587033144922902,22.80350850198276,24.020824298928627,60.40695324215582,45.27692569068709,40.0,57.0,36.0,22.5,13.5,1.5,14.5,14.142135623730951,14.142135623730951,14.0,29.0,45.0,43.41658669218482
106,60,115,3.8371666666666657,10.198039027185569,91.2414379544733,10.04987562112089,13.038404810405298,24.515301344262525,26.476404589747453,28.0178514522438,61.204574992397426,48.16637831516918,43.0,48.0,33.0,12.5,20.5,8.5,6.5,14.035668847618199,14.035668847618199,14.0,29.0,43.0,42.42640687119285
107,60,116,3.870533333333333,9.219544457292887,87.86353054595519,11.045361017187261,15.132745950421556,22.561028345356956,24.041630560342615,27.018512172212592,62.12889826803627,47.042533945356304,42.5,55.0,37.0,19.0,16.0,4.0,12.0,13.152946437965905,14.142135623730951,14.0,30.0,43.0,41.43669871020132
108,60,117,3.9038999999999993,9.055385138137417,90.93404203047393,10.04987562112089,16.0312195418814,23.345235059857504,25.495097567963924,27.0,62.07253821135398,46.04345773288535,41.5,47.0,34.0,13.5,21.5,6.5,6.5,12.041594578792296,13.152946437965905,13.0,30.0,43.0,41.30375285612676
109,60,118,3.937266666666666,11.0,84.72307831990054,10.04987562112089,13.038404810405298,22.360679774997898,23.53720459187964,26.076809620810597,60.13318551349163,47.095647357266465,41.5,52.0,35.0,17.5,16.5,5.5,10.5,13.038404810405298,15.132745950421556,14.5,28.0,40.0,39.319206502675
110,60,119,3.970633333333333,6.324555320336759,85.15867542417507,10.04987562112089,14.035668847618199,20.615528128088304,21.587033144922902,27.018512172212592,57.07889277132134,43.04648650006177,40.0,47.0,33.0,13.0,17.0,5.0,7.0,14.0,14.035668847618199,14.0,30.0,42.0,37.21558813185679
111,60,120,4.004,3.1622776601683795,78.64477096412705,8.0,13.152946437965905,20.615528128088304,20.615528128088304,27.073972741361768,51.24451190127583,38.118237105091836,36.5,51.0,35.0,16.0,8.0,2.0,11.0,13.038404810405298,14.035668847618199,14.5,29.0,40.0,39.20459156782532
112,60,121,4.037366666666666,1.0,79.62411694957753,8.06225774829855,11.180339887498949,19.4164878389476,19.6468827043885,28.071337695236398,46.2709412050371,35.12833614050059,35.5,50.0,34.0,14.0,4.0,5.0,8.0,12.041594578792296,13.038404810405298,13.0,29.0,39.0,38.2099463490856
113,60,122,4.070733333333333,2.23606797749979,78.44743462982075,8.0,11.045361017187261,18.681541692269406,19.6468827043885,28.0178514522438,45.09988913511872,34.058772731852805,35.0,50.0,35.0,14.5,2.5,5.5,9.5,13.038404810405298,13.038404810405298,13.0,29.0,38.0,38.118237105091836
114,60,123,4.1041,1.0,75.95393340703298,8.06225774829855,11.045361017187261,17.46424919657298,18.439088914585774,27.018512172212592,47.095647357266465,36.05551275463989,35.5,46.0,34.0,13.0,7.0,2.0,8.0,13.038404810405298,14.142135623730951,14.0,27.0,38.0,38.2099463490856
115,60,124,4.137466666666667,1.4142135623730951,84.34453153583817,10.04987562112089,15.132745950421556,21.587033144922902,22.80350850198276,28.0,54.147945482723536,39.05124837953327,38.5,49.0,34.0,13.5,12.5,0.5,7.5,14.035668847618199,14.142135623730951,14.0,30.0,40.0,40.049968789001575
116,60,125,4.170833333333333,3.1622776601683795,83.3606621854697,9.055385138137417,14.035668847618199,23.345235059857504,23.53720459187964,27.018512172212592,53.03772242470448,39.01281840626232,37.5,49.0,34.0,14.5,11.5,0.5,8.5,14.035668847618199,14.035668847618199,14.0,28.0,38.0,40.11234224026316
117,60,126,4.2042,1.0,77.10382610480494,10.0,13.038404810405298,18.24828759089466,19.6468827043885,25.019992006393608,48.093658625644196,35.05709628591621,35.0,48.0,35.0,16.5,6.5,4.5,8.5,12.041594578792296,13.038404810405298,12.5,27.0,36.0,43.18564576337837
118,60,127,4.237566666666667,1.4142135623730951,74.52516353554684,9.0,12.041594578792296,19.4164878389476,19.4164878389476,26.019223662515376,48.093658625644196,36.05551275463989,35.5,50.0,35.0,16.5,5.5,5.5,9.5,13.038404810405298,14.142135623730951,13.5,28.0,37.0,39.05124837953327
119,60,128,4.270933333333334,1.4142135623730951,81.04936767180853,9.0,13.152946437965905,20.396078054371138,21.840329667841555,26.0,49.09175083453431,36.013886210738214,35.5,48.0,35.0,15.5,7.5,3.5,8.5,13.038404810405298,14.142135623730951,14.0,28.0,37.0,38.118237105091836
120,60,129,4.3043000000000005,0.0,73.7563556583431,10.0,13.038404810405298,18.681541692269406,18.681541692269406,27.073972741361768,50.08991914547278,37.05401462729781,37.0,52.0,36.0,17.0,6.0,5.0,10.0,12.041594578792296,13.038404810405298,13.0,28.0,38.0,36.22154055254967
121,60,130,4.337666666666667,1.4142135623730951,75.50496672405067,10.0,13.038404810405298,18.439088914585774,19.6468827043885,25.079872407968907,49.16299421312742,36.124783736376884,35.5,50.0,35.0,17.5,6.5,3.5,9.5,12.041594578792296,13.038404810405298,13.0,25.0,36.0,32.2490309931942
122,60,131,4.371033333333334,2.23606797749979,74.96665925596525,10.0,13.038404810405298,19.4164878389476,19.4164878389476,27.16615541441225,52.23983154643591,39.20459156782532,38.0,48.0,36.0,15.0,10.0,1.0,8.0,9.219544457292887,10.04987562112089,10.5,25.0,37.0,35.22782990761707
123,60,132,4.404400000000001,11.0,92.26592003551474,11.0,15.033296378372908,26.1725046566048,27.16615541441225,26.0,63.00793600809346,48.0,42.5,41.0,34.0,11.5,25.5,10.5,4.5,10.04987562112089,11.045361017187261,10.5,28.0,37.0,32.2490309931942
124,60,133,4.437766666666668,8.0,84.71717653463199,10.04987562112089,14.035668847618199,23.345235059857504,24.515301344262525,26.019223662515376,58.008620049092706,44.0,40.0,47.0,36.0,15.5,16.5,3.5,8.5,9.219544457292887,9.055385138137417,9.0,24.0,35.0,33.13608305156178
125,60,134,4.471133333333334,6.0,76.11832893594026,10.0,13.038404810405298,21.37755832643195,22.561028345356956,26.076809620810597,55.08175741568164,42.04759208325728,39.0,51.0,38.0,18.5,10.5,0.5,11.5,7.615773105863909,7.0710678118654755,7.0,21.0,33.0,29.274562336608895
126,60,135,4.504500000000001,5.385164807134504,77.78174593052023,9.0,15.033296378372908,21.213203435596427,22.20360331117452,25.079872407968907,54.230987451824994,39.20459156782532,36.5,48.0,37.0,17.5,11.5,2.5,10.5,9.219544457292887,10.0,10.0,20.0,30.0,29.068883707497267
127,60,136,4.537866666666668,7.0,81.61494961096282,11.0,15.132745950421556,23.194827009486403,25.179356624028344,23.08679276123039,56.142675390472796,41.048751503547585,37.5,46.0,36.0,18.0,15.0,0.0,10.0,9.055385138137417,9.0,9.0,21.0,29.0,31.016124838541646
128,60,137,4.571233333333335,7.0710678118654755,77.05841939723393,10.0,15.0,22.02271554554524,23.021728866442675,24.08318915758459,56.08029957123981,41.10960958218893,37.5,44.0,41.0,18.5,13.5,2.5,9.5,12.041594578792296,12.041594578792296,11.5,24.0,28.0,25.0
129,60,138,4.604600000000001,11.0,77.0,10.0,15.0,22.02271554554524,23.0,24.020824298928627,60.00833275470999,45.0111097397076,39.5,43.0,43.0,19.0,17.0,1.0,11.0,6.082762530298219,7.0710678118654755,7.0,22.0,24.0,24.020824298928627
130,60,139,4.637966666666668,8.0,74.00675644831355,8.0,15.0,20.0,21.02379604162864,25.019992006393608,56.00892785976178,41.012193308819754,37.0,42.0,43.0,17.5,13.5,2.5,10.5,5.0990195135927845,6.082762530298219,6.0,23.0,22.0,22.0
131,60,140,4.671333333333335,3.0,74.10802925459562,9.0,11.180339887498949,21.02379604162864,22.02271554554524,27.018512172212592,50.00999900019995,39.01281840626232,37.5,39.0,43.0,14.0,9.0,3.0,6.0,6.082762530298219,7.0710678118654755,6.5,26.0,23.0,21.02379604162864
132,60,141,4.704700000000002,4.0,73.00684899377592,9.055385138137417,12.041594578792296,20.0,22.0,27.0,52.03844732503075,40.01249804748511,38.0,43.0,42.0,15.5,9.5,2.5,7.5,9.0,10.04987562112089,10.0,27.0,23.0,20.0
133,60,142,4.738066666666668,5.0990195135927845,72.00694410957877,10.04987562112089,14.035668847618199,21.02379604162864,21.02379604162864,26.019223662515376,55.14526271584895,41.10960958218893,38.5,44.0,43.0,17.5,11.5,2.5,9.5,7.0710678118654755,8.06225774829855,7.5,28.0,24.0,25.0
134,60,143,4.771433333333335,5.0,70.00714249274856,10.04987562112089,14.035668847618199,18.0,18.027756377319946,25.019992006393608,54.08326913195984,40.049968789001575,37.5,42.0,41.0,16.5,12.5,1.5,7.5,10.0,11.0,10.5,29.0,26.0,25.019992006393608
135,60,144,4.804800000000002,4.0,77.00649323271382,10.04987562112089,13.152946437965905,21.0,22.0,24.020824298928627,51.03920062069938,38.0,36.0,41.0,40.0,16.5,10.5,2.5,7.5,7.0,7.0710678118654755,7.0,28.0,23.0,22.02271554554524
136,60,145,4.838166666666669,5.0990195135927845,73.02739212103907,9.055385138137417,15.0,20.024984394500787,21.0,24.020824298928627,53.009433122794285,38.01315561749642,35.5,42.0,40.0,17.0,12.0,2.0,8.0,9.055385138137417,10.0,10.0,30.0,25.0,33.015148038438355
137,60,146,4.871533333333336,6.0,76.0,11.045361017187261,16.0312195418814,20.024984394500787,21.0,23.0,56.0357029044876,40.01249804748511,37.0,42.0,42.0,19.0,14.0,2.0,9.0,9.0,11.0,11.0,29.0,26.0,35.014282800023196
138,60,147,4.904900000000002,5.0,73.02739212103907,10.0,15.033296378372908,18.027756377319946,19.026297590440446,23.021728866442675,53.03772242470448,38.01315561749642,35.5,43.0,41.0,19.0,11.0,4.0,9.0,9.0,11.0,11.0,27.0,25.0,34.0147027033899
139,60,148,4.938266666666669,2.23606797749979,77.23341245859851,11.0,16.0312195418814,22.090722034374522,23.08679276123039,24.020824298928627,53.009433122794285,37.0,36.0,47.0,41.0,20.0,9.0,5.0,10.0,11.045361017187261,12.041594578792296,12.0,28.0,27.0,38.01315561749642
140,60,149,4.971633333333336,2.23606797749979,72.11102550927978,11.0,15.0,19.026297590440446,20.024984394500787,24.020824298928627,52.0,37.0,36.0,43.0,39.0,17.0,11.0,4.0,7.0,11.045361017187261,11.0,11.5,27.0,30.0,30.14962686336267
141,60,150,5.005000000000003,3.1622776601683795,72.24956747275377,10.04987562112089,15.0,20.024984394500787,21.02379604162864,24.0,52.03844732503075,37.05401462729781,35.5,44.0,38.0,17.0,11.0,3.0,8.0,13.038404810405298,13.0,13.0,29.0,32.0,31.064449134018133
142,60,151,5.038366666666669,7.0,67.7421582177598,10.0,14.0,19.235384061671343,20.396078054371138,26.019223662515376,57.0087712549569,43.01162633521314,39.5,52.0,42.0,21.0,10.0,3.0,13.0,11.045361017187261,12.0,11.5,25.0,31.0,28.284271247461902
143,60,152,5.071733333333336,8.06225774829855,70.71067811865476,11.0,14.0,18.24828759089466,19.235384061671343,24.0,57.0087712549569,43.01162633521314,39.0,53.0,43.0,24.0,9.0,3.0,15.0,11.180339887498949,13.038404810405298,12.5,23.0,31.0,30.59411708155671
144,60,153,5.105100000000003,6.082762530298219,75.8023746329889,11.0,13.038404810405298,18.24828759089466,19.235384061671343,26.019223662515376,56.08029957123981,43.04648650006177,40.0,52.0,41.0,20.5,9.5,1.5,11.5,13.152946437965905,14.035668847618199,13.5,21.0,31.0,31.400636936215164
145,60,154,5.13846666666667,5.0990195135927845,75.31268153505093,10.04987562112089,14.142135623730951,20.396078054371138,21.587033144922902,24.08318915758459,53.33854141237835,39.20459156782532,36.5,51.0,37.0,20.0,9.0,3.0,12.0,12.165525060596439,13.152946437965905,12.5,21.0,33.0,28.442925306655784
146,60,155,5.171833333333336,6.082762530298219,66.49060083951716,10.0,14.142135623730951,16.278820596099706,17.46424919657298,25.019992006393608,55.14526271584895,41.048751503547585,38.0,52.0,38.0,20.0,10.0,2.0,12.0,12.165525060596439,13.152946437965905,12.5,21.0,34.0,27.51363298439521
147,60,156,5.205200000000003,6.082762530298219,72.56721022610694,10.04987562112089,15.132745950421556,16.492422502470642,18.681541692269406,24.0,55.14526271584895,40.049968789001575,37.0,51.0,36.0,19.5,11.5,1.5,11.5,12.165525060596439,13.038404810405298,12.5,19.0,33.0,24.351591323771842
148,60,157,5.23856666666667,5.385164807134504,73.7563556583431,11.0,15.033296378372908,17.72004514666935,18.973665961010276,23.08679276123039,54.230987451824994,39.20459156782532,36.5,51.0,35.0,20.0,11.0,2.0,12.0,12.165525060596439,13.038404810405298,12.5,18.0,34.0,28.460498941515414
149,60,158,5.271933333333337,7.0710678118654755,73.00684899377592,9.055385138137417,12.165525060596439,18.681541692269406,19.6468827043885,25.079872407968907,53.33854141237835,41.19465984809196,37.5,52.0,35.0,18.5,9.5,0.5,12.5,12.36931687685298,13.152946437965905,12.5,18.0,34.0,26.0
150,60,159,5.305300000000004,6.324555320336759,70.83078426785913,10.04987562112089,13.038404810405298,15.524174696260024,17.72004514666935,24.08318915758459,53.33854141237835,40.311288741492746,37.0,51.0,35.0,19.0,10.0,1.0,11.0,13.152946437965905,13.038404810405298,12.5,19.0,33.0,26.570660511172846
151,60,160,5.33866666666667,4.123105625617661,74.95331880577403,9.055385138137417,13.152946437965905,21.587033144922902,22.561028345356956,24.08318915758459,50.35871324805669,37.21558813185679,35.0,51.0,34.0,18.5,7.5,3.5,12.5,11.40175425099138,11.180339887498949,10.5,18.0,34.0,27.892651361962706
152,60,161,5.372033333333337,6.082762530298219,76.11832893594026,9.0,13.038404810405298,20.396078054371138,21.587033144922902,23.08679276123039,51.15662224971465,38.118237105091836,35.0,48.0,35.0,18.5,9.5,1.5,11.5,12.36931687685298,13.038404810405298,12.5,18.0,30.0,26.476404589747453
153,60,162,5.405400000000004,4.47213595499958,84.5931439302264,10.04987562112089,15.132745950421556,20.396078054371138,20.396078054371138,28.0178514522438,57.3149195236284,42.190046219457976,40.0,46.0,36.0,13.0,16.0,2.0,6.0,12.041594578792296,13.152946437965905,12.5,22.0,33.0,32.7566787083184
154,60,163,5.438766666666671,2.23606797749979,71.19691004531025,11.0,13.038404810405298,15.524174696260024,17.46424919657298,26.1725046566048,49.36598018878993,36.345563690772494,36.5,50.0,37.0,17.5,5.5,5.5,9.5,12.165525060596439,13.038404810405298,13.0,22.0,32.0,28.635642126552707
155,60,164,5.472133333333337,1.0,76.53103945458993,11.0,13.038404810405298,19.235384061671343,19.235384061671343,24.08318915758459,49.09175083453431,36.05551275463989,35.5,47.0,38.0,18.5,6.5,5.5,9.5,13.152946437965905,14.035668847618199,13.5,23.0,30.0,27.294688127912362
156,60,165,5.505500000000004,1.4142135623730951,72.3394774656273,10.0,12.0,18.24828759089466,19.235384061671343,26.019223662515376,49.040799340956916,37.05401462729781,36.5,47.0,40.0,17.5,5.5,5.5,9.5,13.0,14.035668847618199,13.5,25.0,29.0,30.4138126514911
157,60,166,5.538866666666671,3.1622776601683795,74.06078584514209,9.055385138137417,13.0,20.024984394500787,20.024984394500787,24.08318915758459,49.040799340956916,36.05551275463989,34.5,42.0,39.0,16.5,8.5,4.5,8.5,13.0,12.0,12.5,27.0,27.0,26.019223662515376
158,60,167,5.572233333333338,2.0,77.02596964660685,12.0,16.0312195418814,20.0,21.0,24.020824298928627,54.0,38.01315561749642,37.0,42.0,44.0,19.0,11.0,5.0,8.0,8.0,8.06225774829855,8.5,29.0,26.0,24.020824298928627
159,60,168,5.605600000000004,7.0,77.41446893184762,10.04987562112089,14.035668847618199,22.02271554554524,24.08318915758459,24.020824298928627,55.00909015790027,41.0,37.5,40.0,48.0,20.0,11.0,5.0,10.0,9.055385138137417,9.055385138137417,9.0,33.0,24.0,22.090722034374522
160,60,169,5.638966666666671,7.0710678118654755,72.24956747275377,9.055385138137417,14.035668847618199,20.09975124224178,21.095023109728988,25.019992006393608,55.036351623268054,41.012193308819754,37.5,40.0,46.0,18.0,12.0,3.0,8.0,8.0,7.0710678118654755,7.5,33.0,22.0,23.194827009486403
161,60,170,5.672333333333338,3.1622776601683795,72.24956747275377,11.0,15.132745950421556,19.026297590440446,20.024984394500787,24.186773244895647,53.33854141237835,38.2099463490856,36.5,40.0,46.0,19.0,10.0,5.0,8.0,10.04987562112089,11.180339887498949,10.5,32.0,22.0,23.194827009486403
162,60,171,5.705700000000005,6.082762530298219,76.94153624668537,12.041594578792296,15.132745950421556,19.235384061671343,21.213203435596427,24.0,57.14017850864661,42.04759208325728,39.0,40.0,52.0,22.0,11.0,7.0,9.0,13.038404810405298,12.041594578792296,12.0,35.0,21.0,22.360679774997898
163,60,172,5.739066666666671,7.280109889280518,76.94153624668537,12.041594578792296,15.132745950421556,20.09975124224178,23.194827009486403,23.021728866442675,57.14017850864661,42.04759208325728,38.5,39.0,51.0,22.0,12.0,6.0,10.0,12.041594578792296,12.165525060596439,12.0,34.0,19.0,25.495097567963924
164,60,173,5.772433333333338,3.1622776601683795,72.00694410957877,11.045361017187261,14.142135623730951,19.1049731745428,20.223748416156685,27.073972741361768,55.326304774492215,41.19465984809196,39.5,41.0,53.0,20.0,8.0,8.0,9.0,13.038404810405298,13.152946437965905,12.5,34.0,19.0,23.345235059857504
165,60,174,5.805800000000005,3.0,73.16419889536138,12.041594578792296,14.317821063276353,19.235384061671343,20.223748416156685,25.079872407968907,54.3323108288245,40.11234224026316,38.5,41.0,54.0,22.5,6.5,9.5,9.5,13.152946437965905,13.152946437965905,12.5,34.0,18.0,30.4138126514911
166,60,175,5.839166666666672,1.0,71.19691004531025,12.165525060596439,15.297058540778355,17.26267650163207,18.439088914585774,26.019223662515376,54.3323108288245,39.11521443121589,38.5,41.0,54.0,21.5,6.5,9.5,8.5,12.165525060596439,13.152946437965905,13.0,36.0,19.0,28.442925306655784
167,60,176,5.8725333333333385,1.0,74.52516353554684,13.038404810405298,16.278820596099706,18.24828759089466,19.235384061671343,26.1725046566048,56.43580423808985,40.19950248448356,39.5,40.0,55.0,21.5,8.5,8.5,7.5,14.035668847618199,14.142135623730951,13.5,35.0,20.0,24.331050121192877
168,60,177,5.905900000000005,0.0,74.73285756613352,11.180339887498949,15.297058540778355,18.24828759089466,20.396078054371138,28.0178514522438,54.3323108288245,39.11521443121589,39.0,39.0,55.0,19.0,7.0,10.0,7.0,13.038404810405298,14.142135623730951,13.5,36.0,20.0,25.317977802344327
169,60,178,5.939266666666672,1.0,73.16419889536138,11.045361017187261,16.278820596099706,18.439088914585774,20.396078054371138,27.073972741361768,55.326304774492215,39.11521443121589,38.5,39.0,52.0,18.5,9.5,8.5,5.5,14.035668847618199,15.033296378372908,14.5,35.0,19.0,30.59411708155671
170,60,179,5.972633333333339,6.082762530298219,70.21395872616783,8.06225774829855,15.297058540778355,17.46424919657298,19.235384061671343,26.076809620810597,55.44366510251645,40.19950248448356,37.0,39.0,52.0,19.5,9.5,6.5,9.5,12.041594578792296,12.165525060596439,12.0,34.0,19.0,26.68332812825267
171,60,180,6.006000000000006,2.0,74.14849964766651,12.041594578792296,16.278820596099706,19.235384061671343,21.213203435596427,24.08318915758459,54.3323108288245,38.118237105091836,37.0,39.0,52.0,21.5,8.5,8.5,8.5,14.035668847618199,15.132745950421556,14.5,36.0,19.0,24.331050121192877
172,60,181,6.039366666666672,3.0,75.95393340703298,10.04987562112089,14.317821063276353,20.09975124224178,21.095023109728988,26.019223662515376,53.23532661682466,39.05124837953327,37.5,41.0,53.0,21.0,6.0,10.0,10.0,13.152946437965905,14.142135623730951,13.5,37.0,18.0,24.73863375370596
173,60,182,6.072733333333339,1.4142135623730951,75.95393340703298,12.165525060596439,15.132745950421556,20.223748416156685,21.213203435596427,25.0,53.23532661682466,38.118237105091836,37.5,41.0,53.0,22.0,6.0,11.0,9.0,13.152946437965905,14.142135623730951,13.5,35.0,18.0,24.515301344262525
174,60,183,6.106100000000006,2.23606797749979,75.53806987208503,12.041594578792296,14.142135623730951,19.026297590440446,20.09975124224178,24.08318915758459,52.3450093132096,38.2099463490856,37.0,40.0,49.0,20.5,7.5,7.5,8.5,15.132745950421556,15.132745950421556,14.5,34.0,16.0,22.561028345356956
175,60,184,6.139466666666673,3.0,77.92945527847606,13.152946437965905,16.1245154965971,21.095023109728988,22.20360331117452,23.021728866442675,55.226805085936306,39.11521443121589,37.5,40.0,52.0,23.0,9.0,9.0,9.0,14.035668847618199,15.132745950421556,14.5,37.0,20.0,26.30589287593181
176,60,185,6.172833333333339,3.0,76.11832893594026,11.180339887498949,15.297058540778355,18.110770276274835,20.396078054371138,27.073972741361768,56.43580423808985,41.19465984809196,39.5,41.0,54.0,20.5,8.5,8.5,8.5,15.033296378372908,15.132745950421556,15.0,35.0,20.0,30.066592756745816
177,60,186,6.206200000000006,1.4142135623730951,78.77182237323191,13.038404810405298,15.297058540778355,20.024984394500787,21.095023109728988,24.08318915758459,53.46026561849464,38.2099463490856,37.5,41.0,52.0,22.5,6.5,9.5,9.5,14.035668847618199,14.035668847618199,14.0,35.0,19.0,29.154759474226502
178,60,187,6.239566666666673,3.0,73.824115301167,10.04987562112089,13.341664064126334,20.223748416156685,20.223748416156685,26.076809620810597,52.3450093132096,39.11521443121589,37.5,39.0,50.0,18.5,7.5,7.5,7.5,12.041594578792296,13.152946437965905,12.5,36.0,21.0,23.345235059857504
179,60,188,6.27293333333334,3.1622776601683795,75.8023746329889,11.045361017187261,15.132745950421556,18.24828759089466,20.223748416156685,24.020824298928627,53.23532661682466,38.118237105091836,36.5,38.0,49.0,19.5,9.5,7.5,7.5,13.038404810405298,13.038404810405298,13.0,36.0,19.0,24.515301344262525
180,60,189,6.306300000000007,2.23606797749979,77.92945527847606,11.045361017187261,12.36931687685298,21.095023109728988,21.37755832643195,27.0,49.36598018878993,37.12142238654117,37.5,41.0,53.0,20.0,2.0,12.0,9.0,13.038404810405298,14.142135623730951,14.0,36.0,20.0,25.317977802344327
181,60,190,6.339666666666673,2.0,74.54528824815154,10.198039027185569,13.152946437965905,19.235384061671343,21.213203435596427,27.018512172212592,52.23983154643591,39.11521443121589,38.0,39.0,48.0,16.5,8.5,6.5,5.5,12.041594578792296,14.142135623730951,13.5,36.0,21.0,23.345235059857504
182,60,191,6.37303333333334,2.23606797749979,72.83543093852057,9.055385138137417,13.341664064126334,19.235384061671343,20.396078054371138,28.0178514522438,52.3450093132096,39.11521443121589,38.0,40.0,51.0,17.5,6.5,8.5,7.5,13.038404810405298,14.142135623730951,13.5,37.0,21.0,23.53720459187964
183,60,192,6.406400000000007,1.0,74.67261881037788,11.045361017187261,13.341664064126334,19.1049731745428,20.09975124224178,26.076809620810597,51.35172830587107,38.118237105091836,37.5,39.0,49.0,18.0,7.0,7.0,7.0,13.152946437965905,14.035668847618199,14.0,35.0,20.0,27.459060435491963
184,60,193,6.4397666666666735,2.0,74.43117626371358,10.04987562112089,12.165525060596439,18.110770276274835,20.024984394500787,27.16615541441225,51.35172830587107,39.20459156782532,38.0,41.0,49.0,18.0,6.0,6.0,7.0,14.142135623730951,15.033296378372908,14.5,35.0,19.0,27.459060435491963
185,60,194,6.47313333333334,1.0,74.43117626371358,11.045361017187261,13.038404810405298,20.024984394500787,20.09975124224178,26.076809620810597,51.15662224971465,38.118237105091836,37.5,40.0,48.0,18.0,7.0,7.0,7.0,14.142135623730951,14.035668847618199,14.0,36.0,22.0,27.16615541441225
186,60,195,6.506500000000007,1.0,75.66372975210778,12.165525060596439,13.341664064126334,19.1049731745428,20.09975124224178,26.076809620810597,50.48762224545735,37.21558813185679,37.5,41.0,51.0,20.0,4.0,10.0,8.0,13.152946437965905,14.035668847618199,14.0,35.0,19.0,32.38826948140329
187,60,196,6.539866666666674,1.4142135623730951,79.51100552753688,13.038404810405298,15.132745950421556,21.02379604162864,22.090722034374522,25.079872407968907,52.3450093132096,37.21558813185679,37.5,42.0,51.0,21.5,5.5,10.5,8.5,12.041594578792296,13.152946437965905,13.0,35.0,20.0,30.59411708155671
188,60,197,6.573233333333341,3.0,74.54528824815154,10.04987562112089,12.165525060596439,20.09975124224178,20.09975124224178,25.079872407968907,50.24937810560445,38.118237105091836,36.5,38.0,47.0,17.5,7.5,5.5,7.5,13.038404810405298,14.035668847618199,13.5,35.0,21.0,24.331050121192877
189,60,198,6.606600000000007,3.0,77.23341245859851,11.180339887498949,14.317821063276353,20.09975124224178,21.095023109728988,25.019992006393608,53.33854141237835,39.11521443121589,37.5,41.0,47.0,19.0,9.0,6.0,8.0,12.041594578792296,12.165525060596439,11.5,36.0,20.0,26.476404589747453
190,60,199,6.639966666666674,1.0,79.40403012442127,13.152946437965905,15.132745950421556,20.024984394500787,21.095023109728988,25.019992006393608,53.33854141237835,38.2099463490856,38.0,42.0,50.0,21.0,7.0,9.0,8.0,14.035668847618199,14.035668847618199,14.0,37.0,21.0,35.22782990761707
191,60,200,6.673333333333341,2.0,78.40918313565064,11.045361017187261,15.132745950421556,20.024984394500787,22.090722034374522,25.079872407968907,53.23532661682466,38.118237105091836,37.0,40.0,48.0,19.0,9.0,8.0,8.0,12.041594578792296,13.038404810405298,13.0,34.0,21.0,32.14031735997639
192,60,201,6.706700000000008,2.23606797749979,75.1065909225016,10.04987562112089,13.152946437965905,19.1049731745428,21.02379604162864,24.020824298928627,49.25444142409901,36.124783736376884,35.0,38.0,42.0,16.0,9.0,5.0,6.0,13.038404810405298,13.038404810405298,13.0,37.0,24.0,29.154759474226502
193,60,202,6.740066666666674,1.0,76.00657866263946,10.04987562112089,11.045361017187261,21.0,21.0,25.079872407968907,46.2709412050371,35.22782990761707,35.0,40.0,41.0,15.5,5.5,6.5,6.5,10.04987562112089,12.041594578792296,11.5,33.0,23.0,29.017236257093817
194,60,203,6.773433333333341,3.0,78.0,10.04987562112089,12.041594578792296,20.0,21.0,22.0,47.042533945356304,35.014282800023196,33.5,38.0,38.0,16.0,9.0,3.0,7.0,12.041594578792296,13.0,12.5,33.0,27.0,33.0
195,60,204,6.806800000000008,4.0,75.0066663703967,10.0,14.035668847618199,18.0,20.0,23.08679276123039,51.088159097779204,37.05401462729781,35.0,41.0,40.0,17.5,10.5,3.5,7.5,12.0,12.041594578792296,12.0,30.0,27.0,30.0
196,60,205,6.840166666666675,3.0,75.05997601918082,12.041594578792296,15.033296378372908,20.09975124224178,22.02271554554524,23.0,53.03772242470448,38.01315561749642,36.5,44.0,41.0,19.5,10.5,4.5,9.5,10.0,12.0,11.0,29.0,25.0,31.016124838541646
197,60,206,6.8735333333333415,3.0,77.0,11.0,14.035668847618199,20.0,22.02271554554524,24.0,52.009614495783374,38.0,36.5,44.0,44.0,20.0,8.0,6.0,10.0,12.0,13.0,12.5,29.0,24.0,28.0178514522438
198,60,207,6.906900000000008,8.0,77.02596964660685,10.04987562112089,15.033296378372908,21.02379604162864,22.02271554554524,24.0,57.0350769263968,42.01190307520001,38.0,45.0,43.0,20.0,13.0,2.0,11.0,10.04987562112089,12.041594578792296,11.5,31.0,27.0,33.015148038438355
199,60,208,6.940266666666675,0.0,72.06247289678588,11.0,14.035668847618199,19.1049731745428,19.026297590440446,26.076809620810597,51.088159097779204,37.05401462729781,37.0,46.0,43.0,18.5,6.5,6.5,9.5,11.0,12.041594578792296,11.5,30.0,26.0,30.0
200,60,209,6.973633333333342,5.0,78.00640999302557,9.0,14.0,21.0,22.0,25.0,53.0,39.0,36.5,44.0,45.0,19.5,8.5,5.5,11.5,11.0,11.045361017187261,10.5,31.0,27.0,26.019223662515376
201,60,210,7.0070000000000086,6.082762530298219,74.06078584514209,9.055385138137417,12.041594578792296,19.026297590440446,21.02379604162864,25.019992006393608,52.0,40.01249804748511,37.0,45.0,42.0,18.5,8.5,3.5,10.5,14.0,15.0,14.5,30.0,27.0,26.019223662515376
202,60,211,7.040366666666675,2.0,77.10382610480494,9.0,13.0,20.024984394500787,21.02379604162864,26.019223662515376,50.00999900019995,37.013511046643494,36.0,45.0,41.0,17.0,7.0,6.0,9.0,11.045361017187261,12.0,11.5,28.0,26.0,33.015148038438355
203,60,212,7.073733333333342,0.0,83.15046602394962,11.0,14.035668847618199,22.20360331117452,22.090722034374522,26.019223662515376,51.03920062069938,37.013511046643494,37.0,48.0,43.0,19.5,5.5,7.5,10.5,13.0,13.0,12.0,30.0,27.0,34.0147027033899
204,60,213,7.107100000000009,1.0,80.22468448052632,11.045361017187261,15.0,20.024984394500787,22.090722034374522,26.0,53.009433122794285,38.01315561749642,37.5,48.0,42.0,19.0,8.0,7.0,9.0,12.041594578792296,13.0,12.5,30.0,27.0,34.0
205,60,214,7.140466666666676,0.0,81.09870529176159,12.0,12.041594578792296,20.09975124224178,22.02271554554524,26.076809620810597,50.00999900019995,38.05259518088089,38.0,47.0,43.0,19.0,5.0,7.0,9.0,12.041594578792296,13.0,12.5,32.0,29.0,34.0
206,60,215,7.173833333333342,1.4142135623730951,80.05623023850174,11.045361017187261,13.0,21.095023109728988,21.02379604162864,26.019223662515376,51.0098029794274,38.01315561749642,37.5,46.0,43.0,18.5,6.5,6.5,9.5,12.041594578792296,13.0,13.0,29.0,26.0,31.0
207,60,216,7.207200000000009,1.0,81.09870529176159,12.0,14.0,20.09975124224178,21.02379604162864,26.019223662515376,51.0098029794274,37.013511046643494,37.5,49.0,45.0,21.0,4.0,9.0,11.0,14.0,14.0,13.5,28.0,25.0,27.0
208,60,217,7.240566666666676,2.0,78.10249675906654,11.0,13.0,21.095023109728988,21.02379604162864,26.0,48.0,35.0,36.0,47.0,43.0,19.0,3.0,10.0,10.0,12.041594578792296,12.041594578792296,12.5,28.0,25.0,34.0147027033899
209,60,218,7.273933333333343,0.0,77.05841939723393,10.0,13.038404810405298,19.026297590440446,21.095023109728988,26.0,49.01020301937138,36.0,36.0,47.0,44.0,19.5,3.5,8.5,10.5,13.0,14.0,13.5,30.0,26.0,32.01562118716424
210,60,219,7.3073000000000095,1.0,78.16009211867653,11.0,13.038404810405298,20.09975124224178,21.02379604162864,26.0,49.01020301937138,36.0,36.5,48.0,43.0,19.5,3.5,8.5,10.5,13.038404810405298,13.0,13.0,28.0,25.0,28.0
211,60,220,7.340666666666676,1.0,76.16429609731846,10.0,12.0,21.095023109728988,21.095023109728988,26.019223662515376,49.01020301937138,37.013511046643494,36.5,49.0,44.0,20.5,2.5,9.5,11.5,12.041594578792296,12.041594578792296,12.0,28.0,25.0,27.0
212,60,221,7.374033333333343,1.4142135623730951,76.05918747922567,11.0,14.035668847618199,20.024984394500787,21.095023109728988,26.0,52.03844732503075,38.01315561749642,37.5,46.0,43.0,18.5,7.5,6.5,8.5,13.0,14.035668847618199,14.0,31.0,26.0,30.01666203960727
213,60,222,7.40740000000001,1.0,76.00657866263946,11.045361017187261,12.0,19.026297590440446,20.024984394500787,26.019223662515376,50.039984012787215,38.05259518088089,37.5,46.0,45.0,19.5,4.5,7.5,9.5,12.0,14.035668847618199,13.5,27.0,24.0,27.018512172212592
214,60,223,7.440766666666676,1.0,77.05841939723393,11.045361017187261,12.041594578792296,21.02379604162864,21.02379604162864,27.0,50.00999900019995,38.0,38.0,47.0,44.0,18.5,4.5,7.5,8.5,12.0,13.038404810405298,12.5,27.0,24.0,26.0
215,60,224,7.474133333333343,1.0,77.00649323271382,11.045361017187261,12.0,21.02379604162864,21.095023109728988,27.018512172212592,49.040799340956916,37.05401462729781,37.5,45.0,44.0,17.5,4.5,8.5,8.5,13.0,14.0,13.5,27.0,24.0,27.018512172212592
216,60,225,7.50750000000001,0.0,77.10382610480494,11.0,13.038404810405298,21.095023109728988,22.090722034374522,26.019223662515376,50.039984012787215,37.013511046643494,37.0,45.0,41.0,17.0,7.0,6.0,8.0,12.041594578792296,14.0,13.5,28.0,25.0,26.019223662515376
217,60,226,7.540866666666677,1.0,74.06078584514209,10.0,13.038404810405298,19.026297590440446,19.1049731745428,25.019992006393608,49.040799340956916,36.013886210738214,35.5,43.0,40.0,16.5,7.5,5.5,7.5,12.041594578792296,13.0,13.0,29.0,27.0,32.14031735997639
218,60,227,7.574233333333344,4.0,80.09993757800315,11.0,14.035668847618199,21.02379604162864,22.20360331117452,24.08318915758459,53.08483775994799,39.05124837953327,37.0,44.0,40.0,18.0,11.0,3.0,8.0,11.045361017187261,13.0,12.5,30.0,26.0,32.01562118716424
219,60,228,7.60760000000001,5.0,79.02531240052139,10.04987562112089,15.033296378372908,20.024984394500787,22.02271554554524,24.020824298928627,54.00925846556311,39.0,36.5,44.0,42.0,19.0,11.0,4.0,10.0,12.041594578792296,14.0,13.5,29.0,27.0,30.066592756745816
220,60,229,7.640966666666677,8.0,77.05841939723393,11.0,14.035668847618199,21.02379604162864,22.02271554554524,23.021728866442675,56.0,42.01190307520001,38.0,46.0,43.0,21.5,11.5,3.5,11.5,13.0,13.0,12.5,28.0,26.0,29.017236257093817
221,60,230,7.674333333333344,5.0,77.10382610480494,10.0,14.0,21.095023109728988,22.090722034374522,26.019223662515376,55.00909015790027,41.012193308819754,38.5,48.0,44.0,20.0,9.0,4.0,11.0,13.0,13.0,13.0,28.0,27.0,26.076809620810597
222,60,231,7.707700000000011,3.0,74.10802925459562,10.0,14.0,19.1049731745428,21.095023109728988,25.019992006393608,52.009614495783374,38.01315561749642,36.5,47.0,43.0,20.0,7.0,7.0,11.0,13.038404810405298,14.0,13.5,27.0,26.0,29.068883707497267
223,60,232,7.741066666666677,10.0,78.05767098754612,9.0,13.038404810405298,20.09975124224178,22.02271554554524,23.0,55.00909015790027,42.0,37.0,46.0,43.0,21.5,10.5,2.5,13.5,12.0,13.0,13.0,28.0,26.0,29.017236257093817
224,60,233,7.774433333333344,3.1622776601683795,72.06247289678588,10.04987562112089,12.0,19.026297590440446,21.02379604162864,25.019992006393608,50.00999900019995,38.01315561749642,36.5,47.0,44.0,20.5,4.5,6.5,11.5,12.041594578792296,14.0,13.5,26.0,25.0,29.154759474226502
225,60,234,7.807800000000011,2.0,79.1012010022604,10.04987562112089,13.038404810405298,22.090722034374522,23.08679276123039,25.0,50.039984012787215,37.013511046643494,36.0,47.0,43.0,20.0,5.0,7.0,12.0,11.045361017187261,13.0,12.5,26.0,24.0,27.0
226,60,235,7.841166666666678,1.0,72.17340230306452,10.04987562112089,13.0,19.1049731745428,20.09975124224178,25.019992006393608,49.040799340956916,36.05551275463989,35.5,49.0,44.0,21.5,2.5,9.5,12.5,12.041594578792296,13.0,12.5,27.0,25.0,25.019992006393608
227,60,236,7.874533333333344,4.123105625617661,71.17583859709698,10.04987562112089,13.0,20.09975124224178,20.09975124224178,24.020824298928627,51.0098029794274,38.01315561749642,36.0,49.0,44.0,22.5,4.5,7.5,13.5,11.045361017187261,13.0,12.5,26.0,24.0,27.0
228,60,237,7.907900000000011,2.0,73.10950690573696,11.0,13.0,20.09975124224178,21.095023109728988,24.020824298928627,50.00999900019995,37.013511046643494,36.0,48.0,44.0,22.0,4.0,8.0,13.0,13.038404810405298,13.0,13.0,27.0,26.0,26.076809620810597
229,60,238,7.941266666666678,10.0,71.06335201775947,9.055385138137417,14.035668847618199,21.02379604162864,21.02379604162864,25.019992006393608,58.077534382926416,44.04543109109048,39.0,50.0,47.0,23.5,9.5,4.5,15.5,12.041594578792296,13.0,12.5,27.0,26.0,33.06055050963308
230,60,239,7.974633333333345,3.1622776601683795,72.24956747275377,9.0,13.0,19.1049731745428,19.1049731745428,25.019992006393608,50.039984012787215,37.05401462729781,35.5,47.0,41.0,19.0,6.0,6.0,11.0,12.041594578792296,13.0,13.0,27.0,27.0,34.0147027033899
231,60,240,8.008000000000012,6.082762530298219,77.31752712031083,11.0,14.0,20.223748416156685,21.213203435596427,23.08679276123039,54.00925846556311,40.01249804748511,37.0,47.0,40.0,20.5,10.5,3.5,11.5,13.0,14.0,13.5,26.0,25.0,28.0178514522438
232,60,241,8.041366666666677,10.04987562112089,79.22752047110903,10.04987562112089,15.0,23.194827009486403,24.186773244895647,25.019992006393608,60.00833275470999,45.0111097397076,40.0,49.0,43.0,21.0,14.0,0.0,13.0,11.045361017187261,12.041594578792296,11.5,27.0,26.0,32.01562118716424
233,60,242,8.074733333333343,4.123105625617661,75.23961722390672,10.0,14.0,22.090722034374522,22.360679774997898,25.0,53.009433122794285,39.01281840626232,37.0,48.0,42.0,20.0,8.0,6.0,12.0,13.0,13.0,13.0,27.0,25.0,30.01666203960727
234,60,243,8.10810000000001,8.06225774829855,76.10519036176179,10.04987562112089,14.035668847618199,21.095023109728988,23.08679276123039,24.020824298928627,56.0357029044876,42.01190307520001,38.0,47.0,43.0,21.0,11.0,3.0,12.0,12.0,14.0,13.5,28.0,25.0,26.0
235,60,244,8.141466666666675,7.0,75.23961722390672,9.0,13.0,20.09975124224178,20.09975124224178,25.019992006393608,54.00925846556311,41.012193308819754,37.5,49.0,43.0,21.0,8.0,5.0,13.0,12.041594578792296,14.0,13.5,27.0,26.0,29.068883707497267
236,60,245,8.174833333333341,9.0,79.30952023559341,10.0,13.0,20.09975124224178,21.213203435596427,23.021728866442675,55.00909015790027,42.01190307520001,37.5,46.0,39.0,19.5,12.5,0.5,10.5,13.038404810405298,14.0,14.0,29.0,28.0,29.017236257093817
237,60,246,8.208200000000007,1.4142135623730951,81.39410298049853,11.0,14.0,20.223748416156685,20.223748416156685,25.019992006393608,51.03920062069938,37.05401462729781,36.5,48.0,40.0,19.0,7.0,5.0,10.0,13.038404810405298,14.0,14.0,27.0,27.0,32.01562118716424
238,60,247,8.241566666666673,1.0,78.5175139698144,11.0,14.0,20.223748416156685,20.223748416156685,26.019223662515376,51.03920062069938,37.05401462729781,37.0,49.0,40.0,18.5,6.5,6.5,9.5,12.041594578792296,13.0,12.5,27.0,27.0,28.071337695236398
239,60,248,8.274933333333339,4.47213595499958,89.1403387922662,10.0,14.0,21.213203435596427,23.194827009486403,27.0,55.036351623268054,41.048751503547585,39.0,41.0,36.0,11.5,16.5,2.5,4.5,13.0,14.0,13.5,29.0,29.0,35.05709628591621
240,60,249,8.308300000000004,2.8284271247461903,86.37129152675674,12.0,13.0,21.213203435596427,21.213203435596427,27.018512172212592,54.08326913195984,41.10960958218893,40.0,48.0,40.0,17.0,10.0,2.0,8.0,14.035668847618199,14.0,13.5,26.0,27.0,28.071337695236398
241,60,250,8.34166666666667,8.06225774829855,79.40403012442127,10.0,14.0,19.1049731745428,20.09975124224178,26.019223662515376,58.034472514187634,44.04543109109048,40.0,48.0,40.0,18.0,14.0,1.0,9.0,14.035668847618199,14.0,14.0,28.0,29.0,32.14031735997639
242,60,251,8.375033333333336,4.47213595499958,85.21150157109074,10.0,12.041594578792296,20.223748416156685,21.213203435596427,28.071337695236398,54.08326913195984,42.190046219457976,40.0,48.0,42.0,17.0,9.0,3.0,9.0,13.0,13.0,13.0,28.0,28.0,32.14031735997639
243,60,252,8.408400000000002,2.8284271247461903,82.60750571225353,10.0,14.0,19.4164878389476,19.4164878389476,28.0178514522438,54.00925846556311,40.01249804748511,39.0,49.0,39.0,16.0,10.0,2.0,9.0,13.038404810405298,13.0,12.5,25.0,25.0,31.064449134018133
244,60,253,8.441766666666668,5.0990195135927845,88.20430828479978,11.0,15.0,21.213203435596427,23.194827009486403,28.0,59.00847396772772,44.01136216933077,41.5,46.0,40.0,15.0,16.0,2.0,7.0,12.0,13.0,13.0,28.0,29.0,30.14962686336267
245,60,254,8.475133333333334,2.8284271247461903,85.14693182963201,10.0,16.0,19.026297590440446,20.09975124224178,28.0178514522438,56.00892785976178,40.01249804748511,39.0,44.0,39.0,13.5,14.5,0.5,4.5,13.0,13.0,13.0,27.0,27.0,31.144823004794873
246,60,255,8.5085,1.4142135623730951,88.2779700718135,9.055385138137417,14.035668847618199,20.223748416156685,22.20360331117452,30.01666203960727,54.037024344425184,40.01249804748511,39.5,44.0,37.0,10.5,13.5,0.5,4.5,13.0,13.0,13.0,28.0,28.0,28.160255680657446
247,60,256,8.541866666666666,6.082762530298219,84.8528137423857,10.04987562112089,14.035668847618199,22.360679774997898,23.345235059857504,26.019223662515376,56.0357029044876,42.01190307520001,39.0,46.0,34.0,14.0,16.0,3.0,7.0,13.0,13.0,12.5,29.0,31.0,32.14031735997639
248,60,257,8.575233333333331,4.47213595499958,81.88406438373708,9.0,13.038404810405298,19.4164878389476,19.4164878389476,27.018512172212592,53.03772242470448,40.01249804748511,38.0,46.0,34.0,13.0,13.0,1.0,7.0,14.035668847618199,15.033296378372908,14.5,28.0,29.0,37.05401462729781
249,60,258,8.608599999999997,6.082762530298219,87.36704184073076,9.0,13.0,20.223748416156685,21.213203435596427,27.018512172212592,55.0,42.0,39.0,43.0,35.0,12.0,16.0,4.0,5.0,11.0,12.0,12.0,30.0,29.0,40.01249804748511
250,60,259,8.641966666666663,5.0,93.13431161500041,8.06225774829855,14.0,23.08679276123039,24.186773244895647,27.0,54.00925846556311,40.01249804748511,37.5,37.0,32.0,7.5,19.5,5.5,1.5,11.045361017187261,12.0,11.5,27.0,27.0,36.05551275463989
251,60,260,8.67533333333333,4.0,92.0869154657707,9.055385138137417,14.035668847618199,22.090722034374522,23.08679276123039,25.179356624028344,52.08646657242167,38.05259518088089,36.0,37.0,33.0,10.0,17.0,4.0,3.0,10.0,12.041594578792296,11.5,29.0,29.0,36.013886210738214
252,60,261,8.708699999999995,9.055385138137417,92.19544457292888,8.0,12.0,21.095023109728988,23.194827009486403,26.076809620810597,55.00909015790027,43.01162633521314,38.5,38.0,32.0,9.0,20.0,8.0,3.0,10.04987562112089,10.0,10.0,27.0,27.0,34.0147027033899
253,60,262,8.74206666666666,7.0,92.34717104492157,10.04987562112089,13.0,22.090722034374522,23.194827009486403,25.079872407968907,55.00909015790027,42.01190307520001,38.5,41.0,33.0,12.0,18.0,6.0,4.0,10.04987562112089,10.0,10.0,29.0,29.0,30.066592756745816
254,60,263,8.775433333333327,5.0990195135927845,87.28115489611719,10.04987562112089,14.035668847618199,22.090722034374522,23.194827009486403,26.1725046566048,55.0,41.012193308819754,38.5,42.0,35.0,12.5,16.5,3.5,4.5,8.06225774829855,9.0,9.0,27.0,28.0,32.14031735997639
255,60,264,8.808799999999993,16.0,94.13288479590966,10.0,16.0,25.079872407968907,27.16615541441225,25.179356624028344,67.06713054842886,51.088159097779204,43.0,41.0,36.0,13.5,28.5,12.5,5.5,8.06225774829855,10.04987562112089,10.0,29.0,27.0,34.058772731852805
256,60,265,8.842166666666659,17.11724276862369,87.05170877128145,8.0,12.0,22.090722034374522,23.021728866442675,26.019223662515376,63.00793600809346,51.0098029794274,42.5,40.0,37.0,12.5,24.5,11.5,6.5,11.0,11.045361017187261,10.5,28.0,28.0,37.013511046643494
257,60,266,8.875533333333324,16.1245154965971,89.08984229416954,10.0,14.0,24.08318915758459,25.079872407968907,27.0,67.02984409947557,53.03772242470448,45.0,45.0,41.0,16.0,24.0,10.0,8.0,12.0,13.0,12.5,29.0,29.0,36.05551275463989
258,60,267,8.90889999999999,14.0,85.09406559801923,10.0,13.0,20.09975124224178,21.095023109728988,26.019223662515376,63.00793600809346,50.00999900019995,43.0,41.0,37.0,13.0,24.0,11.0,5.0,12.041594578792296,13.0,13.0,30.0,30.0,33.06055050963308
259,60,268,8.942266666666656,14.035668847618199,87.09190547921202,11.0,14.0,22.090722034374522,23.08679276123039,27.018512172212592,66.0,52.0,45.0,45.0,41.0,16.0,23.0,9.0,7.0,12.0,13.0,13.0,30.0,29.0,36.05551275463989
260,60,269,8.975633333333322,10.0,89.00561780022652,9.055385138137417,14.0,22.0,24.020824298928627,28.0178514522438,61.0,47.0,42.0,41.0,40.0,12.5,20.5,5.5,4.5,10.04987562112089,12.041594578792296,11.5,29.0,28.0,36.05551275463989
261,60,270,9.008999999999988,4.123105625617661,75.23961722390672,11.0,15.033296378372908,20.09975124224178,21.02379604162864,27.0,57.0350769263968,42.01190307520001,40.0,49.0,43.0,19.0,11.0,4.0,9.0,13.0,13.0,13.0,29.0,28.0,36.05551275463989
262,60,271,9.042366666666654,2.8284271247461903,76.32168761236873,10.0,14.0,17.26267650163207,19.1049731745428,28.0178514522438,54.00925846556311,40.01249804748511,39.0,47.0,40.0,15.5,10.5,3.5,7.5,12.041594578792296,13.0,12.5,28.0,28.0,38.05259518088089
263,60,272,9.07573333333332,3.1622776601683795,86.20904824900923,10.0,15.0,21.213203435596427,22.20360331117452,27.018512172212592,55.0,40.0,38.5,45.0,39.0,15.0,13.0,1.0,7.0,12.0,11.0,11.0,28.0,28.0,34.0147027033899
264,60,273,9.109099999999986,4.47213595499958,85.09406559801923,11.0,14.0,20.09975124224178,21.095023109728988,27.018512172212592,56.00892785976178,42.01190307520001,40.0,45.0,41.0,16.0,13.0,1.0,7.0,14.035668847618199,14.0,14.0,27.0,28.0,32.14031735997639
265,60,274,9.142466666666651,4.123105625617661,80.15609770940699,10.0,13.038404810405298,17.11724276862369,18.110770276274835,27.0,54.0,41.012193308819754,39.0,46.0,41.0,16.5,10.5,1.5,8.5,13.0,13.0,13.0,30.0,28.0,34.0
266,60,275,9.175833333333316,5.0990195135927845,86.20904824900923,10.0,13.038404810405298,20.223748416156685,22.20360331117452,28.0178514522438,56.00892785976178,43.0,40.5,48.0,42.0,17.0,11.0,1.0,9.0,12.041594578792296,14.0,13.5,28.0,29.0,39.05124837953327
267,60,276,9.209199999999983,5.0990195135927845,87.46427842267951,10.0,14.0,21.213203435596427,22.360679774997898,29.017236257093817,58.0,44.0,41.5,50.0,41.0,16.5,12.5,0.5,8.5,11.0,13.0,12.5,29.0,29.0,40.049968789001575
268,60,277,9.242566666666647,3.0,69.35416353759881,11.0,12.0,20.223748416156685,21.213203435596427,28.0178514522438,54.00925846556311,42.01190307520001,40.5,55.0,48.0,23.5,2.5,8.5,14.5,12.041594578792296,13.0,12.5,30.0,30.0,38.05259518088089
269,60,278,9.275933333333317,5.0,75.53806987208503,13.038404810405298,15.033296378372908,19.235384061671343,20.396078054371138,25.019992006393608,58.008620049092706,43.0,40.5,53.0,44.0,23.5,9.5,4.5,12.5,13.038404810405298,14.0,13.5,27.0,28.0,35.12833614050059
270,60,279,9.30929999999998,6.324555320336759,82.49242389456137,10.0,14.0,21.213203435596427,22.360679774997898,28.0,58.034472514187634,44.04543109109048,41.0,51.0,42.0,18.5,11.5,1.5,10.5,14.035668847618199,14.0,14.0,28.0,29.0,37.21558813185679
271,60,280,9.342666666666648,7.0710678118654755,79.40403012442127,11.045361017187261,13.038404810405298,20.223748416156685,21.213203435596427,27.073972741361768,58.215118311311535,45.17742799230607,41.5,51.0,43.0,20.0,11.0,2.0,11.0,12.041594578792296,13.0,13.0,27.0,30.0,39.11521443121589
272,60,281,9.376033333333313,5.0990195135927845,87.28115489611719,11.045361017187261,13.038404810405298,21.37755832643195,22.20360331117452,28.071337695236398,57.0087712549569,44.0,41.5,50.0,43.0,18.5,10.5,1.5,10.5,13.038404810405298,13.0,13.0,28.0,29.0,37.12142238654117
273,60,282,9.409399999999978,8.06225774829855,75.4254598925323,10.0,12.0,19.1049731745428,20.09975124224178,26.0,56.00892785976178,44.01136216933077,40.0,53.0,45.0,23.0,7.0,4.0,14.0,13.0,14.0,14.0,26.0,29.0,35.22782990761707
274,60,283,9.442766666666644,1.4142135623730951,73.33484846919642,10.0,13.0,19.1049731745428,20.223748416156685,27.0,51.0098029794274,38.01315561749642,37.5,52.0,45.0,21.5,2.5,9.5,12.5,13.038404810405298,15.0,14.5,27.0,29.0,37.12142238654117
275,60,284,9.47613333333331,7.0,76.23647421018367,9.0,12.0,19.1049731745428,20.223748416156685,26.0,54.0,42.0,38.5,51.0,45.0,22.0,6.0,5.0,14.0,12.041594578792296,13.0,13.0,25.0,28.0,32.0
276,60,285,9.509499999999976,11.180339887498949,81.49846624323675,11.0,15.0,20.223748416156685,21.213203435596427,27.073972741361768,64.0,49.0,43.5,51.0,42.0,19.5,17.5,3.5,10.5,12.041594578792296,13.0,13.0,27.0,30.0,36.05551275463989
277,60,286,9.542866666666642,11.045361017187261,83.48652585896721,11.0,13.0,21.213203435596427,22.20360331117452,24.0,59.00847396772772,46.010868281309364,40.5,49.0,40.0,20.5,14.5,2.5,11.5,12.0,11.0,11.0,27.0,26.0,32.0
278,60,287,9.576233333333308,11.045361017187261,92.26592003551474,11.0,17.029386365926403,23.194827009486403,25.317977802344327,25.019992006393608,64.00781202322104,47.0,41.5,46.0,39.0,17.5,21.5,5.5,9.5,10.0,10.0,10.5,27.0,28.0,29.017236257093817
279,60,288,9.609599999999974,7.280109889280518,91.13725912051558,11.0,14.035668847618199,23.194827009486403,24.08318915758459,26.019223662515376,58.137767414994535,44.10215414239989,40.5,45.0,40.0,16.5,15.5,1.5,8.5,11.045361017187261,10.04987562112089,10.5,28.0,28.0,33.0
280,60,289,9.64296666666664,5.0990195135927845,82.38931969618392,11.0,13.038404810405298,18.24828759089466,20.223748416156685,25.179356624028344,54.230987451824994,41.19465984809196,38.5,48.0,40.0,19.0,10.0,3.0,10.0,11.0,10.04987562112089,10.0,28.0,30.0,32.01562118716424
281,60,290,9.676333333333304,1.4142135623730951,79.51100552753688,10.04987562112089,12.041594578792296,20.223748416156685,21.095023109728988,23.021728866442675,46.17358552246078,34.132096331752024,33.5,48.0,39.0,20.5,2.5,8.5,12.5,10.04987562112089,9.0,9.5,26.0,29.0,30.01666203960727
282,60,291,9.709699999999971,3.0,83.48652585896721,11.045361017187261,13.038404810405298,20.223748416156685,22.20360331117452,23.08679276123039,50.15974481593781,37.12142238654117,35.5,49.0,40.0,21.5,5.5,6.5,12.5,9.055385138137417,9.0,9.0,25.0,28.0,30.066592756745816
283,60,292,9.743066666666635,8.06225774829855,80.06247560499239,10.04987562112089,11.180339887498949,21.213203435596427,22.20360331117452,24.020824298928627,53.23532661682466,42.1070065428546,38.0,52.0,39.0,21.5,7.5,2.5,13.5,6.324555320336759,6.0,6.5,24.0,32.0,34.058772731852805
284,60,293,9.776433333333305,4.0,84.48076704197234,12.041594578792296,10.04987562112089,26.019223662515376,26.076809620810597,26.0,52.03844732503075,42.01190307520001,40.0,50.0,41.0,19.5,6.5,3.5,9.5,10.04987562112089,10.04987562112089,10.0,24.0,32.0,32.01562118716424
285,60,294,9.809799999999967,10.04987562112089,87.46427842267951,11.0,11.045361017187261,24.020824298928627,25.079872407968907,27.018512172212592,59.00847396772772,48.0,43.0,51.0,42.0,19.5,12.5,1.5,10.5,11.045361017187261,11.045361017187261,11.5,26.0,35.0,34.058772731852805
286,60,295,9.843166666666637,2.0,77.64663547121665,11.0,10.04987562112089,22.090722034374522,23.08679276123039,28.0178514522438,51.03920062069938,41.012193308819754,40.0,50.0,40.0,17.0,6.0,4.0,8.0,11.045361017187261,11.045361017187261,12.0,25.0,36.0,34.132096331752024
287,60,296,9.8765333333333,4.123105625617661,75.13321502504735,12.041594578792296,14.142135623730951,15.297058540778355,16.76305461424021,26.1725046566048,56.43580423808985,42.2965719651132,40.0,55.0,42.0,22.5,7.5,4.5,12.5,12.165525060596439,12.0,12.5,24.0,36.0,30.265491900843113
288,60,297,9.909899999999968,4.123105625617661,77.78174593052023,9.055385138137417,11.045361017187261,22.090722034374522,22.20360331117452,27.0,51.088159097779204,40.049968789001575,38.0,48.0,37.0,15.5,8.5,1.5,8.5,10.04987562112089,12.041594578792296,12.5,22.0,36.0,31.144823004794873
289,60,298,9.943266666666633,6.082762530298219,74.96665925596525,13.038404810405298,14.035668847618199,16.492422502470642,18.681541692269406,24.515301344262525,57.55866572463264,43.56604182158393,40.0,56.0,44.0,26.0,7.0,4.0,15.0,13.152946437965905,12.041594578792296,13.0,23.0,37.0,30.4138126514911
290,60,299,9.976633333333298,7.0710678118654755,75.13321502504735,13.038404810405298,14.142135623730951,17.26267650163207,18.681541692269406,25.317977802344327,59.53990258641679,45.39823785126467,41.5,57.0,44.0,25.5,8.5,3.5,14.5,13.038404810405298,13.038404810405298,13.5,22.0,37.0,32.55764119219941
291,60,300,10.009999999999964,11.045361017187261,76.94153624668537,12.041594578792296,12.041594578792296,18.24828759089466,18.439088914585774,27.073972741361768,62.20128616033595,50.15974481593781,44.5,56.0,44.0,23.0,12.0,2.0,13.0,13.152946437965905,13.038404810405298,13.5,23.0,38.0,33.734255586866
292,60,301,10.04336666666663,8.246211251235321,73.97972695272672,12.041594578792296,14.035668847618199,15.297058540778355,17.46424919657298,25.317977802344327,59.53990258641679,45.5411901469428,41.0,57.0,45.0,26.0,8.0,4.0,15.0,13.038404810405298,13.038404810405298,13.5,23.0,37.0,31.78049716414141
293,60,302,10.076733333333296,3.605551275463989,71.386273190299,12.041594578792296,14.035668847618199,18.24828759089466,19.6468827043885,27.16615541441225,56.43580423808985,42.42640687119285,40.5,59.0,45.0,25.0,4.0,8.0,14.0,13.152946437965905,14.035668847618199,14.0,22.0,36.0,28.635642126552707
294,60,303,10.110099999999962,13.0,85.70880934886448,9.0,11.045361017187261,24.186773244895647,25.317977802344327,27.0,60.00833275470999,49.0,42.5,50.0,39.0,17.5,15.5,4.5,11.5,14.035668847618199,14.035668847618199,15.0,21.0,36.0,33.24154027718932
295,60,304,10.143466666666628,8.0,91.54780172128658,11.0,14.035668847618199,28.160255680657446,29.154759474226502,27.0,60.00833275470999,46.0,42.0,50.0,40.0,18.0,15.0,1.0,10.0,13.038404810405298,13.038404810405298,13.5,22.0,34.0,35.22782990761707
296,60,305,10.176833333333294,15.0,91.2414379544733,10.04987562112089,13.038404810405298,26.1725046566048,28.442925306655784,28.0178514522438,66.007575322837,53.0,45.5,52.0,37.0,16.5,21.5,10.5,9.5,12.165525060596439,13.152946437965905,14.0,24.0,40.0,35.510561809129406
297,60,306,10.21019999999996,12.0,94.64142856064674,11.045361017187261,15.132745950421556,29.154759474226502,30.265491900843113,25.019992006393608,63.0317380372777,48.0,42.0,48.0,37.0,17.5,20.5,6.5,8.5,13.038404810405298,14.035668847618199,14.5,26.0,39.0,34.23448553724738
298,60,307,10.243566666666624,12.041594578792296,86.57944328765345,12.041594578792296,14.035668847618199,26.076809620810597,27.294688127912362,27.018512172212592,65.03076195155643,51.0098029794274,45.0,52.0,42.0,20.0,18.0,4.0,11.0,12.041594578792296,13.0,13.5,22.0,38.0,32.55764119219941
299,60,308,10.276933333333291,10.0,85.70880934886448,10.0,13.0,21.213203435596427,23.345235059857504,26.0,59.0,46.0,41.0,51.0,40.0,19.5,13.5,1.5,11.5,14.142135623730951,14.035668847618199,14.5,23.0,35.0,28.160255680657446
300,60,309,10.310299999999955,21.095023109728988,96.0260381354974,10.04987562112089,13.152946437965905,27.294688127912362,29.427877939124322,24.020824298928627,68.26419266350405,55.14526271584895,44.5,53.0,39.0,22.0,22.0,10.0,15.0,12.0,12.165525060596439,13.0,22.0,36.0,33.37663853655727
301,60,310,10.343666666666625,15.0,87.82368700982668,12.041594578792296,13.152946437965905,25.179356624028344,26.30589287593181,24.020824298928627,64.1248781675256,51.03920062069938,43.5,50.0,38.0,20.0,20.0,8.0,11.0,13.038404810405298,13.038404810405298,14.0,26.0,40.0,35.22782990761707
302,60,311,10.377033333333287,12.041594578792296,88.45903006477066,10.04987562112089,14.035668847618199,22.561028345356956,24.515301344262525,24.020824298928627,60.13318551349163,46.09772228646444,40.0,50.0,34.0,18.0,18.0,6.0,11.0,14.035668847618199,13.038404810405298,13.5,25.0,39.0,37.48332962798263
303,60,312,10.410399999999957,13.038404810405298,85.90692637965812,10.198039027185569,13.152946437965905,19.6468827043885,20.8806130178211,26.019223662515376,62.12889826803627,49.040799340956916,42.5,57.0,39.0,22.0,14.0,4.0,14.0,15.033296378372908,15.033296378372908,15.5,22.0,36.0,32.55764119219941
304,60,313,10.44376666666662,20.024984394500787,85.90692637965812,10.04987562112089,14.035668847618199,21.587033144922902,23.769728648009426,25.019992006393608,69.1158447825099,55.08175741568164,45.0,58.0,40.0,24.0,20.0,9.0,17.0,14.035668847618199,14.035668847618199,14.5,21.0,37.0,35.6931365951495
305,60,314,10.477133333333288,13.152946437965905,79.62411694957753,10.04987562112089,15.033296378372908,19.6468827043885,20.615528128088304,25.019992006393608,63.198101237299845,48.16637831516918,41.5,57.0,41.0,24.0,14.0,1.0,16.0,15.132745950421556,14.035668847618199,15.0,23.0,37.0,34.23448553724738
306,60,315,10.510499999999952,12.041594578792296,87.29833904490967,12.165525060596439,14.035668847618199,21.37755832643195,23.345235059857504,25.079872407968907,63.0317380372777,49.01020301937138,43.0,52.0,37.0,19.5,18.5,6.5,10.5,13.038404810405298,14.035668847618199,14.0,24.0,38.0,35.510561809129406
307,60,316,10.543866666666618,11.045361017187261,85.98837130682264,12.165525060596439,15.132745950421556,23.345235059857504,24.331050121192877,28.071337695236398,66.06814663663572,51.0098029794274,45.5,56.0,43.0,21.5,16.5,3.5,12.5,13.152946437965905,14.142135623730951,14.0,23.0,37.0,38.3275357934736
308,60,317,10.577233333333284,11.045361017187261,90.79647570252934,11.045361017187261,14.317821063276353,22.360679774997898,23.345235059857504,29.068883707497267,65.06919393998976,51.0,45.5,55.0,43.0,20.0,16.0,4.0,12.0,14.142135623730951,14.035668847618199,14.5,22.0,35.0,30.4138126514911
309,60,318,10.61059999999995,7.280109889280518,85.70297544426332,11.180339887498949,13.152946437965905,19.6468827043885,21.840329667841555,29.017236257093817,60.207972893961475,47.095647357266465,43.5,59.0,42.0,21.5,9.5,0.5,13.5,14.142135623730951,15.033296378372908,15.0,23.0,37.0,36.6742416417845
310,60,319,10.643966666666616,7.280109889280518,90.09439494219383,12.041594578792296,15.132745950421556,23.53720459187964,24.515301344262525,29.017236257093817,63.12685640834652,48.041648597857254,44.5,58.0,44.0,22.0,12.0,1.0,13.0,14.035668847618199,15.033296378372908,15.0,21.0,36.0,35.510561809129406
311,60,320,10.677333333333282,11.180339887498949,89.94442728707543,12.165525060596439,15.033296378372908,23.345235059857504,25.495097567963924,27.073972741361768,65.06919393998976,50.039984012787215,44.5,55.0,42.0,21.5,16.5,3.5,12.5,15.132745950421556,14.035668847618199,14.5,23.0,35.0,33.37663853655727
312,60,321,10.710699999999948,12.041594578792296,91.0823802938856,12.041594578792296,14.035668847618199,23.53720459187964,24.515301344262525,27.018512172212592,65.12296062065974,51.088159097779204,45.0,55.0,41.0,21.0,17.0,5.0,12.0,14.142135623730951,14.035668847618199,14.0,22.0,35.0,36.345563690772494
313,60,322,10.744066666666614,13.038404810405298,90.4267659490264,12.041594578792296,15.033296378372908,22.80350850198276,23.769728648009426,26.019223662515376,66.03029607687671,51.0098029794274,44.5,62.0,46.0,28.0,12.0,0.0,19.0,14.142135623730951,14.142135623730951,14.5,21.0,37.0,35.35533905932738
314,60,323,10.77743333333328,10.04987562112089,86.49277426467485,12.041594578792296,16.1245154965971,22.561028345356956,24.515301344262525,26.019223662515376,64.19501538281614,48.093658625644196,43.0,58.0,42.0,24.0,14.0,0.0,15.0,13.038404810405298,13.152946437965905,13.5,23.0,36.0,39.319206502675
315,60,324,10.810799999999944,11.045361017187261,94.2019108086455,12.041594578792296,15.033296378372908,22.360679774997898,23.53720459187964,27.018512172212592,65.12296062065974,50.08991914547278,44.5,60.0,45.0,25.5,12.5,0.5,15.5,14.142135623730951,15.132745950421556,15.5,22.0,37.0,41.30375285612676
316,60,325,10.844166666666611,9.219544457292887,87.13208364316786,12.165525060596439,16.0312195418814,21.587033144922902,22.561028345356956,27.073972741361768,64.07027391856539,48.041648597857254,43.5,59.0,45.0,25.0,12.0,2.0,16.0,15.033296378372908,15.033296378372908,15.0,22.0,36.0,38.3275357934736
317,60,326,10.877533333333275,10.04987562112089,80.4114419718985,12.041594578792296,14.142135623730951,22.561028345356956,22.561028345356956,25.079872407968907,61.29437168288782,47.16990566028302,42.0,59.0,44.0,26.5,9.5,1.5,17.5,12.165525060596439,13.038404810405298,13.0,21.0,36.0,34.52535300326414
318,60,327,10.910899999999945,15.0,76.2954782408499,11.045361017187261,14.142135623730951,19.4164878389476,20.396078054371138,23.08679276123039,63.198101237299845,49.09175083453431,41.5,58.0,44.0,28.0,12.0,0.0,19.0,10.198039027185569,11.045361017187261,11.5,22.0,37.0,34.713109915419565
319,60,328,10.944266666666609,13.0,89.44271909999159,12.165525060596439,15.132745950421556,22.561028345356956,24.73863375370596,26.0,66.12110101926616,51.03920062069938,44.5,59.0,43.0,25.0,15.0,3.0,16.0,10.198039027185569,10.198039027185569,10.5,23.0,38.0,41.593268686170845
320,60,329,10.977633333333277,9.055385138137417,75.7099729229908,11.045361017187261,15.033296378372908,19.6468827043885,20.615528128088304,24.020824298928627,59.135437767890075,44.10215414239989,39.5,54.0,38.0,22.0,13.0,0.0,14.0,9.219544457292887,11.045361017187261,10.5,27.0,42.0,37.48332962798263
321,60,330,11.01099999999994,17.11724276862369,82.0,11.045361017187261,15.132745950421556,20.615528128088304,22.80350850198276,24.020824298928627,67.26812023536856,52.15361924162119,43.5,56.0,38.0,23.0,20.0,8.0,15.0,8.246211251235321,8.06225774829855,7.5,29.0,41.0,40.19950248448356
322,60,331,11.044366666666606,7.0710678118654755,70.21395872616783,11.045361017187261,15.033296378372908,20.396078054371138,22.561028345356956,24.020824298928627,57.14017850864661,42.1070065428546,38.5,56.0,43.0,25.5,7.5,6.5,16.5,7.280109889280518,9.055385138137417,9.0,27.0,38.0,38.3275357934736
323,60,332,11.077733333333272,14.0,79.2464510246358,10.04987562112089,16.0312195418814,20.615528128088304,22.360679774997898,25.019992006393608,65.06919393998976,49.040799340956916,42.0,48.0,34.0,16.0,24.0,9.0,9.0,7.280109889280518,9.055385138137417,8.0,29.0,39.0,40.19950248448356
324,60,333,11.111099999999938,21.02379604162864,79.40403012442127,10.04987562112089,16.1245154965971,19.235384061671343,21.213203435596427,26.0,73.10950690573696,57.0350769263968,46.5,52.0,44.0,22.0,25.0,10.0,14.0,8.06225774829855,9.055385138137417,8.0,28.0,36.0,41.10960958218893
325,60,334,11.144466666666604,14.142135623730951,71.449282711585,11.0,14.0,21.213203435596427,23.08679276123039,22.02271554554524,61.07372593840988,47.095647357266465,40.0,47.0,39.0,21.0,18.0,4.0,12.0,8.246211251235321,8.06225774829855,8.0,31.0,38.0,35.12833614050059
326,60,335,11.17783333333327,15.033296378372908,75.16648189186454,11.0,16.0312195418814,20.09975124224178,22.090722034374522,22.090722034374522,64.1248781675256,48.093658625644196,40.5,43.0,38.0,18.5,23.5,7.5,9.5,8.06225774829855,9.0,8.0,31.0,37.0,37.05401462729781
327,60,336,11.211199999999936,5.0,71.02816342831905,9.055385138137417,15.0,18.027756377319946,21.0,23.08679276123039,52.08646657242167,37.12142238654117,34.5,39.0,37.0,15.0,14.0,1.0,7.0,6.082762530298219,7.0,6.5,31.0,36.0,34.058772731852805
328,60,337,11.244566666666602,12.0,71.02816342831905,9.0,16.0,19.026297590440446,20.024984394500787,23.08679276123039,60.03332407921454,44.04543109109048,38.0,40.0,38.0,16.0,21.0,5.0,8.0,6.0,8.06225774829855,7.0,34.0,38.0,32.01562118716424
329,60,338,11.277933333333268,5.0990195135927845,71.00704190430693,9.0,17.0,21.0,22.0,24.331050121192877,55.08175741568164,38.118237105091836,35.5,39.0,40.0,15.5,15.5,2.5,7.5,8.0,9.0,8.0,34.0,36.0,33.0
330,60,339,11.311299999999934,14.142135623730951,69.06518659932803,10.04987562112089,14.035668847618199,20.09975124224178,21.02379604162864,25.079872407968907,63.28506932918696,49.25444142409901,42.0,50.0,47.0,23.5,14.5,0.5,14.5,8.0,7.0,6.5,33.0,35.0,30.265491900843113
331,60,340,11.3446666666666,15.033296378372908,68.06614430096654,10.04987562112089,15.132745950421556,18.110770276274835,20.0,27.16615541441225,67.36467917239716,52.23983154643591,44.5,52.0,49.0,23.5,16.5,0.5,14.5,9.055385138137417,10.0,9.5,35.0,36.0,30.14962686336267
332,60,341,11.378033333333263,9.219544457292887,73.0,10.04987562112089,16.1245154965971,18.027756377319946,20.0,26.1725046566048,61.5223536610881,45.39823785126467,40.5,43.0,43.0,17.0,18.0,1.0,8.0,12.041594578792296,13.0,11.5,34.0,35.0,26.1725046566048
333,60,342,11.411399999999931,21.0,75.02666192761077,10.0,15.0,23.021728866442675,23.021728866442675,25.179356624028344,71.06335201775947,56.08029957123981,45.5,47.0,49.0,23.0,23.0,6.0,13.0,8.0,9.0,8.5,32.0,33.0,31.064449134018133
334,60,343,11.444766666666595,22.0,77.0,10.0,17.0,20.024984394500787,22.0,24.186773244895647,73.06161783043132,56.08029957123981,45.0,45.0,45.0,21.0,28.0,10.0,12.0,6.0,7.0710678118654755,6.5,33.0,33.0,30.066592756745816
335,60,344,11.478133333333265,20.0,77.02596964660685,11.045361017187261,15.033296378372908,21.02379604162864,23.0,25.317977802344327,71.25307010929424,56.22277118748239,46.0,47.0,49.0,23.0,23.0,6.0,12.0,10.04987562112089,10.0,9.0,36.0,35.0,32.01562118716424
336,60,345,11.511499999999929,21.0,76.02631123499285,10.0,15.033296378372908,22.02271554554524,23.021728866442675,25.179356624028344,71.11258679024411,56.08029957123981,45.5,46.0,48.0,22.0,24.0,7.0,12.0,9.055385138137417,9.0,9.0,37.0,36.0,32.0
337,60,346,11.544866666666596,22.02271554554524,75.0066663703967,11.045361017187261,15.0,23.0,24.0,24.08318915758459,72.11102550927978,57.14017850864661,46.0,50.0,49.0,25.5,22.5,5.5,15.5,6.0,7.0710678118654755,6.5,34.0,34.0,32.0
338,60,347,11.57823333333326,19.0,76.00657866263946,10.0,17.029386365926403,20.024984394500787,22.0,25.179356624028344,71.11258679024411,54.08326913195984,44.5,44.0,45.0,19.5,26.5,8.5,10.5,5.0990195135927845,6.082762530298219,5.5,34.0,34.0,35.014282800023196
339,60,348,11.611599999999926,13.0,78.02563681252464,9.0,15.0,21.0,23.021728866442675,27.16615541441225,64.07027391856539,49.09175083453431,42.5,42.0,44.0,16.0,21.0,5.0,8.0,5.0,7.0,6.0,35.0,35.0,34.0
340,60,349,11.644966666666592,3.0,68.0294054067798,9.0,16.0,18.0,18.027756377319946,24.08318915758459,52.03844732503075,36.05551275463989,34.5,38.0,40.0,15.0,13.0,4.0,6.0,6.082762530298219,7.0710678118654755,6.5,34.0,34.0,30.01666203960727
341,60,350,11.678333333333258,3.0,69.02897942168927,10.04987562112089,16.0,18.0,19.0,24.020824298928627,53.0,37.0,35.5,38.0,40.0,15.0,14.0,3.0,6.0,6.082762530298219,7.0710678118654755,6.5,34.0,35.0,31.0
342,60,351,11.711699999999924,3.1622776601683795,69.02897942168927,10.0,16.0,18.027756377319946,18.0,24.020824298928627,53.0,37.0,35.5,38.0,40.0,15.0,14.0,3.0,5.0,4.123105625617661,6.082762530298219,5.5,34.0,35.0,35.0
343,60,352,11.74506666666659,4.47213595499958,75.02666192761077,9.0,15.0,19.0,20.024984394500787,25.079872407968907,53.0,38.0,36.0,38.0,40.0,14.0,14.0,2.0,6.0,7.0710678118654755,8.06225774829855,7.5,35.0,35.0,23.0
344,60,353,11.778433333333256,10.04987562112089,77.02596964660685,9.0,14.035668847618199,24.020824298928627,25.019992006393608,26.30589287593181,59.135437767890075,45.09988913511872,40.0,40.0,42.0,15.0,18.0,1.0,7.0,5.0,5.0990195135927845,5.0,33.0,33.0,31.0
345,60,354,11.811799999999922,13.038404810405298,78.00640999302557,8.0,14.035668847618199,24.0,25.019992006393608,25.179356624028344,60.07495318350236,46.04345773288535,39.5,40.0,41.0,15.5,19.5,3.5,8.5,4.123105625617661,5.0990195135927845,4.0,33.0,34.0,32.01562118716424
346,60,355,11.845166666666588,11.045361017187261,77.00649323271382,8.0,15.0,23.0,23.021728866442675,26.076809620810597,60.07495318350236,45.09988913511872,39.5,41.0,42.0,15.5,18.5,1.5,8.5,4.123105625617661,5.0,4.5,35.0,36.0,28.0
347,60,356,11.878533333333252,14.035668847618199,79.0,8.0,15.0,22.02271554554524,24.0,26.019223662515376,63.0317380372777,48.041648597857254,41.0,41.0,41.0,15.0,22.0,5.0,8.0,4.123105625617661,5.0990195135927845,5.0,32.0,33.0,34.0147027033899
348,60,357,11.91189999999992,7.0,80.0,10.0,15.033296378372908,22.0,23.0,26.476404589747453,58.309518948453004,43.289721643826724,39.5,41.0,41.0,15.0,17.0,0.0,6.0,6.082762530298219,7.280109889280518,6.5,33.0,33.0,34.0147027033899
349,60,358,11.945266666666583,6.0,77.02596964660685,11.0,16.0,19.026297590440446,21.0,24.331050121192877,57.14017850864661,41.19465984809196,38.0,40.0,38.0,15.0,18.0,1.0,6.0,6.0,5.0,4.5,35.0,34.0,33.015148038438355
350,60,359,11.978633333333253,7.0,79.00632886041473,9.0,15.0,20.024984394500787,22.0,25.179356624028344,56.08029957123981,41.10960958218893,37.5,41.0,40.0,15.5,15.5,0.5,7.5,5.0990195135927845,6.0,5.5,33.0,34.0,34.0147027033899
351,60,360,12.011999999999915,9.0,81.00617260431454,10.0,15.033296378372908,24.020824298928627,25.0,24.186773244895647,58.137767414994535,43.104524124504614,38.5,41.0,40.0,16.5,17.5,1.5,7.5,9.0,10.0,9.5,32.0,32.0,33.015148038438355
352,60,361,12.045366666666585,8.0,77.0,10.0,16.0312195418814,21.02379604162864,22.0,24.08318915758459,58.077534382926416,42.04759208325728,38.0,42.0,42.0,18.0,16.0,1.0,9.0,10.04987562112089,11.0,10.5,33.0,31.0,37.0
353,60,362,12.078733333333249,9.0,74.00675644831355,9.0,15.0,20.0,21.0,24.186773244895647,57.07889277132134,42.1070065428546,37.5,40.0,41.0,16.5,16.5,0.5,7.5,9.055385138137417,9.0,9.0,35.0,31.0,34.0147027033899
354,60,363,12.112099999999916,15.0,72.00694410957877,9.0,13.0,19.026297590440446,19.0,23.08679276123039,60.03332407921454,47.042533945356304,39.5,39.0,40.0,16.5,20.5,6.5,8.5,8.0,8.0,8.0,35.0,32.0,33.0
355,60,364,12.14546666666658,15.0,74.06078584514209,9.0,14.0,20.0,21.02379604162864,24.186773244895647,62.07253821135398,48.093658625644196,40.5,38.0,41.0,15.5,22.5,7.5,7.5,10.04987562112089,10.0,9.5,36.0,33.0,31.016124838541646
356,60,365,12.178833333333246,17.0,74.06078584514209,10.0,15.033296378372908,19.0,20.024984394500787,24.186773244895647,66.03029607687671,51.088159097779204,42.5,42.0,45.0,19.5,22.5,6.5,9.5,11.045361017187261,11.045361017187261,10.5,34.0,32.0,32.01562118716424
357,60,366,12.212199999999912,18.027756377319946,75.0,9.0,15.033296378372908,20.0,22.0,25.317977802344327,67.11929677819934,52.23983154643591,43.0,41.0,41.0,16.0,26.0,10.0,8.0,8.06225774829855,9.0,8.5,37.0,35.0,32.01562118716424
358,60,367,12.245566666666578,18.027756377319946,73.0,9.0,15.0,20.024984394500787,22.0,25.079872407968907,67.06713054842886,52.08646657242167,43.0,44.0,44.0,19.0,23.0,7.0,11.0,13.038404810405298,13.0,12.5,34.0,32.0,32.01562118716424
359,60,368,12.278933333333244,18.110770276274835,69.00724599634447,10.0,15.0,19.1049731745428,20.0,23.021728866442675,66.06814663663572,51.088159097779204,42.0,47.0,46.0,23.5,19.5,3.5,14.5,11.045361017187261,10.0,9.5,35.0,34.0,35.014282800023196
360,60,369,12.31229999999991,30.066592756745816,76.16429609731846,10.0,14.0,20.09975124224178,22.02271554554524,24.020824298928627,78.05767098754612,64.07027391856539,49.0,54.0,49.0,27.5,26.5,12.5,19.5,12.0,13.0,13.0,33.0,35.0,38.0
361,60,370,12.345666666666576,11.045361017187261,83.2946576918352,11.045361017187261,16.1245154965971,20.223748416156685,22.20360331117452,22.02271554554524,60.207972893961475,44.10215414239989,38.5,40.0,33.0,14.5,23.5,8.5,5.5,14.0,15.132745950421556,14.0,34.0,40.0,36.013886210738214
362,60,371,12.379033333333242,16.0312195418814,85.58621384311844,10.04987562112089,16.0312195418814,21.37755832643195,23.345235059857504,23.021728866442675,65.12296062065974,49.09175083453431,41.0,42.0,32.0,14.0,28.0,13.0,7.0,13.0,12.165525060596439,12.0,35.0,42.0,39.01281840626232
363,60,372,12.412399999999908,17.11724276862369,85.84287972802403,11.0,16.1245154965971,24.515301344262525,25.495097567963924,21.095023109728988,65.27633568147036,49.16299421312742,40.5,42.0,30.0,15.0,29.0,14.0,8.0,15.0,15.297058540778355,15.0,30.0,43.0,45.17742799230607
364,60,373,12.445766666666572,14.035668847618199,86.14522621712709,10.04987562112089,16.1245154965971,21.37755832643195,24.73863375370596,21.095023109728988,61.29437168288782,45.17742799230607,38.0,42.0,28.0,14.0,26.0,12.0,7.0,13.038404810405298,14.317821063276353,14.0,29.0,44.0,43.18564576337837
365,60,374,12.47913333333324,13.341664064126334,86.49277426467485,10.04987562112089,14.035668847618199,21.37755832643195,22.80350850198276,24.0,61.204574992397426,47.16990566028302,40.5,45.0,29.0,13.0,24.0,11.0,6.0,13.038404810405298,13.152946437965905,13.0,32.0,47.0,40.19950248448356
366,60,375,12.512499999999903,5.385164807134504,81.39410298049853,11.045361017187261,16.1245154965971,19.6468827043885,21.840329667841555,25.019992006393608,57.3149195236284,41.19465984809196,38.5,46.0,31.0,13.5,18.5,4.5,5.5,11.045361017187261,11.045361017187261,11.0,32.0,48.0,42.2965719651132
367,60,376,12.545866666666573,12.041594578792296,80.4114419718985,11.045361017187261,15.132745950421556,19.6468827043885,20.615528128088304,26.076809620810597,64.28063471995279,49.16299421312742,43.0,49.0,34.0,15.5,22.5,9.5,7.5,12.041594578792296,11.180339887498949,11.5,32.0,48.0,46.2709412050371
368,60,377,12.579233333333235,12.165525060596439,76.94153624668537,11.045361017187261,15.033296378372908,16.492422502470642,19.6468827043885,25.079872407968907,63.28506932918696,48.25971404805462,42.0,46.0,34.0,15.0,23.0,10.0,7.0,13.038404810405298,13.152946437965905,13.0,32.0,48.0,44.40720662234904
369,60,378,12.612599999999905,18.027756377319946,84.01190391843289,10.04987562112089,13.152946437965905,24.186773244895647,25.317977802344327,24.186773244895647,65.37583651472461,52.23983154643591,43.0,48.0,35.0,17.5,23.5,11.5,10.5,11.045361017187261,10.198039027185569,10.5,25.0,42.0,41.30375285612676
370,60,379,12.645966666666569,13.152946437965905,78.44743462982075,9.0,15.132745950421556,22.360679774997898,23.345235059857504,25.317977802344327,62.51399843235114,47.38143096192854,40.5,55.0,40.0,22.5,14.5,1.5,16.5,13.152946437965905,14.142135623730951,14.0,26.0,40.0,41.19465984809196
371,60,380,12.679333333333236,12.041594578792296,75.8023746329889,10.04987562112089,15.033296378372908,21.213203435596427,22.360679774997898,23.345235059857504,60.40695324215582,45.39823785126467,39.0,48.0,37.0,19.5,17.5,3.5,11.5,12.165525060596439,12.041594578792296,12.5,28.0,43.0,43.41658669218482
372,60,381,12.7126999999999,7.280109889280518,72.00694410957877,11.045361017187261,16.0312195418814,19.235384061671343,20.396078054371138,24.186773244895647,58.42088667591412,42.42640687119285,38.5,47.0,35.0,17.0,17.0,2.0,8.0,13.038404810405298,14.035668847618199,14.0,29.0,43.0,43.289721643826724
373,60,382,12.746066666666566,5.0990195135927845,74.14849964766651,9.055385138137417,15.033296378372908,20.396078054371138,22.360679774997898,25.179356624028344,54.3323108288245,39.319206502675,36.5,47.0,34.0,15.5,13.5,0.5,9.5,13.038404810405298,14.0,14.0,30.0,43.0,44.28317965096906
374,60,383,12.779433333333232,9.055385138137417,73.97972695272672,10.0,15.132745950421556,20.396078054371138,21.37755832643195,24.186773244895647,58.309518948453004,43.18564576337837,38.5,46.0,34.0,16.0,18.0,4.0,9.0,12.0,13.152946437965905,13.0,30.0,44.0,46.2709412050371
375,60,384,12.812799999999898,12.36931687685298,71.02112361825881,9.0,13.038404810405298,20.396078054371138,22.360679774997898,26.019223662515376,60.207972893961475,47.16990566028302,41.0,50.0,38.0,18.0,16.0,4.0,12.0,14.0,14.035668847618199,14.0,29.0,42.0,40.19950248448356
376,60,385,12.846166666666564,6.082762530298219,72.99315036357864,10.04987562112089,14.035668847618199,21.37755832643195,22.360679774997898,25.079872407968907,55.226805085936306,41.19465984809196,38.0,49.0,37.0,18.0,12.0,1.0,10.0,12.041594578792296,14.035668847618199,14.0,29.0,42.0,41.30375285612676
377,60,386,12.87953333333323,10.04987562112089,74.67261881037788,10.04987562112089,12.041594578792296,21.37755832643195,22.20360331117452,24.186773244895647,56.32051136131489,44.28317965096906,39.0,49.0,39.0,20.0,12.0,1.0,13.0,13.038404810405298,14.035668847618199,14.0,27.0,41.0,40.311288741492746
378,60,387,12.912899999999896,4.123105625617661,75.8023746329889,9.055385138137417,14.035668847618199,21.213203435596427,22.20360331117452,25.179356624028344,52.3450093132096,38.3275357934736,36.0,47.0,36.0,16.5,10.5,2.5,9.5,13.038404810405298,14.035668847618199,14.0,27.0,40.0,43.18564576337837
379,60,388,12.946266666666562,8.06225774829855,74.81310045707235,9.055385138137417,13.152946437965905,20.223748416156685,22.360679774997898,25.179356624028344,55.44366510251645,42.2965719651132,38.0,47.0,36.0,16.5,13.5,1.5,9.5,13.152946437965905,14.0,14.0,28.0,40.0,42.190046219457976
380,60,389,12.979633333333227,14.142135623730951,80.23091673413684,9.0,13.152946437965905,22.360679774997898,25.317977802344327,25.019992006393608,61.204574992397426,48.093658625644196,41.0,50.0,36.0,18.0,18.0,6.0,12.0,14.035668847618199,14.142135623730951,14.0,28.0,41.0,41.19465984809196
381,60,390,13.012999999999892,9.055385138137417,73.97972695272672,9.0,14.035668847618199,20.223748416156685,22.360679774997898,24.186773244895647,56.22277118748239,42.190046219457976,37.5,48.0,36.0,18.0,14.0,1.0,12.0,13.038404810405298,14.035668847618199,14.0,27.0,40.0,39.20459156782532
382,60,391,13.04636666666656,4.242640687119285,77.46612162745726,9.0,13.038404810405298,22.360679774997898,23.345235059857504,26.019223662515376,51.24451190127583,38.2099463490856,36.5,50.0,35.0,16.5,8.5,3.5,10.5,14.0,14.035668847618199,14.0,28.0,38.0,40.049968789001575
383,60,392,13.079733333333223,9.0,75.8023746329889,9.0,14.035668847618199,21.213203435596427,23.194827009486403,24.331050121192877,56.22277118748239,42.190046219457976,37.5,47.0,36.0,17.5,14.5,1.5,10.5,13.038404810405298,14.035668847618199,14.0,28.0,40.0,43.18564576337837
384,60,393,13.113099999999893,7.0710678118654755,74.14849964766651,10.0,14.035668847618199,20.223748416156685,21.37755832643195,24.186773244895647,55.226805085936306,41.19465984809196,37.5,49.0,36.0,18.5,12.5,0.5,10.5,13.038404810405298,15.033296378372908,14.5,28.0,42.0,42.42640687119285
385,60,394,13.146466666666557,2.0,74.14849964766651,10.04987562112089,14.035668847618199,19.4164878389476,20.396078054371138,25.019992006393608,51.088159097779204,37.05401462729781,36.0,49.0,36.0,17.5,8.5,3.5,10.5,13.038404810405298,14.035668847618199,14.0,29.0,42.0,40.19950248448356
386,60,395,13.179833333333224,7.0710678118654755,75.13321502504735,10.0,15.132745950421556,20.396078054371138,21.37755832643195,25.179356624028344,57.3149195236284,42.190046219457976,38.5,49.0,36.0,17.5,14.5,0.5,10.5,14.035668847618199,14.035668847618199,14.0,29.0,41.0,41.19465984809196
387,60,396,13.213199999999889,5.0990195135927845,75.31268153505093,10.0,15.033296378372908,21.37755832643195,22.360679774997898,25.019992006393608,55.08175741568164,40.049968789001575,37.5,51.0,37.0,19.0,11.0,2.0,12.0,13.038404810405298,14.035668847618199,14.0,29.0,42.0,43.104524124504614
388,60,397,13.246566666666554,17.029386365926403,77.92945527847606,10.0,15.033296378372908,24.186773244895647,25.179356624028344,24.186773244895647,66.18912297349165,51.15662224971465,42.5,54.0,42.0,24.0,18.0,4.0,16.0,14.035668847618199,15.033296378372908,15.0,30.0,41.0,44.10215414239989
389,60,398,13.27993333333322,16.0,74.67261881037788,10.04987562112089,14.035668847618199,22.20360331117452,23.08679276123039,24.0,64.03124237432849,50.00999900019995,42.0,52.0,42.0,23.0,17.0,4.0,16.0,14.035668847618199,14.035668847618199,14.0,30.0,42.0,44.181444068749045
390,60,399,13.313299999999886,21.02379604162864,79.40403012442127,10.04987562112089,15.0,22.20360331117452,24.186773244895647,24.020824298928627,70.00714249274856,55.00909015790027,44.5,45.0,37.0,17.0,29.0,14.0,10.0,13.0,15.033296378372908,15.0,33.0,45.0,47.265209192385896
391,60,400,13.346666666666552,19.026297590440446,79.51100552753688,10.0,15.0,22.20360331117452,23.345235059857504,21.02379604162864,65.03076195155643,50.039984012787215,40.5,44.0,35.0,18.5,25.5,10.5,10.5,14.035668847618199,15.0,15.0,34.0,44.0,44.181444068749045
392,60,401,13.380033333333218,17.029386365926403,79.63039620647382,10.0,14.035668847618199,21.37755832643195,24.186773244895647,22.02271554554524,63.071388124885914,49.040799340956916,40.5,47.0,37.0,20.0,21.0,8.0,13.0,14.0,15.132745950421556,15.0,33.0,43.0,48.16637831516918
393,60,402,13.413399999999884,15.033296378372908,78.63841300535,10.04987562112089,14.0,22.20360331117452,24.08318915758459,22.0,61.032778078668514,47.042533945356304,39.5,45.0,35.0,18.0,21.0,8.0,11.0,13.038404810405298,15.132745950421556,15.0,33.0,45.0,46.09772228646444
394,60,403,13.44676666666655,20.024984394500787,76.94153624668537,9.0,14.035668847618199,22.561028345356956,24.331050121192877,21.02379604162864,64.07027391856539,50.039984012787215,40.0,47.0,35.0,20.0,23.0,10.0,14.0,12.041594578792296,14.0,14.0,33.0,45.0,46.09772228646444
395,60,404,13.480133333333216,24.020824298928627,64.93843238021688,9.055385138137417,15.0,18.24828759089466,20.396078054371138,24.0,72.02777242147643,57.0350769263968,45.0,55.0,44.0,25.5,22.5,8.5,18.5,13.038404810405298,15.033296378372908,14.5,33.0,45.0,42.1070065428546
396,60,405,13.51349999999988,15.033296378372908,77.41446893184762,10.0,14.035668847618199,22.20360331117452,24.331050121192877,27.073972741361768,66.0,52.009614495783374,44.5,48.0,40.0,17.0,22.0,9.0,10.0,12.0,13.038404810405298,13.0,31.0,43.0,43.289721643826724
397,60,406,13.546866666666547,21.0,69.58448102845921,11.0,15.033296378372908,21.213203435596427,22.20360331117452,24.020824298928627,71.02816342831905,56.00892785976178,45.5,54.0,45.0,25.5,21.5,7.5,17.5,12.0,13.038404810405298,13.0,30.0,43.0,41.19465984809196
398,60,407,13.580233333333211,20.09975124224178,74.14849964766651,10.04987562112089,15.033296378372908,21.587033144922902,23.345235059857504,23.021728866442675,68.18357573492314,53.150729063673246,43.0,51.0,38.0,21.5,23.5,9.5,14.5,15.0,14.035668847618199,14.5,30.0,42.0,40.11234224026316
399,60,408,13.61359999999988,19.026297590440446,73.824115301167,10.04987562112089,15.033296378372908,23.194827009486403,25.317977802344327,24.020824298928627,68.11754546370561,53.08483775994799,43.5,53.0,42.0,23.5,20.5,5.5,15.5,15.0,15.033296378372908,15.0,30.0,42.0,42.1070065428546
400,60,409,13.646966666666543,15.033296378372908,70.71067811865476,10.04987562112089,15.033296378372908,21.213203435596427,23.194827009486403,25.0,65.06919393998976,50.039984012787215,42.5,52.0,42.0,22.0,18.0,4.0,14.0,12.041594578792296,14.035668847618199,14.0,32.0,43.0,44.181444068749045
401,60,410,13.68033333333321,16.0,74.24284477308234,9.0,13.038404810405298,22.090722034374522,23.08679276123039,27.294688127912362,65.19202405202648,52.15361924162119,44.0,50.0,44.0,20.0,18.0,4.0,13.0,16.0,17.029386365926403,17.0,31.0,39.0,43.04648650006177
402,60,411,13.713699999999877,19.026297590440446,78.23042886243178,10.0,15.0,23.194827009486403,25.079872407968907,24.08318915758459,68.06614430096654,53.08483775994799,43.5,49.0,43.0,22.0,22.0,7.0,14.0,13.0,14.035668847618199,14.0,32.0,42.0,46.17358552246078
403,60,412,13.747066666666544,15.033296378372908,77.78174593052023,10.04987562112089,14.035668847618199,22.20360331117452,24.186773244895647,24.08318915758459,63.198101237299845,49.16299421312742,41.5,50.0,39.0,20.5,18.5,5.5,12.5,12.0,13.038404810405298,13.5,29.0,42.0,43.289721643826724
404,60,413,13.780433333333209,18.027756377319946,72.56031973468694,10.0,13.038404810405298,22.20360331117452,23.194827009486403,26.0,67.02984409947557,54.00925846556311,45.0,56.0,47.0,25.5,15.5,2.5,17.5,17.0,17.029386365926403,17.0,32.0,40.0,41.048751503547585
405,60,414,13.813799999999874,19.026297590440446,70.178344238091,10.0,13.0,20.09975124224178,21.095023109728988,25.079872407968907,67.06713054842886,54.08326913195984,44.5,50.0,45.0,22.5,19.5,6.5,14.5,13.038404810405298,14.0,14.0,32.0,41.0,45.09988913511872
406,60,415,13.84716666666654,14.035668847618199,74.33034373659252,10.0,14.035668847618199,20.09975124224178,22.090722034374522,24.08318915758459,62.12889826803627,48.093658625644196,41.0,48.0,41.0,20.5,17.5,4.5,12.5,16.0,15.033296378372908,15.0,34.0,40.0,42.04759208325728
407,60,416,13.880533333333206,20.024984394500787,83.48652585896721,9.0,14.035668847618199,22.20360331117452,24.08318915758459,24.515301344262525,67.36467917239716,53.33854141237835,43.0,48.0,39.0,19.5,23.5,9.5,13.5,14.035668847618199,14.0,14.0,32.0,41.0,40.11234224026316
408,60,417,13.913899999999872,13.0,73.24616030891995,10.0,13.0,21.095023109728988,23.194827009486403,24.186773244895647,60.07495318350236,47.095647357266465,40.5,46.0,40.0,19.0,17.0,4.0,11.0,13.038404810405298,14.035668847618199,14.0,33.0,42.0,46.17358552246078
409,60,418,13.947266666666538,17.0,77.23341245859851,10.0,14.0,22.090722034374522,24.08318915758459,24.331050121192877,65.12296062065974,51.15662224971465,42.5,47.0,41.0,20.0,21.0,7.0,12.0,13.0,14.035668847618199,14.0,32.0,41.0,45.27692569068709
410,60,419,13.980633333333204,15.0,75.16648189186454,11.045361017187261,13.038404810405298,20.09975124224178,22.090722034374522,24.186773244895647,63.198101237299845,50.15974481593781,42.5,47.0,42.0,20.5,18.5,5.5,11.5,17.0,17.029386365926403,17.0,32.0,39.0,42.04759208325728
411,60,420,14.01399999999987,8.06225774829855,72.44308110509934,10.04987562112089,14.035668847618199,20.223748416156685,22.20360331117452,25.079872407968907,57.21887800367987,43.18564576337837,39.0,48.0,40.0,19.0,13.0,1.0,11.0,13.038404810405298,14.035668847618199,14.0,31.0,40.0,43.289721643826724
412,60,421,14.047366666666536,12.041594578792296,77.52418977325722,11.0,13.0,22.20360331117452,23.194827009486403,24.186773244895647,60.13318551349163,47.16990566028302,41.0,49.0,40.0,20.5,15.5,2.5,11.5,14.0,14.035668847618199,14.5,32.0,41.0,43.18564576337837
413,60,422,14.0807333333332,9.055385138137417,74.67261881037788,10.0,15.033296378372908,20.223748416156685,21.37755832643195,25.317977802344327,59.30430001273095,44.28317965096906,39.5,47.0,37.0,17.0,17.0,3.0,10.0,13.038404810405298,14.035668847618199,14.0,33.0,42.0,43.18564576337837
414,60,423,14.114099999999867,3.1622776601683795,74.54528824815154,11.0,15.0,21.095023109728988,23.08679276123039,25.317977802344327,54.230987451824994,39.319206502675,37.5,46.0,37.0,16.5,12.5,1.5,7.5,13.038404810405298,14.142135623730951,14.0,32.0,42.0,46.17358552246078
415,60,424,14.147466666666531,5.0990195135927845,73.55270219373317,11.0,15.0,20.223748416156685,22.20360331117452,24.186773244895647,55.14526271584895,40.19950248448356,37.5,47.0,38.0,18.5,12.5,2.5,10.5,13.0,15.132745950421556,14.5,33.0,43.0,44.181444068749045
416,60,425,14.1808333333332,10.0,71.7007670809734,10.0,15.033296378372908,21.213203435596427,23.08679276123039,25.079872407968907,60.07495318350236,45.044422518220834,40.0,51.0,41.0,21.0,14.0,1.0,13.0,14.0,14.142135623730951,14.0,31.0,42.0,44.28317965096906
417,60,426,14.214199999999863,4.123105625617661,75.66372975210778,11.0,15.033296378372908,21.213203435596427,23.194827009486403,24.331050121192877,54.3323108288245,39.319206502675,37.0,48.0,38.0,19.0,11.0,3.0,10.0,14.0,15.033296378372908,15.0,32.0,42.0,45.17742799230607
418,60,427,14.24756666666653,5.0,77.23341245859851,10.0,16.0312195418814,23.08679276123039,24.08318915758459,25.317977802344327,56.22277118748239,40.19950248448356,37.5,48.0,42.0,20.0,11.0,4.0,12.0,13.038404810405298,14.142135623730951,14.0,31.0,40.0,44.10215414239989
419,60,428,14.280933333333197,10.04987562112089,77.41446893184762,10.04987562112089,15.0,23.08679276123039,25.079872407968907,25.495097567963924,60.207972893961475,45.27692569068709,40.0,50.0,42.0,21.0,14.0,1.0,13.0,14.0,14.035668847618199,14.5,31.0,40.0,44.10215414239989
420,60,429,14.314299999999864,14.035668847618199,78.63841300535,9.0,14.035668847618199,22.20360331117452,25.317977802344327,25.179356624028344,62.20128616033595,48.16637831516918,41.0,52.0,42.0,22.0,15.0,2.0,15.0,13.038404810405298,13.038404810405298,13.0,31.0,40.0,41.10960958218893
421,60,430,14.347666666666528,12.041594578792296,75.4254598925323,10.0,15.033296378372908,23.08679276123039,23.194827009486403,25.179356624028344,62.20128616033595,47.16990566028302,41.0,50.0,42.0,21.0,16.0,2.0,13.0,13.038404810405298,13.152946437965905,13.0,32.0,41.0,45.27692569068709
422,60,431,14.381033333333194,9.0,76.4198926981712,10.0,14.0,22.090722034374522,23.194827009486403,25.179356624028344,58.077534382926416,44.10215414239989,39.5,49.0,41.0,20.0,13.0,0.0,12.0,13.0,13.038404810405298,13.0,31.0,40.0,44.28317965096906
423,60,432,14.41439999999986,9.055385138137417,76.11832893594026,11.045361017187261,15.033296378372908,20.396078054371138,22.360679774997898,24.020824298928627,59.135437767890075,44.10215414239989,39.5,51.0,38.0,20.5,14.5,0.5,11.5,17.029386365926403,16.0312195418814,16.0,33.0,41.0,42.1070065428546
424,60,433,14.447766666666526,12.041594578792296,77.92945527847606,9.055385138137417,14.0,21.213203435596427,23.194827009486403,25.079872407968907,60.13318551349163,46.17358552246078,40.0,50.0,38.0,19.0,16.0,3.0,12.0,16.0,16.0312195418814,16.5,32.0,41.0,43.18564576337837
425,60,434,14.481133333333192,9.0,76.4198926981712,11.0,13.0,20.09975124224178,21.095023109728988,25.179356624028344,58.077534382926416,45.09988913511872,40.5,50.0,42.0,21.0,12.0,1.0,12.0,13.038404810405298,15.033296378372908,14.5,32.0,41.0,44.10215414239989
426,60,435,14.514499999999858,6.0,70.8590149522275,10.04987562112089,13.0,16.278820596099706,18.24828759089466,26.076809620810597,55.08175741568164,42.1070065428546,39.0,48.0,37.0,16.5,12.5,0.5,8.5,13.038404810405298,15.033296378372908,14.5,32.0,43.0,45.27692569068709
427,60,436,14.547866666666524,7.0710678118654755,72.83543093852057,10.04987562112089,14.0,19.235384061671343,20.223748416156685,25.079872407968907,56.142675390472796,42.190046219457976,38.5,48.0,37.0,17.5,13.5,0.5,9.5,12.041594578792296,14.035668847618199,14.0,32.0,43.0,43.18564576337837
428,60,437,14.58123333333319,9.055385138137417,75.4254598925323,9.0,15.0,20.223748416156685,22.090722034374522,25.179356624028344,58.137767414994535,43.18564576337837,38.5,47.0,39.0,18.0,15.0,1.0,11.0,13.0,13.038404810405298,13.0,33.0,42.0,43.18564576337837
429,60,438,14.614599999999855,8.06225774829855,75.66372975210778,11.0,14.0,20.223748416156685,21.213203435596427,25.079872407968907,58.077534382926416,44.10215414239989,40.0,50.0,40.0,20.0,13.0,0.0,11.0,13.038404810405298,14.035668847618199,14.0,30.0,41.0,44.28317965096906
430,60,439,14.64796666666652,2.23606797749979,77.78174593052023,10.0,14.035668847618199,21.213203435596427,23.345235059857504,27.16615541441225,53.23532661682466,39.20459156782532,38.0,51.0,40.0,18.5,7.5,4.5,10.5,15.0,15.0,15.0,32.0,40.0,43.04648650006177
431,60,440,14.681333333333187,6.082762530298219,76.6550715869472,10.04987562112089,14.0,21.213203435596427,22.20360331117452,25.079872407968907,55.14526271584895,41.19465984809196,38.0,48.0,38.0,18.0,12.0,1.0,10.0,12.041594578792296,13.038404810405298,13.0,31.0,42.0,43.41658669218482
432,60,441,14.714699999999851,5.0990195135927845,74.67261881037788,11.0,15.0,20.223748416156685,21.37755832643195,24.186773244895647,55.14526271584895,40.19950248448356,37.5,48.0,38.0,19.0,12.0,2.0,10.0,12.041594578792296,13.038404810405298,12.5,32.0,42.0,46.2709412050371
433,60,442,14.74806666666652,1.4142135623730951,73.97972695272672,11.0,14.035668847618199,20.396078054371138,21.213203435596427,26.076809620810597,52.15361924162119,38.118237105091836,37.5,48.0,36.0,16.0,10.0,2.0,8.0,13.0,13.038404810405298,13.0,33.0,43.0,47.16990566028302
434,60,443,14.781433333333185,1.0,69.87131027825369,11.0,13.0,19.4164878389476,20.223748416156685,27.073972741361768,50.039984012787215,37.05401462729781,37.5,49.0,38.0,16.5,6.5,4.5,8.5,13.0,13.038404810405298,13.0,32.0,43.0,43.18564576337837
435,60,444,14.81479999999985,9.055385138137417,77.92945527847606,11.045361017187261,15.033296378372908,21.587033144922902,22.360679774997898,25.019992006393608,60.13318551349163,45.09988913511872,40.5,46.0,34.0,15.0,20.0,6.0,8.0,15.0,14.035668847618199,14.0,34.0,44.0,44.181444068749045
436,60,445,14.848166666666517,1.4142135623730951,75.95393340703298,11.045361017187261,15.0,21.37755832643195,21.37755832643195,26.1725046566048,53.23532661682466,38.3275357934736,37.5,49.0,37.0,17.0,10.0,4.0,8.0,12.041594578792296,13.0,12.5,32.0,42.0,45.17742799230607
437,60,446,14.881533333333184,1.4142135623730951,76.2954782408499,11.0,14.0,20.615528128088304,22.360679774997898,26.076809620810597,52.08646657242167,38.118237105091836,37.5,51.0,37.0,18.0,8.0,4.0,10.0,13.038404810405298,14.0,14.0,33.0,44.0,43.18564576337837
438,60,447,14.914899999999848,1.0,76.11832893594026,10.0,13.038404810405298,20.223748416156685,21.213203435596427,27.073972741361768,50.15974481593781,37.12142238654117,37.0,50.0,37.0,16.5,6.5,5.5,8.5,12.0,13.0,13.0,32.0,43.0,44.04543109109048
439,60,448,14.948266666666514,6.324555320336759,76.11832893594026,11.0,16.0,20.615528128088304,21.587033144922902,26.0,59.033888572581766,43.04648650006177,40.0,50.0,37.0,17.5,15.5,1.5,10.5,11.045361017187261,12.0,12.0,33.0,43.0,47.16990566028302
440,60,449,14.98163333333318,4.123105625617661,78.44743462982075,11.045361017187261,15.033296378372908,22.360679774997898,23.53720459187964,27.073972741361768,57.21887800367987,42.190046219457976,40.0,52.0,37.0,17.5,12.5,0.5,9.5,11.0,11.045361017187261,11.0,34.0,43.0,45.09988913511872
441,60,450,15.014999999999846,1.4142135623730951,75.31268153505093,11.045361017187261,13.0,21.37755832643195,23.194827009486403,27.018512172212592,52.08646657242167,39.11521443121589,38.5,52.0,38.0,18.0,7.0,5.0,10.0,11.045361017187261,12.041594578792296,12.0,33.0,43.0,47.265209192385896
442,60,451,15.048366666666512,1.4142135623730951,73.824115301167,10.0,14.0,21.213203435596427,22.360679774997898,27.073972741361768,52.08646657242167,38.118237105091836,37.5,49.0,38.0,16.5,8.5,4.5,8.5,11.0,11.0,11.5,32.0,42.0,46.17358552246078
443,60,452,15.081733333333178,2.23606797749979,76.94153624668537,10.04987562112089,14.035668847618199,21.37755832643195,22.20360331117452,27.018512172212592,53.150729063673246,39.11521443121589,38.0,50.0,38.0,17.0,9.0,4.0,9.0,14.0,14.0,14.0,32.0,42.0,41.10960958218893
444,60,453,15.115099999999844,5.0990195135927845,77.10382610480494,10.0,14.0,20.223748416156685,21.37755832643195,25.179356624028344,54.147945482723536,40.19950248448356,37.5,50.0,37.0,18.5,10.5,1.5,10.5,11.0,11.045361017187261,11.0,31.0,41.0,45.09988913511872
445,60,454,15.14846666666651,4.0,74.81310045707235,11.045361017187261,13.0,18.24828759089466,20.223748416156685,26.019223662515376,54.037024344425184,41.048751503547585,39.0,49.0,38.0,17.5,10.5,1.5,8.5,10.04987562112089,12.0,11.5,31.0,41.0,44.181444068749045
446,60,455,15.181833333333175,2.23606797749979,78.91767862779544,12.041594578792296,15.0,19.4164878389476,19.235384061671343,27.018512172212592,56.00892785976178,41.012193308819754,40.0,49.0,37.0,16.0,13.0,0.0,7.0,12.0,12.0,12.5,32.0,42.0,43.289721643826724
447,60,456,15.21519999999984,7.0710678118654755,75.95393340703298,11.0,15.0,20.396078054371138,21.37755832643195,26.0,59.00847396772772,44.01136216933077,40.5,49.0,37.0,17.0,16.0,3.0,9.0,11.045361017187261,11.045361017187261,11.5,33.0,43.0,46.17358552246078
448,60,457,15.248566666666507,4.123105625617661,74.14849964766651,10.0,15.033296378372908,20.396078054371138,21.213203435596427,27.018512172212592,56.08029957123981,41.048751503547585,39.0,50.0,37.0,16.5,12.5,1.5,8.5,10.0,12.041594578792296,11.5,33.0,43.0,47.16990566028302
449,60,458,15.281933333333171,5.385164807134504,82.03657720797473,11.045361017187261,14.0,22.360679774997898,22.360679774997898,28.0178514522438,58.034472514187634,44.04543109109048,41.5,50.0,37.0,15.5,14.5,1.5,7.5,11.045361017187261,12.0,12.0,33.0,42.0,46.04345773288535
450,60,459,15.31529999999984,4.47213595499958,76.2954782408499,11.0,13.0,22.360679774997898,23.345235059857504,27.073972741361768,55.14526271584895,42.190046219457976,40.0,52.0,38.0,18.0,10.0,2.0,10.0,12.041594578792296,13.0,12.5,33.0,43.0,44.181444068749045
451,60,460,15.348666666666505,4.123105625617661,77.10382610480494,11.0,15.0,20.396078054371138,21.37755832643195,27.018512172212592,57.0350769263968,42.04759208325728,40.0,52.0,39.0,18.5,11.5,1.5,10.5,12.041594578792296,12.041594578792296,11.5,33.0,42.0,44.181444068749045
452,60,461,15.38203333333317,4.47213595499958,75.13321502504735,11.0,14.0,21.37755832643195,21.37755832643195,26.0,55.036351623268054,41.048751503547585,39.0,50.0,37.0,17.5,11.5,1.5,9.5,11.0,11.045361017187261,11.5,33.0,42.0,44.10215414239989
453,60,462,15.415399999999837,5.0990195135927845,73.97972695272672,11.0,14.035668847618199,20.396078054371138,20.396078054371138,25.179356624028344,55.226805085936306,41.19465984809196,38.5,51.0,39.0,20.0,10.0,2.0,12.0,12.041594578792296,12.041594578792296,12.0,32.0,41.0,44.28317965096906
454,60,463,15.448766666666502,10.0,79.40403012442127,11.0,14.035668847618199,22.20360331117452,23.08679276123039,23.345235059857504,58.215118311311535,44.181444068749045,39.0,50.0,42.0,23.0,12.0,2.0,14.0,15.0,15.033296378372908,15.0,31.0,40.0,43.289721643826724
455,60,464,15.482133333333168,13.0,84.5931439302264,10.0,13.038404810405298,23.194827009486403,24.186773244895647,27.073972741361768,63.071388124885914,50.039984012787215,43.5,51.0,41.0,19.0,17.0,5.0,11.0,14.0,13.0,13.5,32.0,41.0,46.17358552246078
456,60,465,15.515499999999834,19.0,74.54528824815154,10.0,15.0,19.235384061671343,21.213203435596427,22.20360331117452,66.06814663663572,51.088159097779204,41.5,49.0,40.0,22.5,21.5,7.5,14.5,14.035668847618199,14.035668847618199,13.5,31.0,42.0,42.2965719651132
457,60,466,15.5488666666665,15.0,78.16009211867653,12.0,15.0,19.1049731745428,21.213203435596427,26.076809620810597,68.0294054067798,53.03772242470448,45.5,45.0,40.0,16.5,25.5,10.5,6.5,12.041594578792296,12.041594578792296,12.0,35.0,43.0,45.17742799230607
458,60,467,15.582233333333166,13.0,75.16648189186454,13.0,17.0,18.110770276274835,20.223748416156685,24.186773244895647,67.06713054842886,50.08991914547278,43.5,46.0,41.0,19.5,23.5,7.5,8.5,13.0,13.0,13.0,37.0,45.0,44.04543109109048
459,60,468,15.615599999999832,8.0,75.1065909225016,11.045361017187261,16.0,18.110770276274835,21.095023109728988,26.076809620810597,61.07372593840988,45.09988913511872,41.0,45.0,41.0,17.0,18.0,2.0,8.0,12.041594578792296,13.038404810405298,12.5,35.0,42.0,42.190046219457976
460,60,469,15.648966666666498,10.198039027185569,77.05841939723393,11.0,15.0,19.026297590440446,21.02379604162864,27.459060435491963,63.387695966961914,48.507731342539614,43.0,45.0,42.0,16.5,19.5,4.5,6.5,13.0,13.038404810405298,13.0,33.0,39.0,40.11234224026316
461,60,470,15.682333333333164,10.04987562112089,79.05694150420949,10.0,14.035668847618199,20.024984394500787,21.02379604162864,26.076809620810597,60.13318551349163,46.09772228646444,41.0,44.0,41.0,16.5,17.5,4.5,7.5,13.0,13.0,13.0,34.0,39.0,38.118237105091836
