,frame_seq,m1,m3,m4,m5,m6,m7,m8,m9,m10,m11,m12,m13,m14,m15,m16,m17,e1,e2,e3,b1,b2,b3
0,0,2.23606797749979,88.45903006477066,11.045361017187261,17.11724276862369,25.179356624028344,26.30589287593181,19.1049731745428,46.52956049652737,29.427877939124322,29.5,26.0,35.0,11.5,15.5,3.5,0.5,9.055385138137417,11.045361017187261,11.0,42.0,35.0,36.124783736376884
1,1,2.23606797749979,88.45903006477066,11.045361017187261,17.11724276862369,25.179356624028344,26.30589287593181,19.1049731745428,46.52956049652737,29.427877939124322,29.5,26.0,35.0,11.5,15.5,3.5,0.5,9.055385138137417,11.045361017187261,11.0,42.0,35.0,36.124783736376884
2,2,2.23606797749979,88.45903006477066,11.045361017187261,17.11724276862369,25.179356624028344,26.30589287593181,19.1049731745428,46.52956049652737,29.427877939124322,29.5,26.0,35.0,11.5,15.5,3.5,0.5,9.055385138137417,11.045361017187261,11.0,42.0,35.0,36.124783736376884
3,3,2.23606797749979,88.45903006477066,11.045361017187261,17.11724276862369,25.179356624028344,26.30589287593181,19.1049731745428,46.52956049652737,29.427877939124322,29.5,26.0,35.0,11.5,15.5,3.5,0.5,9.055385138137417,11.045361017187261,11.0,42.0,35.0,36.124783736376884
4,4,3.1622776601683795,88.45903006477066,11.045361017187261,17.11724276862369,23.345235059857504,24.186773244895647,19.026297590440446,46.52956049652737,29.427877939124322,29.5,26.0,35.0,11.5,15.5,3.5,0.5,10.04987562112089,10.198039027185569,10.5,41.0,34.0,43.18564576337837
5,5,3.1622776601683795,88.45903006477066,11.045361017187261,17.11724276862369,25.179356624028344,26.1725046566048,18.110770276274835,45.70557952810576,28.635642126552707,28.5,25.0,34.0,11.5,15.5,3.5,0.5,10.04987562112089,11.045361017187261,10.5,41.0,34.0,42.01190307520001
6,6,2.23606797749979,88.45903006477066,11.045361017187261,17.11724276862369,25.179356624028344,26.1725046566048,18.110770276274835,45.5411901469428,28.442925306655784,28.5,25.0,34.0,11.5,15.5,3.5,0.5,11.045361017187261,11.045361017187261,10.5,41.0,34.0,40.049968789001575
7,7,2.23606797749979,87.36704184073076,11.045361017187261,17.029386365926403,24.186773244895647,25.179356624028344,18.110770276274835,45.39823785126467,28.442925306655784,28.5,26.0,34.0,12.0,15.0,4.0,0.0,10.04987562112089,11.045361017187261,11.0,40.0,34.0,38.01315561749642
8,8,2.23606797749979,90.44888059008801,11.045361017187261,18.110770276274835,25.179356624028344,26.1725046566048,19.1049731745428,47.51841748206689,29.427877939124322,29.5,25.0,34.0,10.5,17.5,2.5,0.5,10.04987562112089,10.04987562112089,10.0,40.0,34.0,38.01315561749642
9,9,2.0,89.27485648266257,11.045361017187261,17.11724276862369,25.079872407968907,26.076809620810597,19.1049731745428,47.51841748206689,30.4138126514911,30.0,27.0,34.0,11.5,16.5,2.5,0.5,10.04987562112089,11.045361017187261,10.5,39.0,33.0,41.048751503547585
10,10,1.0,90.35485598461214,11.045361017187261,18.110770276274835,24.186773244895647,26.076809620810597,20.09975124224178,49.36598018878993,31.25699921617557,31.0,26.0,34.0,10.0,19.0,1.0,1.0,10.04987562112089,11.045361017187261,10.5,41.0,35.0,40.049968789001575
11,11,2.0,89.27485648266257,11.045361017187261,18.027756377319946,25.079872407968907,26.076809620810597,20.09975124224178,49.36598018878993,31.400636936215164,31.0,27.0,34.0,10.5,18.5,1.5,0.5,10.04987562112089,11.0,10.5,40.0,34.0,41.012193308819754
12,12,13.038404810405298,90.27181176868004,10.04987562112089,16.1245154965971,25.079872407968907,27.073972741361768,17.029386365926403,56.22277118748239,40.11234224026316,33.5,28.0,35.0,14.5,24.5,6.5,4.5,9.055385138137417,10.04987562112089,10.0,38.0,34.0,41.012193308819754
13,13,16.1245154965971,91.19758768739445,10.04987562112089,16.1245154965971,26.076809620810597,29.017236257093817,17.029386365926403,59.30430001273095,43.18564576337837,35.0,30.0,36.0,16.0,26.0,8.0,6.0,9.219544457292887,9.055385138137417,9.0,39.0,35.0,39.0
14,14,18.110770276274835,92.13576938409967,9.055385138137417,16.0312195418814,26.076809620810597,28.0178514522438,18.027756377319946,61.204574992397426,45.17742799230607,36.0,31.0,36.0,15.5,27.5,9.5,6.5,10.198039027185569,10.04987562112089,9.5,39.0,37.0,38.0
15,15,20.09975124224178,91.08786966440702,9.055385138137417,15.033296378372908,26.076809620810597,28.071337695236398,18.110770276274835,62.289646009589745,47.265209192385896,37.0,32.0,36.0,16.0,28.0,11.0,7.0,8.246211251235321,10.0,9.5,39.0,37.0,41.012193308819754
16,16,20.09975124224178,91.08786966440702,9.055385138137417,15.033296378372908,26.076809620810597,28.0178514522438,18.110770276274835,62.289646009589745,47.265209192385896,37.0,32.0,36.0,16.0,28.0,11.0,7.0,8.06225774829855,9.0,9.0,39.0,37.0,42.0
17,17,25.079872407968907,91.0494371207203,9.055385138137417,16.1245154965971,26.019223662515376,28.0178514522438,17.029386365926403,67.26812023536856,51.15662224971465,38.5,33.0,36.0,17.5,32.5,14.5,8.5,8.06225774829855,10.0,9.5,39.0,38.0,44.01136216933077
18,18,27.073972741361768,90.08884503644167,8.06225774829855,15.033296378372908,25.019992006393608,28.0,18.027756377319946,68.18357573492314,53.150729063673246,39.5,34.0,38.0,18.0,32.0,15.0,10.0,8.06225774829855,10.0,10.0,38.0,37.0,41.0
19,19,28.071337695236398,90.08884503644167,9.055385138137417,16.0312195418814,25.079872407968907,28.0178514522438,17.029386365926403,70.178344238091,54.147945482723536,40.0,34.0,38.0,19.0,34.0,17.0,10.0,10.04987562112089,10.0,10.0,40.0,38.0,45.0111097397076
20,20,29.154759474226502,89.05054744357274,8.0,15.132745950421556,26.019223662515376,28.0178514522438,18.110770276274835,70.34912934784623,55.226805085936306,40.5,35.0,38.0,18.5,33.5,16.5,10.5,8.06225774829855,10.0,9.5,40.0,38.0,44.0
21,21,29.068883707497267,89.08984229416954,8.0,15.132745950421556,26.019223662515376,28.0178514522438,18.110770276274835,70.25667228100119,55.14526271584895,40.5,34.0,38.0,18.0,34.0,17.0,10.0,9.055385138137417,10.04987562112089,9.5,38.0,37.0,43.0
22,22,32.0624390837628,89.02246907382428,8.06225774829855,15.033296378372908,27.0,29.017236257093817,18.0,73.10950690573696,58.077534382926416,42.0,36.0,38.0,19.0,36.0,19.0,12.0,7.0710678118654755,8.06225774829855,7.5,37.0,37.0,43.0
23,23,28.071337695236398,89.02246907382428,9.055385138137417,16.0312195418814,22.02271554554524,25.019992006393608,19.1049731745428,72.24956747275377,56.22277118748239,42.0,34.0,36.0,16.0,37.0,20.0,7.0,9.219544457292887,9.0,9.0,38.0,37.0,41.048751503547585
24,24,32.0624390837628,92.00543462209176,8.06225774829855,14.035668847618199,25.019992006393608,27.0,17.11724276862369,71.25307010929424,57.21887800367987,41.0,36.0,37.0,19.5,34.5,18.5,11.5,9.055385138137417,8.0,8.5,32.0,37.0,45.0
25,25,29.017236257093817,93.00537618869137,9.055385138137417,16.0312195418814,26.019223662515376,28.0,16.0312195418814,70.11419257183242,54.08326913195984,39.5,34.0,35.0,18.5,35.5,17.5,9.5,6.082762530298219,6.0,6.0,36.0,36.0,43.01162633521314
26,26,30.01666203960727,92.0,9.055385138137417,15.033296378372908,25.019992006393608,28.0,17.0,71.06335201775947,56.0357029044876,41.0,35.0,35.0,18.0,36.0,19.0,10.0,7.0710678118654755,7.0,7.0,35.0,36.0,45.0
27,27,21.095023109728988,94.04786015641186,9.0,17.029386365926403,27.073972741361768,29.017236257093817,15.033296378372908,62.12889826803627,45.09988913511872,34.5,28.0,31.0,14.5,32.5,13.5,5.5,9.055385138137417,9.055385138137417,8.5,37.0,35.0,43.0
28,28,20.024984394500787,97.082439194738,9.0,17.11724276862369,27.018512172212592,29.017236257093817,14.035668847618199,60.13318551349163,43.04648650006177,33.0,26.0,30.0,14.0,32.0,13.0,5.0,9.055385138137417,9.0,9.0,38.0,36.0,42.0
29,29,17.11724276862369,95.08417323613851,9.055385138137417,17.029386365926403,26.076809620810597,29.068883707497267,14.035668847618199,57.21887800367987,40.19950248448356,31.5,25.0,29.0,13.0,30.0,11.0,3.0,10.198039027185569,9.0,9.0,37.0,34.0,44.04543109109048
30,30,16.1245154965971,95.13148795220224,8.06225774829855,17.029386365926403,27.073972741361768,29.017236257093817,16.0312195418814,57.21887800367987,40.19950248448356,32.0,25.0,30.0,11.5,29.5,10.5,3.5,9.219544457292887,9.0,9.5,37.0,33.0,43.104524124504614
31,31,12.041594578792296,94.08506789071261,9.055385138137417,15.132745950421556,26.076809620810597,28.071337695236398,16.0312195418814,52.23983154643591,37.12142238654117,31.0,25.0,29.0,11.0,25.0,8.0,2.0,10.198039027185569,10.04987562112089,10.0,37.0,35.0,49.01020301937138
32,32,2.23606797749979,91.26883367283708,10.04987562112089,12.041594578792296,25.079872407968907,26.076809620810597,21.095023109728988,41.30375285612676,29.274562336608895,30.0,25.0,32.0,7.5,12.5,1.5,1.5,10.04987562112089,10.04987562112089,10.0,40.0,37.0,39.0
33,33,2.23606797749979,89.27485648266257,9.055385138137417,12.041594578792296,24.186773244895647,25.079872407968907,21.095023109728988,40.311288741492746,28.284271247461902,29.0,25.0,32.0,7.5,11.5,2.5,1.5,10.04987562112089,11.0,11.5,38.0,36.0,40.01249804748511
34,34,1.4142135623730951,90.27181176868004,9.055385138137417,12.041594578792296,25.079872407968907,26.076809620810597,21.095023109728988,41.30375285612676,29.274562336608895,29.5,25.0,32.0,7.5,12.5,2.5,1.5,9.055385138137417,10.04987562112089,10.5,38.0,36.0,36.013886210738214
35,35,1.4142135623730951,90.19977827023745,10.04987562112089,12.041594578792296,25.179356624028344,26.076809620810597,21.095023109728988,42.2965719651132,30.265491900843113,30.5,26.0,32.0,8.0,13.0,2.0,2.0,10.198039027185569,11.045361017187261,11.0,39.0,36.0,39.01281840626232
36,36,2.8284271247461903,91.19758768739445,10.0,12.041594578792296,25.079872407968907,26.1725046566048,22.090722034374522,42.2965719651132,30.265491900843113,31.0,26.0,32.0,7.0,13.0,1.0,2.0,10.198039027185569,9.055385138137417,9.5,39.0,37.0,40.01249804748511
37,37,1.0,90.19977827023745,10.04987562112089,13.038404810405298,25.079872407968907,26.076809620810597,21.095023109728988,44.28317965096906,31.25699921617557,31.0,27.0,33.0,9.0,14.0,2.0,1.0,9.055385138137417,10.04987562112089,10.5,39.0,36.0,39.01281840626232
38,38,3.1622776601683795,90.08884503644167,10.0,16.1245154965971,25.019992006393608,27.018512172212592,21.213203435596427,50.35871324805669,34.23448553724738,32.5,30.0,34.0,11.0,18.0,0.0,2.0,9.055385138137417,10.04987562112089,9.5,39.0,36.0,41.048751503547585
39,39,20.024984394500787,92.13576938409967,10.04987562112089,18.110770276274835,27.073972741361768,28.0178514522438,17.11724276862369,65.27633568147036,47.16990566028302,37.0,31.0,36.0,16.5,31.5,11.5,6.5,10.198039027185569,11.045361017187261,10.5,39.0,36.0,45.044422518220834
40,40,20.09975124224178,92.0869154657707,9.055385138137417,17.11724276862369,26.019223662515376,28.0,18.027756377319946,64.28063471995279,47.16990566028302,37.0,32.0,36.0,16.0,30.0,12.0,7.0,9.219544457292887,10.0,10.0,39.0,35.0,45.044422518220834
41,41,24.08318915758459,94.13288479590966,9.0,16.1245154965971,25.019992006393608,28.0178514522438,17.11724276862369,66.27216610312357,50.15974481593781,38.0,31.0,36.0,16.5,32.5,14.5,7.5,10.198039027185569,10.04987562112089,10.0,39.0,36.0,47.01063709417264
42,42,19.1049731745428,93.1933474020544,10.198039027185569,17.11724276862369,26.076809620810597,28.071337695236398,16.0312195418814,62.39390995922599,45.27692569068709,35.5,29.0,35.0,16.0,30.0,11.0,6.0,10.198039027185569,10.04987562112089,10.0,39.0,35.0,47.042533945356304
43,43,20.024984394500787,95.13148795220224,9.055385138137417,16.1245154965971,27.073972741361768,29.017236257093817,16.1245154965971,61.29437168288782,45.17742799230607,35.0,29.0,34.0,15.5,29.5,12.5,6.5,10.198039027185569,10.04987562112089,10.0,39.0,35.0,45.0111097397076
44,44,20.09975124224178,94.13288479590966,10.04987562112089,16.1245154965971,27.073972741361768,28.0178514522438,15.033296378372908,61.29437168288782,45.17742799230607,35.0,29.0,34.0,16.5,29.5,11.5,6.5,10.198039027185569,9.055385138137417,9.5,40.0,36.0,47.042533945356304
45,45,21.095023109728988,94.13288479590966,8.06225774829855,16.0312195418814,27.018512172212592,29.017236257093817,16.1245154965971,61.29437168288782,45.27692569068709,34.5,29.0,34.0,15.5,29.5,11.5,7.5,9.055385138137417,10.04987562112089,10.0,39.0,35.0,46.010868281309364
46,46,22.090722034374522,95.13148795220224,10.04987562112089,17.11724276862369,26.076809620810597,28.0178514522438,15.132745950421556,64.38167441127949,47.265209192385896,36.0,29.0,34.0,16.5,32.5,14.5,6.5,10.04987562112089,10.04987562112089,10.0,39.0,36.0,51.088159097779204
47,47,18.110770276274835,91.08786966440702,9.055385138137417,17.11724276862369,26.076809620810597,27.018512172212592,19.026297590440446,63.28506932918696,46.17358552246078,37.0,31.0,35.0,14.0,30.0,12.0,5.0,4.123105625617661,5.0990195135927845,5.0,39.0,36.0,38.01315561749642
48,48,3.1622776601683795,85.09406559801923,10.04987562112089,16.0312195418814,24.08318915758459,25.019992006393608,24.020824298928627,53.150729063673246,37.12142238654117,35.5,30.0,34.0,8.0,21.0,3.0,1.0,7.0710678118654755,8.06225774829855,8.0,39.0,38.0,40.01249804748511
49,49,2.23606797749979,83.05419917138447,7.0,14.035668847618199,23.0,24.020824298928627,26.019223662515376,49.09175083453431,35.05709628591621,34.0,31.0,34.0,6.5,16.5,0.5,0.5,8.06225774829855,9.055385138137417,8.5,37.0,37.0,39.01281840626232
50,50,1.4142135623730951,84.0535543567314,8.06225774829855,14.035668847618199,22.02271554554524,24.0,26.019223662515376,49.16299421312742,35.12833614050059,34.5,31.0,34.0,6.5,16.5,0.5,0.5,7.0710678118654755,9.0,8.5,38.0,38.0,40.01249804748511
51,51,13.038404810405298,87.02298546935747,10.0,16.0312195418814,24.0,26.0,17.0,56.0357029044876,40.01249804748511,33.5,35.0,33.0,17.0,22.0,5.0,7.0,8.0,9.0,9.0,35.0,38.0,39.05124837953327
52,52,13.038404810405298,89.08984229416954,9.0,16.0,27.0,29.0,17.0,55.00909015790027,39.01281840626232,32.5,36.0,32.0,17.0,21.0,4.0,8.0,8.0,7.0,7.5,33.0,37.0,47.0
53,53,14.035668847618199,89.05054744357274,9.0,16.0,26.0,28.0178514522438,16.0,55.00909015790027,39.01281840626232,32.0,35.0,32.0,17.5,21.5,4.5,8.5,8.06225774829855,8.0,8.0,34.0,39.0,39.05124837953327
54,54,13.0,91.13725912051558,10.0,16.0,26.019223662515376,28.071337695236398,16.0,55.0,39.0,32.5,36.0,31.0,17.5,21.5,5.5,8.5,8.06225774829855,8.0,7.5,33.0,39.0,43.104524124504614
55,55,12.041594578792296,90.27181176868004,11.0,16.0,25.079872407968907,27.073972741361768,15.0,54.00925846556311,38.01315561749642,32.0,36.0,29.0,17.5,21.5,5.5,8.5,7.0710678118654755,8.06225774829855,8.0,34.0,40.0,36.22154055254967
56,56,14.0,90.19977827023745,9.0,16.0312195418814,25.079872407968907,27.073972741361768,16.1245154965971,55.08175741568164,39.05124837953327,32.0,36.0,30.0,17.0,22.0,6.0,9.0,8.06225774829855,7.0,7.0,32.0,40.0,38.2099463490856
57,57,16.0,90.19977827023745,9.0,16.0,25.079872407968907,27.16615541441225,16.0312195418814,57.0087712549569,41.012193308819754,33.0,36.0,30.0,17.0,24.0,8.0,10.0,8.06225774829855,8.06225774829855,7.5,32.0,43.0,37.33630940518894
58,58,15.0,90.27181176868004,9.0,16.0312195418814,26.019223662515376,28.071337695236398,16.0312195418814,56.0357029044876,40.01249804748511,32.5,37.0,30.0,17.5,22.5,6.5,9.5,8.06225774829855,7.0,7.0,30.0,40.0,42.190046219457976
59,59,17.0,88.2779700718135,8.0,16.0,25.079872407968907,27.073972741361768,15.033296378372908,56.00892785976178,40.01249804748511,31.5,36.0,29.0,17.5,23.5,7.5,10.5,9.055385138137417,9.055385138137417,8.5,30.0,41.0,43.289721643826724
60,60,17.0,86.20904824900923,8.0,17.0,25.079872407968907,27.073972741361768,14.035668847618199,56.00892785976178,39.01281840626232,30.5,37.0,31.0,20.0,22.0,5.0,13.0,9.0,9.055385138137417,9.0,33.0,44.0,38.2099463490856
61,61,16.0,82.09750300709517,8.0,18.0,25.0,27.073972741361768,14.142135623730951,56.0357029044876,38.05259518088089,30.0,37.0,33.0,21.0,21.0,3.0,14.0,9.0,9.0,9.0,32.0,42.0,38.2099463490856
62,62,16.0312195418814,83.09632964216891,8.0,18.027756377319946,25.019992006393608,27.073972741361768,14.142135623730951,56.0357029044876,38.01315561749642,30.0,36.0,32.0,20.0,22.0,4.0,13.0,9.055385138137417,9.0,9.0,31.0,42.0,37.12142238654117
63,63,15.0,84.0535543567314,8.0,17.029386365926403,23.0,24.020824298928627,17.029386365926403,57.0350769263968,40.01249804748511,32.5,36.0,33.0,17.5,22.5,5.5,10.5,10.04987562112089,10.0,10.0,31.0,42.0,40.11234224026316
64,64,17.0,84.09518416651456,8.0,18.0,24.0,26.076809620810597,15.132745950421556,58.034472514187634,40.049968789001575,31.5,37.0,33.0,20.0,23.0,4.0,13.0,9.055385138137417,9.0,9.0,31.0,41.0,37.21558813185679
65,65,19.0,86.09297300012354,7.0,18.0,25.019992006393608,27.018512172212592,16.0312195418814,60.00833275470999,42.01190307520001,32.5,36.0,32.0,18.0,26.0,8.0,12.0,9.0,9.055385138137417,9.0,31.0,42.0,45.09988913511872
66,66,20.024984394500787,89.05054744357274,8.0,17.0,25.0,28.0178514522438,15.033296378372908,60.0,43.0,33.0,34.0,31.0,17.5,27.5,10.5,10.5,10.0,10.0,10.0,33.0,42.0,45.09988913511872
67,67,21.02379604162864,89.02246907382428,9.0,17.0,26.019223662515376,28.0178514522438,15.033296378372908,62.0,45.0,34.5,34.0,32.0,18.0,29.0,11.0,10.0,8.0,10.04987562112089,9.5,33.0,41.0,42.1070065428546
68,68,21.02379604162864,88.05112151472007,8.06225774829855,17.0,25.019992006393608,27.018512172212592,16.0312195418814,62.00806399170998,45.0111097397076,34.5,35.0,32.0,17.5,28.5,10.5,10.5,9.0,10.04987562112089,9.5,33.0,41.0,40.049968789001575
69,69,24.020824298928627,90.0499861188218,8.0,17.0,26.0,29.068883707497267,16.0312195418814,65.0,48.0,36.0,35.0,32.0,17.5,31.5,14.5,10.5,10.0,10.04987562112089,10.5,33.0,42.0,48.093658625644196
70,70,25.019992006393608,90.0499861188218,8.0,17.0,27.0,28.0178514522438,17.11724276862369,67.00746227100382,50.00999900019995,37.5,36.0,33.0,17.5,32.5,14.5,10.5,10.04987562112089,10.0,10.5,33.0,39.0,44.04543109109048
71,71,22.02271554554524,90.0222194794152,8.0,15.0,26.019223662515376,27.018512172212592,16.0312195418814,61.0,46.0,35.0,35.0,33.0,18.0,27.0,11.0,11.0,11.0,10.0,10.0,35.0,41.0,43.104524124504614
72,72,18.027756377319946,90.0499861188218,9.055385138137417,16.0,26.0,28.0178514522438,16.0,59.0,43.0,34.0,35.0,32.0,17.5,25.5,9.5,9.5,11.0,10.0,10.0,33.0,39.0,39.11521443121589
73,73,19.026297590440446,90.00555538409837,9.0,16.0,25.019992006393608,27.0,15.0,59.00847396772772,43.01162633521314,33.5,34.0,33.0,18.5,25.5,9.5,10.5,10.0,9.055385138137417,9.5,35.0,39.0,42.04759208325728
74,74,17.029386365926403,89.02246907382428,9.055385138137417,16.0,25.0,28.0,16.0,58.0,42.0,33.5,35.0,33.0,18.0,24.0,8.0,10.0,10.0,10.04987562112089,10.0,34.0,40.0,37.013511046643494
75,75,18.027756377319946,90.00555538409837,7.0,16.0,25.0,27.0,17.0,58.008620049092706,42.01190307520001,33.0,34.0,33.0,16.5,24.5,8.5,9.5,10.0,10.04987562112089,10.0,37.0,42.0,42.04759208325728
76,76,17.029386365926403,90.0222194794152,8.0,16.0,26.0,28.0,16.0,57.0087712549569,41.012193308819754,32.5,33.0,31.0,16.0,25.0,8.0,8.0,10.0,9.0,9.0,35.0,39.0,39.05124837953327
77,77,17.029386365926403,92.00543462209176,9.0,16.0,26.0,28.0,16.0,58.008620049092706,42.01190307520001,33.5,33.0,32.0,16.5,25.5,8.5,8.5,10.04987562112089,10.0,10.0,36.0,39.0,40.01249804748511
78,78,15.033296378372908,91.00549433962765,8.0,17.0,26.019223662515376,28.0,17.0,57.0087712549569,40.01249804748511,32.5,33.0,32.0,15.5,24.5,7.5,7.5,10.04987562112089,9.055385138137417,9.5,35.0,39.0,40.049968789001575
79,79,13.038404810405298,90.00555538409837,9.0,16.0,25.0,27.018512172212592,16.0,54.00925846556311,38.01315561749642,31.5,32.0,31.0,15.5,22.5,5.5,7.5,10.0,10.0,10.0,35.0,39.0,39.01281840626232
80,80,13.0,90.0222194794152,9.055385138137417,16.0312195418814,26.019223662515376,28.0178514522438,16.0,54.037024344425184,38.01315561749642,31.5,33.0,31.0,16.0,22.0,5.0,7.0,9.055385138137417,10.0,10.0,36.0,40.0,39.05124837953327
81,81,14.035668847618199,91.00549433962765,10.0,16.0,25.0,27.0,15.0,55.00909015790027,39.01281840626232,32.0,31.0,30.0,15.5,24.5,7.5,6.5,6.082762530298219,7.0,7.0,35.0,39.0,34.058772731852805
82,82,14.035668847618199,92.00543462209176,9.0,15.033296378372908,27.0,28.0,16.0312195418814,54.08326913195984,39.05124837953327,32.0,31.0,30.0,14.5,23.5,6.5,6.5,3.0,3.1622776601683795,3.0,37.0,40.0,37.12142238654117
83,83,18.027756377319946,92.02173656261873,9.055385138137417,16.0,26.019223662515376,29.017236257093817,16.0,59.033888572581766,43.04648650006177,34.0,33.0,31.0,16.0,27.0,10.0,7.0,3.0,3.1622776601683795,3.0,37.0,40.0,38.01315561749642
84,84,17.029386365926403,91.00549433962765,9.0,16.0312195418814,25.0,28.0,16.0,58.034472514187634,42.01190307520001,33.5,32.0,31.0,15.5,26.5,9.5,7.5,6.0,7.0,6.5,35.0,39.0,41.048751503547585
85,85,17.029386365926403,91.0,9.055385138137417,17.029386365926403,26.019223662515376,28.0178514522438,16.0312195418814,59.033888572581766,42.01190307520001,33.5,32.0,32.0,16.0,27.0,9.0,7.0,7.0,7.0710678118654755,7.0,35.0,38.0,40.049968789001575
86,86,12.0,90.00555538409837,9.055385138137417,16.0,26.0,27.018512172212592,17.0,54.00925846556311,38.01315561749642,32.0,33.0,32.0,15.5,21.5,5.5,7.5,8.0,7.0,7.5,35.0,39.0,38.01315561749642
87,87,12.041594578792296,91.0,10.0,17.029386365926403,25.019992006393608,28.0,16.0,55.036351623268054,38.01315561749642,32.0,32.0,32.0,16.0,23.0,5.0,7.0,6.0,7.0710678118654755,7.0,36.0,40.0,37.05401462729781
88,88,13.0,89.00561780022652,9.0,17.029386365926403,26.0,28.0,15.0,54.00925846556311,37.0,30.5,31.0,30.0,15.5,23.5,6.5,6.5,8.0,8.0,8.0,35.0,39.0,40.01249804748511
89,89,14.0,91.02197536858887,9.0,17.029386365926403,26.0,28.0,16.0,56.00892785976178,39.0,32.0,33.0,31.0,16.0,24.0,6.0,8.0,8.0,9.0,8.5,35.0,38.0,39.01281840626232
90,90,18.027756377319946,91.00549433962765,9.0,16.0,27.0,29.017236257093817,16.0,59.00847396772772,43.01162633521314,34.0,34.0,33.0,17.5,25.5,8.5,9.5,8.0,9.0,9.0,36.0,38.0,40.049968789001575
91,91,21.02379604162864,90.00555538409837,8.0,15.0,26.019223662515376,28.0,16.0,60.00833275470999,45.0111097397076,34.5,35.0,34.0,18.5,25.5,9.5,10.5,9.0,8.0,8.5,36.0,39.0,43.01162633521314
92,92,20.0,90.00555538409837,8.06225774829855,16.0312195418814,27.018512172212592,28.0,17.029386365926403,61.00819617067857,45.0,35.0,36.0,35.0,18.5,25.5,8.5,10.5,9.0,9.0,9.0,35.0,39.0,41.012193308819754
93,93,20.024984394500787,89.02246907382428,8.0,16.0,26.0,28.0178514522438,17.0,61.00819617067857,45.0111097397076,35.0,36.0,34.0,18.0,26.0,9.0,10.0,9.055385138137417,9.0,9.0,35.0,39.0,43.04648650006177
94,94,18.027756377319946,90.0222194794152,9.0,16.0,26.0,28.0,16.0,59.00847396772772,43.01162633521314,34.0,35.0,33.0,18.0,25.0,8.0,10.0,9.0,8.0,8.0,36.0,40.0,41.048751503547585
95,95,17.029386365926403,89.00561780022652,8.0,16.0,26.0,28.0,16.0,57.0087712549569,41.012193308819754,32.5,34.0,33.0,17.5,23.5,7.5,9.5,7.0,7.0,7.5,35.0,38.0,40.01249804748511
96,96,18.027756377319946,89.02246907382428,9.0,16.0312195418814,25.0,27.018512172212592,15.033296378372908,58.008620049092706,42.0,33.0,35.0,33.0,19.0,24.0,7.0,10.0,8.0,9.055385138137417,9.0,35.0,38.0,40.049968789001575
97,97,17.029386365926403,90.00555538409837,8.0,16.0,23.0,26.0,15.0,56.00892785976178,40.01249804748511,31.5,32.0,31.0,16.5,24.5,8.5,8.5,10.0,11.0,10.5,35.0,39.0,41.0
98,98,18.027756377319946,91.02197536858887,9.055385138137417,16.0,25.0,27.018512172212592,15.033296378372908,58.008620049092706,42.01190307520001,33.0,35.0,33.0,19.0,24.0,8.0,10.0,10.04987562112089,10.0,10.0,36.0,40.0,40.01249804748511
99,99,18.0,90.0499861188218,8.0,15.0,25.0,27.018512172212592,16.0,57.0,42.0,33.0,35.0,32.0,17.5,23.5,7.5,9.5,13.038404810405298,14.0,14.0,34.0,39.0,46.010868281309364
100,100,16.0312195418814,90.0222194794152,10.0,17.0,25.0,27.018512172212592,15.0,58.008620049092706,41.012193308819754,33.0,35.0,33.0,19.0,24.0,7.0,10.0,7.0,7.0,6.5,33.0,37.0,38.118237105091836
101,101,17.029386365926403,90.0222194794152,9.0,17.029386365926403,24.0,26.019223662515376,15.0,58.034472514187634,41.012193308819754,32.5,35.0,33.0,19.0,24.0,7.0,10.0,6.082762530298219,7.0710678118654755,6.5,34.0,38.0,37.05401462729781
102,102,15.033296378372908,88.02272433866155,9.0,16.0,24.0,26.076809620810597,15.0,55.00909015790027,39.01281840626232,31.5,35.0,33.0,19.0,21.0,4.0,11.0,8.06225774829855,7.0,7.0,32.0,36.0,41.048751503547585
103,103,15.033296378372908,86.00581375697809,8.0,16.0,25.0,27.018512172212592,16.0,55.00909015790027,39.01281840626232,31.5,35.0,34.0,18.5,20.5,3.5,11.5,8.06225774829855,8.0,7.5,33.0,38.0,38.118237105091836
104,104,16.0312195418814,82.05485969764375,8.0,18.0,24.020824298928627,27.018512172212592,16.0,58.008620049092706,40.01249804748511,32.0,38.0,35.0,20.5,21.5,3.5,12.5,9.0,8.06225774829855,8.0,33.0,38.0,36.124783736376884
105,105,17.029386365926403,81.05553651663777,8.0,18.0,23.0,25.019992006393608,17.0,60.00833275470999,42.01190307520001,33.5,39.0,36.0,20.5,22.5,3.5,13.5,10.0,10.0,9.5,33.0,38.0,39.11521443121589
106,106,15.0,80.05623023850174,9.0,19.026297590440446,22.0,24.08318915758459,17.0,60.00833275470999,41.0,33.5,38.0,35.0,19.5,23.5,4.5,11.5,8.0,9.0,9.0,33.0,40.0,37.12142238654117
107,107,19.026297590440446,83.05419917138447,8.0,18.0,24.0,26.019223662515376,16.0,61.00819617067857,43.01162633521314,33.5,38.0,35.0,20.5,24.5,5.5,12.5,9.055385138137417,9.0,9.5,34.0,39.0,38.118237105091836
108,108,18.027756377319946,83.02409288875127,8.0,18.0,24.0,26.019223662515376,17.0,61.00819617067857,43.01162633521314,34.0,38.0,36.0,20.0,24.0,5.0,13.0,10.0,10.0,9.5,34.0,39.0,37.12142238654117
109,109,19.026297590440446,83.0,8.0,18.027756377319946,24.0,26.0,16.0312195418814,61.00819617067857,43.0,33.5,36.0,36.0,20.0,25.0,6.0,12.0,9.0,9.0,9.5,32.0,39.0,39.11521443121589
110,110,20.024984394500787,83.02409288875127,8.0,18.0,23.0,25.019992006393608,16.1245154965971,62.00806399170998,44.01136216933077,34.0,37.0,35.0,20.0,26.0,8.0,12.0,10.0,9.0,9.5,33.0,39.0,37.12142238654117
111,111,21.02379604162864,84.02380615040002,8.0,17.029386365926403,24.0,26.019223662515376,16.1245154965971,62.0,45.0111097397076,34.5,37.0,35.0,20.0,26.0,8.0,12.0,9.0,10.0,9.5,34.0,39.0,37.05401462729781
112,112,24.020824298928627,86.00581375697809,8.0,17.0,25.0,27.0,17.11724276862369,66.007575322837,49.01020301937138,37.0,37.0,36.0,19.5,29.5,11.5,11.5,9.055385138137417,9.0,9.0,33.0,38.0,40.049968789001575
113,113,24.0,87.00574693662483,8.0,17.0,25.0,27.0,16.0312195418814,65.00769185258002,48.010415536631214,36.0,36.0,35.0,19.5,29.5,11.5,11.5,9.055385138137417,9.0,8.5,34.0,39.0,41.048751503547585
114,114,23.021728866442675,86.0,8.0,17.0,24.0,27.018512172212592,17.11724276862369,65.00769185258002,48.010415536631214,36.5,36.0,36.0,19.0,29.0,11.0,11.0,10.04987562112089,10.0,10.5,36.0,41.0,43.01162633521314
115,115,21.02379604162864,87.02298546935747,8.0,17.0,25.0,26.0,16.1245154965971,62.00806399170998,45.0111097397076,34.5,36.0,34.0,19.0,27.0,9.0,11.0,8.0,8.06225774829855,8.5,34.0,39.0,36.0
116,116,21.02379604162864,87.00574693662483,8.0,17.0,25.0,27.0,16.0312195418814,62.0,45.0,34.5,35.0,34.0,18.5,27.5,9.5,10.5,9.055385138137417,9.0,9.5,34.0,39.0,39.01281840626232
117,117,16.0,88.02272433866155,9.0,17.0,25.0,27.018512172212592,16.0312195418814,58.008620049092706,41.012193308819754,33.0,36.0,34.0,19.0,23.0,5.0,11.0,8.0,8.0,8.5,35.0,40.0,38.05259518088089
118,118,15.0,86.00581375697809,8.0,17.0,25.0,26.019223662515376,17.029386365926403,57.0087712549569,40.01249804748511,32.5,35.0,34.0,17.5,22.5,5.5,10.5,8.0,8.0,8.5,32.0,39.0,40.049968789001575
119,119,16.0,86.05230967266364,8.0,16.0,25.0,28.0,16.0312195418814,56.00892785976178,40.01249804748511,32.0,36.0,33.0,18.5,21.5,4.5,10.5,9.0,9.055385138137417,9.0,33.0,40.0,38.05259518088089
120,120,16.0,86.02325267042627,8.0,16.0,24.0,26.0,17.11724276862369,57.0350769263968,41.048751503547585,33.0,37.0,35.0,19.0,21.0,4.0,11.0,9.055385138137417,9.055385138137417,9.5,33.0,41.0,36.124783736376884
121,121,16.0312195418814,86.02325267042627,8.06225774829855,17.029386365926403,25.019992006393608,27.018512172212592,17.029386365926403,58.034472514187634,41.012193308819754,33.0,37.0,35.0,19.0,22.0,4.0,12.0,9.0,9.0,9.0,32.0,39.0,40.049968789001575
122,122,16.0312195418814,85.14693182963201,8.06225774829855,16.0312195418814,25.019992006393608,27.018512172212592,17.11724276862369,57.07889277132134,41.048751503547585,33.0,38.0,33.0,18.5,21.5,5.5,11.5,9.0,9.055385138137417,9.5,30.0,39.0,36.22154055254967
123,123,17.029386365926403,85.14693182963201,9.055385138137417,16.0312195418814,24.020824298928627,27.0,17.26267650163207,59.135437767890075,43.104524124504614,34.5,40.0,35.0,20.5,21.5,5.5,12.5,8.0,8.06225774829855,8.0,29.0,41.0,39.20459156782532
124,124,19.026297590440446,84.2140130857092,9.055385138137417,16.1245154965971,23.08679276123039,26.019223662515376,15.132745950421556,59.135437767890075,43.04648650006177,33.5,39.0,33.0,21.0,23.0,7.0,13.0,5.0,5.0990195135927845,5.5,31.0,42.0,41.30375285612676
125,125,20.0,87.36704184073076,9.055385138137417,15.033296378372908,24.020824298928627,26.076809620810597,15.297058540778355,59.21148537234985,44.181444068749045,34.0,41.0,33.0,22.0,22.0,7.0,14.0,4.123105625617661,5.0990195135927845,5.0,29.0,43.0,38.47076812334269
126,126,21.0,85.28774824088158,8.06225774829855,15.033296378372908,23.021728866442675,27.073972741361768,15.297058540778355,59.21148537234985,44.181444068749045,33.5,40.0,33.0,21.5,22.5,7.5,13.5,5.0990195135927845,4.123105625617661,4.5,31.0,45.0,37.33630940518894
127,127,21.0,81.39410298049853,8.246211251235321,16.1245154965971,23.08679276123039,26.1725046566048,16.0312195418814,61.204574992397426,45.09988913511872,34.5,42.0,34.0,22.0,23.0,7.0,16.0,3.605551275463989,4.0,4.0,28.0,43.0,37.48332962798263
128,128,24.020824298928627,82.38931969618392,7.0710678118654755,16.1245154965971,23.08679276123039,25.079872407968907,18.110770276274835,65.27633568147036,49.16299421312742,37.0,44.0,36.0,22.0,25.0,10.0,17.0,6.324555320336759,6.324555320336759,6.0,23.0,40.0,36.87817782917155
129,129,23.021728866442675,79.51100552753688,7.0710678118654755,15.132745950421556,22.090722034374522,24.186773244895647,18.24828759089466,63.387695966961914,48.25971404805462,36.5,43.0,34.0,20.5,24.5,9.5,14.5,8.06225774829855,7.280109889280518,7.0,25.0,41.0,38.8329756778952
130,130,24.020824298928627,81.30190649671138,7.0710678118654755,16.0312195418814,24.08318915758459,26.076809620810597,18.027756377319946,65.12296062065974,49.09175083453431,37.0,43.0,36.0,21.5,25.5,9.5,15.5,7.0710678118654755,8.246211251235321,7.5,23.0,39.0,39.81205847478876
131,131,19.026297590440446,83.38465086573187,7.0710678118654755,16.0312195418814,22.090722034374522,25.179356624028344,19.235384061671343,61.29437168288782,45.27692569068709,35.5,42.0,34.0,19.0,23.0,7.0,14.0,11.045361017187261,10.04987562112089,10.5,26.0,32.0,40.19950248448356
132,132,7.0710678118654755,77.23341245859851,9.055385138137417,15.0,20.024984394500787,21.02379604162864,21.095023109728988,52.15361924162119,37.21558813185679,33.5,39.0,33.0,15.0,16.0,1.0,7.0,10.0,12.0,12.0,28.0,34.0,43.18564576337837
133,133,10.04987562112089,83.38465086573187,8.06225774829855,15.033296378372908,23.194827009486403,26.1725046566048,17.11724276862369,50.24937810560445,35.22782990761707,30.0,38.0,30.0,17.0,16.0,1.0,11.0,8.06225774829855,9.055385138137417,9.0,27.0,46.0,38.63935817272331
134,134,11.0,83.38465086573187,8.06225774829855,15.033296378372908,24.08318915758459,25.079872407968907,17.26267650163207,51.24451190127583,36.22154055254967,30.5,39.0,31.0,18.0,16.0,1.0,11.0,8.06225774829855,9.055385138137417,8.5,27.0,45.0,36.6742416417845
135,135,11.0,82.38931969618392,7.0710678118654755,15.033296378372908,23.08679276123039,25.079872407968907,18.110770276274835,51.15662224971465,36.124783736376884,30.5,39.0,31.0,17.0,16.0,1.0,11.0,8.06225774829855,8.246211251235321,8.0,26.0,45.0,37.8549864614954
136,136,14.0,83.48652585896721,7.0710678118654755,16.0312195418814,24.08318915758459,25.179356624028344,17.11724276862369,54.147945482723536,38.118237105091836,31.0,40.0,31.0,18.5,18.5,3.5,12.5,8.06225774829855,9.055385138137417,9.0,26.0,44.0,37.8549864614954
137,137,19.0,83.48652585896721,7.0710678118654755,17.029386365926403,24.08318915758459,26.076809620810597,17.11724276862369,60.13318551349163,43.104524124504614,33.5,41.0,32.0,19.5,23.5,6.5,13.5,8.06225774829855,9.219544457292887,9.0,27.0,45.0,38.63935817272331
138,138,23.0,85.37564055396598,7.0710678118654755,16.0312195418814,25.079872407968907,28.160255680657446,16.1245154965971,62.12889826803627,46.09772228646444,34.5,39.0,31.0,19.0,27.0,11.0,13.0,9.055385138137417,9.055385138137417,9.0,26.0,44.0,38.47076812334269
139,139,22.02271554554524,86.28441342444185,8.06225774829855,15.033296378372908,24.08318915758459,27.16615541441225,15.132745950421556,60.207972893961475,45.17742799230607,34.0,38.0,31.0,19.5,25.5,10.5,13.5,8.06225774829855,8.06225774829855,8.5,26.0,44.0,38.47076812334269
140,140,22.02271554554524,86.37129152675674,7.0710678118654755,16.0312195418814,24.08318915758459,27.16615541441225,17.11724276862369,62.20128616033595,46.17358552246078,35.0,39.0,31.0,18.0,27.0,12.0,13.0,8.06225774829855,9.055385138137417,9.0,26.0,44.0,40.607881008493905
141,141,21.0,88.36288813749809,7.0710678118654755,15.033296378372908,25.079872407968907,27.073972741361768,16.278820596099706,59.21148537234985,44.181444068749045,33.5,38.0,30.0,18.0,25.0,10.0,12.0,9.055385138137417,9.219544457292887,9.0,27.0,43.0,36.6742416417845
142,142,19.0,87.28115489611719,7.0710678118654755,15.033296378372908,25.079872407968907,26.1725046566048,17.11724276862369,58.137767414994535,43.104524124504614,33.5,38.0,31.0,17.5,23.5,8.5,11.5,8.06225774829855,9.219544457292887,9.5,29.0,45.0,35.510561809129406
143,143,17.0,87.20665112249179,8.06225774829855,16.0312195418814,25.019992006393608,27.073972741361768,16.278820596099706,57.21887800367987,41.19465984809196,32.5,36.0,30.0,17.0,24.0,8.0,10.0,8.06225774829855,9.219544457292887,8.5,29.0,44.0,38.47076812334269
144,144,20.0,88.20430828479978,8.06225774829855,15.033296378372908,26.019223662515376,28.071337695236398,17.11724276862369,60.13318551349163,45.09988913511872,35.0,38.0,32.0,18.0,25.0,9.0,11.0,9.055385138137417,9.219544457292887,9.0,29.0,44.0,37.48332962798263
145,145,18.0,88.2779700718135,8.06225774829855,16.1245154965971,25.079872407968907,27.073972741361768,17.11724276862369,59.21148537234985,43.104524124504614,34.0,38.0,31.0,17.5,24.5,9.5,10.5,8.06225774829855,9.055385138137417,8.5,29.0,44.0,39.6232255123179
146,146,20.0,87.36704184073076,7.0710678118654755,17.029386365926403,24.08318915758459,26.076809620810597,17.26267650163207,61.204574992397426,44.181444068749045,34.0,38.0,30.0,17.0,27.0,10.0,11.0,7.0,8.06225774829855,8.0,27.0,42.0,39.20459156782532
147,147,19.0,89.20201791439474,8.06225774829855,17.029386365926403,24.08318915758459,26.076809620810597,18.24828759089466,62.20128616033595,45.17742799230607,35.5,38.0,32.0,17.0,27.0,10.0,11.0,9.055385138137417,10.198039027185569,9.5,31.0,44.0,35.510561809129406
148,148,10.04987562112089,83.15046602394962,8.06225774829855,14.035668847618199,23.021728866442675,25.079872407968907,18.110770276274835,50.08991914547278,36.05551275463989,31.0,37.0,32.0,16.5,15.5,1.5,9.5,9.219544457292887,9.055385138137417,8.5,29.0,44.0,37.48332962798263
149,149,10.04987562112089,82.09750300709517,8.06225774829855,14.035668847618199,23.021728866442675,24.020824298928627,18.027756377319946,50.039984012787215,36.013886210738214,31.0,36.0,32.0,16.0,16.0,1.0,9.0,10.04987562112089,10.198039027185569,9.5,29.0,44.0,37.48332962798263
150,150,12.0,81.09870529176159,7.0,16.0312195418814,23.0,25.079872407968907,18.027756377319946,53.03772242470448,37.013511046643494,31.0,37.0,33.0,17.0,18.0,2.0,10.0,8.0,9.219544457292887,9.0,30.0,44.0,41.19465984809196
151,151,13.0,82.15229759416349,7.0710678118654755,18.0,23.021728866442675,24.08318915758459,17.029386365926403,55.036351623268054,37.05401462729781,30.5,37.0,32.0,17.5,20.5,2.5,11.5,8.0,9.219544457292887,9.5,29.0,43.0,38.2099463490856
152,152,14.0,88.14193099768123,8.0,16.0,25.019992006393608,27.018512172212592,15.132745950421556,53.03772242470448,37.05401462729781,30.0,34.0,29.0,16.5,21.5,5.5,9.5,10.04987562112089,9.055385138137417,9.0,27.0,40.0,37.48332962798263
153,153,16.0312195418814,89.20201791439474,8.0,16.0312195418814,25.019992006393608,27.073972741361768,16.1245154965971,56.0357029044876,40.01249804748511,32.0,36.0,30.0,17.0,23.0,7.0,10.0,9.055385138137417,9.219544457292887,9.0,29.0,44.0,38.47076812334269
154,154,15.0,89.1403387922662,8.0,15.0,25.019992006393608,26.076809620810597,15.297058540778355,53.08483775994799,38.118237105091836,30.5,33.0,28.0,15.5,22.5,7.5,8.5,7.280109889280518,7.0710678118654755,7.0,30.0,43.0,37.33630940518894
155,155,16.0,89.27485648266257,8.0,14.035668847618199,24.08318915758459,25.079872407968907,15.297058540778355,53.150729063673246,39.11521443121589,31.0,34.0,27.0,15.5,22.5,7.5,8.5,9.219544457292887,8.0,8.0,28.0,42.0,37.33630940518894
156,156,15.0,90.19977827023745,8.0,15.033296378372908,24.08318915758459,26.1725046566048,15.297058540778355,53.150729063673246,38.118237105091836,30.5,32.0,26.0,14.0,24.0,8.0,8.0,10.04987562112089,9.055385138137417,9.5,28.0,43.0,38.3275357934736
157,157,13.0,91.26883367283708,8.0,16.0,26.076809620810597,28.071337695236398,17.11724276862369,54.037024344425184,38.05259518088089,31.5,33.0,26.0,12.5,24.5,8.5,6.5,8.06225774829855,8.06225774829855,8.0,28.0,43.0,36.345563690772494
158,158,13.0,91.26883367283708,9.055385138137417,16.0,27.073972741361768,28.160255680657446,16.1245154965971,54.08326913195984,38.118237105091836,31.5,33.0,26.0,13.5,24.5,7.5,6.5,9.055385138137417,8.06225774829855,8.0,29.0,45.0,39.319206502675
159,159,17.0,91.19758768739445,9.0,17.029386365926403,25.019992006393608,27.018512172212592,17.11724276862369,60.07495318350236,43.04648650006177,34.5,34.0,28.0,14.0,29.0,11.0,7.0,6.0,7.0,7.0,30.0,44.0,38.2099463490856
160,160,18.027756377319946,90.13878188659973,9.055385138137417,17.029386365926403,24.020824298928627,27.018512172212592,19.1049731745428,63.071388124885914,46.04345773288535,37.0,36.0,31.0,14.5,29.5,12.5,6.5,8.0,8.06225774829855,8.5,30.0,45.0,40.311288741492746
161,161,6.082762530298219,87.20665112249179,10.04987562112089,17.029386365926403,25.019992006393608,26.019223662515376,23.08679276123039,56.08029957123981,39.05124837953327,36.0,37.0,31.0,11.0,22.0,4.0,3.0,9.0,9.055385138137417,8.5,29.0,43.0,38.3275357934736
162,162,0.0,86.28441342444185,8.06225774829855,12.041594578792296,23.021728866442675,23.021728866442675,25.079872407968907,45.17742799230607,33.13608305156178,33.0,36.0,29.0,7.5,12.5,0.5,1.5,10.0,9.055385138137417,9.5,30.0,44.0,39.319206502675
163,163,1.4142135623730951,85.21150157109074,8.0,12.041594578792296,23.021728866442675,23.08679276123039,25.079872407968907,46.17358552246078,34.132096331752024,33.5,36.0,30.0,8.0,13.0,1.0,2.0,9.0,9.055385138137417,9.0,29.0,43.0,38.3275357934736
164,164,1.0,86.28441342444185,9.055385138137417,13.038404810405298,23.021728866442675,23.08679276123039,23.021728866442675,46.09772228646444,33.06055050963308,32.5,36.0,29.0,9.5,13.5,0.5,2.5,9.055385138137417,9.055385138137417,9.0,29.0,44.0,40.311288741492746
165,165,1.0,87.28115489611719,12.041594578792296,17.029386365926403,25.019992006393608,26.076809620810597,21.02379604162864,51.088159097779204,34.058772731852805,33.5,37.0,30.0,12.5,17.5,0.5,2.5,10.04987562112089,9.055385138137417,9.0,29.0,44.0,39.20459156782532
166,166,19.0,89.35882720806042,10.0,17.029386365926403,24.08318915758459,26.1725046566048,17.26267650163207,63.12685640834652,46.09772228646444,36.5,38.0,30.0,17.0,29.0,12.0,9.0,9.0,9.055385138137417,9.5,30.0,45.0,40.19950248448356
167,167,22.0,87.46427842267951,9.0,16.0312195418814,26.076809620810597,28.160255680657446,17.26267650163207,64.1248781675256,48.093658625644196,37.0,39.0,30.0,17.5,29.5,13.5,10.5,9.0,10.198039027185569,10.0,28.0,44.0,38.3275357934736
168,168,23.0,87.46427842267951,8.06225774829855,16.0,25.019992006393608,28.071337695236398,17.11724276862369,64.07027391856539,48.093658625644196,36.5,39.0,30.0,17.5,29.5,13.5,10.5,9.055385138137417,10.04987562112089,10.0,29.0,44.0,41.19465984809196
169,169,22.02271554554524,88.45903006477066,9.055385138137417,17.029386365926403,25.079872407968907,28.160255680657446,16.278820596099706,64.1248781675256,47.095647357266465,36.0,39.0,30.0,18.5,29.5,12.5,11.5,10.0,10.04987562112089,10.0,29.0,44.0,42.190046219457976
170,170,22.02271554554524,88.45903006477066,9.0,17.029386365926403,25.179356624028344,27.16615541441225,16.278820596099706,64.19501538281614,47.16990566028302,36.0,40.0,31.0,19.5,28.5,11.5,12.5,10.0,9.055385138137417,9.5,28.0,43.0,34.36568055487916
171,171,21.0,89.35882720806042,8.0,17.11724276862369,25.079872407968907,27.16615541441225,17.46424919657298,63.28506932918696,46.17358552246078,35.5,38.0,30.0,17.0,29.0,12.0,11.0,10.0,9.0,9.5,29.0,44.0,40.19950248448356
172,172,22.0,88.36288813749809,8.06225774829855,16.0,27.073972741361768,28.160255680657446,15.297058540778355,61.1310068623117,45.17742799230607,34.0,37.0,29.0,18.0,28.0,11.0,11.0,9.055385138137417,9.055385138137417,9.5,27.0,42.0,38.3275357934736
173,173,21.0,89.27485648266257,8.0,17.029386365926403,26.019223662515376,27.16615541441225,16.278820596099706,62.12889826803627,45.09988913511872,34.5,37.0,30.0,17.5,28.5,11.5,10.5,9.055385138137417,9.055385138137417,9.0,29.0,43.0,38.3275357934736
174,174,22.0,89.35882720806042,8.06225774829855,17.029386365926403,26.076809620810597,27.16615541441225,16.278820596099706,63.198101237299845,46.17358552246078,35.0,38.0,30.0,18.0,29.0,12.0,11.0,10.04987562112089,10.04987562112089,10.5,30.0,44.0,38.2099463490856
175,175,22.0,88.36288813749809,8.06225774829855,16.0312195418814,27.073972741361768,28.160255680657446,16.278820596099706,62.20128616033595,46.17358552246078,35.0,37.0,29.0,17.0,29.0,12.0,10.0,10.04987562112089,8.06225774829855,8.5,27.0,41.0,38.47076812334269
176,176,23.0,88.36288813749809,8.0,16.0312195418814,25.079872407968907,27.16615541441225,16.492422502470642,63.198101237299845,47.16990566028302,35.5,38.0,30.0,18.0,29.0,13.0,11.0,8.0,9.055385138137417,8.5,29.0,43.0,37.33630940518894
177,177,23.0,89.45389874119518,8.06225774829855,17.029386365926403,25.079872407968907,27.16615541441225,16.492422502470642,64.28063471995279,47.265209192385896,35.5,39.0,30.0,18.5,29.5,12.5,11.5,9.055385138137417,10.198039027185569,9.5,30.0,44.0,40.311288741492746
178,178,27.0,87.46427842267951,8.06225774829855,15.033296378372908,25.079872407968907,28.071337695236398,17.11724276862369,67.11929677819934,52.08646657242167,38.5,41.0,32.0,19.5,30.5,15.5,12.5,9.0,9.055385138137417,9.0,28.0,42.0,39.45883931389772
179,179,26.0,89.45389874119518,7.0710678118654755,16.0312195418814,26.076809620810597,28.160255680657446,17.11724276862369,66.12110101926616,50.08991914547278,37.0,40.0,31.0,18.5,30.5,14.5,12.5,9.055385138137417,9.055385138137417,9.0,28.0,44.0,39.319206502675
180,180,21.0,88.45903006477066,8.06225774829855,16.0312195418814,25.079872407968907,28.071337695236398,16.1245154965971,61.1310068623117,45.09988913511872,34.5,39.0,30.0,18.5,26.5,11.5,11.5,8.246211251235321,8.246211251235321,8.0,28.0,43.0,36.49657518178932
181,181,19.0,88.68483523128404,8.06225774829855,15.132745950421556,27.16615541441225,28.284271247461902,16.1245154965971,58.215118311311535,43.104524124504614,33.5,41.0,30.0,19.5,22.5,7.5,13.5,7.0710678118654755,7.0710678118654755,7.0,28.0,44.0,34.52535300326414
182,182,20.0,87.5728268357257,8.06225774829855,15.132745950421556,25.079872407968907,27.16615541441225,15.132745950421556,58.215118311311535,43.104524124504614,33.0,40.0,30.0,20.0,23.0,8.0,13.0,6.082762530298219,6.324555320336759,6.0,27.0,43.0,34.713109915419565
183,183,16.0312195418814,86.46964785403026,8.06225774829855,15.033296378372908,22.090722034374522,24.08318915758459,17.029386365926403,56.142675390472796,41.10960958218893,33.0,39.0,30.0,17.5,21.5,6.5,10.5,7.280109889280518,5.0990195135927845,5.5,28.0,43.0,37.33630940518894
184,184,17.029386365926403,87.69264507357501,8.06225774829855,15.033296378372908,24.08318915758459,26.1725046566048,16.1245154965971,56.22277118748239,41.19465984809196,32.5,40.0,29.0,18.5,21.5,6.5,12.5,6.324555320336759,6.082762530298219,6.0,27.0,40.0,34.23448553724738
185,185,17.0,87.5728268357257,9.055385138137417,16.1245154965971,25.079872407968907,27.16615541441225,16.1245154965971,58.215118311311535,42.1070065428546,33.5,41.0,31.0,20.0,22.0,6.0,13.0,5.385164807134504,5.0990195135927845,4.5,28.0,43.0,34.52535300326414
186,186,20.0,85.58621384311844,9.055385138137417,16.1245154965971,25.079872407968907,26.1725046566048,15.132745950421556,60.207972893961475,44.10215414239989,34.0,40.0,30.0,20.0,25.0,9.0,12.0,6.082762530298219,5.0990195135927845,5.5,28.0,43.0,37.48332962798263
187,187,20.0,85.58621384311844,9.055385138137417,15.033296378372908,24.08318915758459,26.1725046566048,16.278820596099706,60.207972893961475,45.17742799230607,35.0,41.0,31.0,20.0,24.0,9.0,13.0,6.082762530298219,7.0710678118654755,6.5,27.0,43.0,35.510561809129406
188,188,18.027756377319946,86.46964785403026,8.06225774829855,16.1245154965971,25.079872407968907,27.073972741361768,16.1245154965971,58.137767414994535,42.04759208325728,33.0,39.0,30.0,18.5,23.5,7.5,11.5,9.055385138137417,8.06225774829855,8.5,26.0,43.0,34.36568055487916
189,189,15.0,86.46964785403026,9.055385138137417,15.033296378372908,26.076809620810597,28.160255680657446,14.142135623730951,53.150729063673246,38.118237105091836,30.5,37.0,28.0,18.5,20.5,5.5,10.5,9.055385138137417,9.219544457292887,8.5,29.0,44.0,38.47076812334269
190,190,14.0,87.46427842267951,9.0,14.035668847618199,26.076809620810597,28.160255680657446,15.297058540778355,52.15361924162119,38.118237105091836,31.0,37.0,28.0,17.5,19.5,5.5,10.5,10.04987562112089,10.04987562112089,9.5,27.0,43.0,36.49657518178932
191,191,15.0,88.45903006477066,8.0,14.142135623730951,26.1725046566048,28.071337695236398,16.1245154965971,53.150729063673246,39.05124837953327,31.5,38.0,29.0,17.5,19.5,5.5,11.5,8.06225774829855,9.219544457292887,8.5,28.0,45.0,36.49657518178932
192,192,15.0,88.36288813749809,9.055385138137417,14.035668847618199,25.079872407968907,28.160255680657446,15.033296378372908,53.08483775994799,39.05124837953327,31.5,37.0,29.0,18.0,20.0,6.0,10.0,9.055385138137417,9.055385138137417,9.5,29.0,46.0,33.54101966249684
193,193,19.026297590440446,85.28774824088158,8.06225774829855,16.0312195418814,24.186773244895647,26.1725046566048,16.1245154965971,59.07622195096772,43.04648650006177,33.5,38.0,31.0,18.5,24.5,8.5,12.5,9.055385138137417,10.198039027185569,9.5,30.0,47.0,34.713109915419565
194,194,16.0312195418814,84.38009243891595,8.06225774829855,16.0312195418814,23.08679276123039,25.079872407968907,17.11724276862369,57.07889277132134,41.048751503547585,33.0,38.0,30.0,17.0,23.0,8.0,10.0,8.06225774829855,9.219544457292887,9.0,28.0,44.0,37.21558813185679
195,195,8.0,82.21921916437786,9.0,14.035668847618199,23.021728866442675,25.179356624028344,20.09975124224178,51.088159097779204,37.05401462729781,33.0,37.0,31.0,14.0,17.0,2.0,6.0,8.06225774829855,9.219544457292887,9.0,29.0,45.0,35.35533905932738
196,196,1.0,81.2219182240853,10.04987562112089,14.035668847618199,23.08679276123039,24.08318915758459,23.021728866442675,48.093658625644196,34.058772731852805,33.5,37.0,31.0,11.0,14.0,0.0,3.0,9.055385138137417,9.219544457292887,9.0,30.0,46.0,34.52535300326414
197,197,2.0,82.29823813423954,10.04987562112089,14.035668847618199,23.08679276123039,24.08318915758459,22.02271554554524,48.093658625644196,34.058772731852805,33.0,38.0,31.0,12.5,13.5,1.5,4.5,9.055385138137417,10.198039027185569,9.5,30.0,46.0,35.510561809129406
198,198,1.0,85.37564055396598,11.045361017187261,16.0312195418814,24.08318915758459,25.079872407968907,23.08679276123039,51.15662224971465,35.12833614050059,34.5,39.0,31.0,12.0,16.0,0.0,3.0,9.0,9.219544457292887,9.5,28.0,42.0,36.6742416417845
199,199,17.0,85.28774824088158,9.055385138137417,16.0,24.020824298928627,26.076809620810597,19.1049731745428,61.07372593840988,45.09988913511872,36.5,39.0,32.0,16.5,25.5,9.5,8.5,9.0,9.055385138137417,8.5,27.0,42.0,38.3275357934736
200,200,20.0,88.36288813749809,8.06225774829855,16.0312195418814,25.079872407968907,27.16615541441225,18.110770276274835,62.12889826803627,46.09772228646444,36.0,39.0,31.0,17.0,27.0,11.0,10.0,9.0,9.055385138137417,9.0,27.0,41.0,39.319206502675
201,201,20.0,87.28115489611719,8.06225774829855,16.0312195418814,24.08318915758459,26.076809620810597,17.029386365926403,61.07372593840988,45.044422518220834,35.0,39.0,32.0,18.5,25.5,9.5,11.5,8.0,8.246211251235321,8.0,27.0,41.0,37.33630940518894
202,202,18.027756377319946,87.36704184073076,8.06225774829855,15.033296378372908,25.019992006393608,26.076809620810597,17.029386365926403,58.034472514187634,43.01162633521314,34.0,39.0,31.0,18.0,23.0,8.0,11.0,8.06225774829855,9.055385138137417,9.0,28.0,42.0,40.19950248448356
203,203,14.0,85.21150157109074,8.0,18.027756377319946,26.076809620810597,27.018512172212592,16.278820596099706,56.142675390472796,38.118237105091836,31.0,37.0,31.0,18.0,22.0,4.0,11.0,8.0,8.06225774829855,8.5,29.0,43.0,38.3275357934736
204,204,13.0,82.21921916437786,7.0,16.0,25.019992006393608,26.076809620810597,18.110770276274835,54.037024344425184,38.05259518088089,31.5,37.0,31.0,16.0,20.0,3.0,10.0,9.0,9.055385138137417,9.5,28.0,42.0,35.35533905932738
205,205,10.0,82.21921916437786,9.055385138137417,17.029386365926403,23.021728866442675,25.079872407968907,17.029386365926403,53.08483775994799,36.05551275463989,31.0,37.0,31.0,17.0,19.0,2.0,9.0,8.0,8.06225774829855,8.0,29.0,42.0,35.22782990761707
206,206,10.0,82.15229759416349,9.0,17.029386365926403,24.020824298928627,26.076809620810597,17.26267650163207,53.150729063673246,36.124783736376884,31.0,36.0,31.0,16.5,19.5,2.5,8.5,7.0710678118654755,8.06225774829855,8.0,29.0,42.0,35.22782990761707
207,207,11.0,81.15417426109393,8.0,17.029386365926403,24.08318915758459,25.079872407968907,18.110770276274835,54.08326913195984,37.05401462729781,31.5,37.0,32.0,16.5,19.5,1.5,9.5,9.055385138137417,9.055385138137417,9.0,27.0,42.0,35.22782990761707
208,208,19.0,84.29116205154607,8.06225774829855,18.027756377319946,24.08318915758459,26.1725046566048,16.0312195418814,61.07372593840988,43.04648650006177,33.5,39.0,32.0,19.5,25.5,7.5,12.5,9.0,8.06225774829855,8.5,27.0,42.0,37.33630940518894
209,209,23.021728866442675,84.38009243891595,8.06225774829855,17.029386365926403,24.08318915758459,26.1725046566048,17.11724276862369,65.06919393998976,48.041648597857254,36.5,40.0,32.0,19.0,29.0,12.0,12.0,9.0,9.055385138137417,9.0,29.0,44.0,37.33630940518894
210,210,25.0,87.36704184073076,8.06225774829855,17.029386365926403,25.079872407968907,27.073972741361768,17.11724276862369,67.11929677819934,50.08991914547278,37.5,42.0,34.0,21.0,29.0,12.0,14.0,5.0,6.082762530298219,5.5,27.0,42.0,37.33630940518894
211,211,25.0,87.46427842267951,9.055385138137417,17.029386365926403,25.079872407968907,28.160255680657446,16.1245154965971,67.11929677819934,50.08991914547278,37.5,41.0,32.0,20.5,30.5,13.5,13.5,6.082762530298219,6.082762530298219,6.0,29.0,43.0,36.345563690772494
212,212,26.0,87.36704184073076,8.06225774829855,17.029386365926403,25.079872407968907,28.160255680657446,17.11724276862369,68.11754546370561,51.088159097779204,38.0,42.0,34.0,21.0,30.0,13.0,14.0,5.0990195135927845,5.0990195135927845,5.0,28.0,43.0,40.19950248448356
213,213,17.0,89.27485648266257,8.06225774829855,15.033296378372908,25.079872407968907,27.16615541441225,17.11724276862369,57.14017850864661,42.1070065428546,33.5,38.0,31.0,17.5,22.5,7.5,10.5,5.0990195135927845,5.0990195135927845,5.0,30.0,44.0,35.510561809129406
214,214,13.038404810405298,88.2779700718135,9.055385138137417,16.0312195418814,25.079872407968907,27.073972741361768,17.11724276862369,55.08175741568164,39.05124837953327,32.5,37.0,30.0,16.5,21.5,5.5,8.5,5.0990195135927845,5.0990195135927845,5.0,29.0,44.0,33.734255586866
215,215,8.06225774829855,85.28774824088158,9.055385138137417,15.033296378372908,24.020824298928627,25.079872407968907,20.09975124224178,52.08646657242167,37.05401462729781,33.0,37.0,30.0,13.5,18.5,3.5,5.5,7.280109889280518,7.280109889280518,6.5,30.0,45.0,36.6742416417845
216,216,8.06225774829855,84.29116205154607,10.04987562112089,16.0312195418814,23.021728866442675,25.019992006393608,19.1049731745428,53.08483775994799,37.05401462729781,33.0,37.0,30.0,14.5,19.5,3.5,5.5,7.0710678118654755,6.082762530298219,6.0,30.0,46.0,35.510561809129406
217,217,3.0,82.29823813423954,9.055385138137417,15.033296378372908,23.08679276123039,25.079872407968907,23.021728866442675,50.08991914547278,35.05709628591621,33.5,37.0,30.0,10.5,16.5,1.5,3.5,7.280109889280518,7.0710678118654755,7.0,30.0,46.0,36.6742416417845
218,218,8.0,88.2779700718135,9.055385138137417,16.0312195418814,24.08318915758459,26.076809620810597,22.02271554554524,55.08175741568164,39.05124837953327,35.0,37.0,30.0,11.5,21.5,5.5,4.5,7.280109889280518,6.082762530298219,6.0,30.0,45.0,33.54101966249684
219,219,15.033296378372908,87.36704184073076,9.055385138137417,15.033296378372908,24.020824298928627,26.1725046566048,18.24828759089466,57.14017850864661,42.1070065428546,34.5,37.0,29.0,15.0,24.0,9.0,7.0,7.0710678118654755,7.0710678118654755,6.0,30.0,46.0,36.6742416417845
220,220,16.0,88.36288813749809,9.055385138137417,16.0312195418814,25.079872407968907,27.16615541441225,16.1245154965971,57.14017850864661,41.10960958218893,33.0,36.0,28.0,16.0,25.0,8.0,8.0,7.0710678118654755,8.246211251235321,7.5,31.0,47.0,38.63935817272331
221,221,15.0,89.35882720806042,9.055385138137417,16.0312195418814,25.079872407968907,27.16615541441225,16.1245154965971,56.142675390472796,40.11234224026316,32.5,36.0,28.0,16.0,24.0,9.0,9.0,8.246211251235321,7.0710678118654755,7.0,29.0,45.0,39.6232255123179
222,222,15.0,88.56635930193812,9.055385138137417,16.1245154965971,24.186773244895647,26.1725046566048,17.26267650163207,57.3149195236284,41.19465984809196,33.5,38.0,28.0,16.0,24.0,8.0,9.0,8.06225774829855,7.280109889280518,7.5,29.0,43.0,44.721359549995796
223,223,14.0,89.67719888578144,9.055385138137417,16.1245154965971,24.08318915758459,27.16615541441225,17.26267650163207,56.32051136131489,40.19950248448356,33.0,38.0,27.0,15.5,23.5,7.5,8.5,9.055385138137417,9.055385138137417,8.5,27.0,44.0,37.656340767525464
224,224,19.0,86.70063436907483,9.055385138137417,16.1245154965971,26.076809620810597,28.160255680657446,16.1245154965971,60.207972893961475,44.10215414239989,34.5,40.0,29.0,18.5,25.5,9.5,10.5,8.06225774829855,9.219544457292887,8.5,26.0,42.0,40.44749683231337
225,225,18.0,87.5728268357257,9.055385138137417,16.1245154965971,25.079872407968907,27.16615541441225,17.11724276862369,60.207972893961475,44.10215414239989,35.0,38.0,28.0,16.0,27.0,11.0,9.0,9.219544457292887,9.219544457292887,8.5,27.0,43.0,39.319206502675
226,226,20.0,88.68483523128404,8.06225774829855,16.1245154965971,25.079872407968907,26.1725046566048,17.26267650163207,61.29437168288782,45.17742799230607,35.0,39.0,28.0,16.5,27.5,12.5,9.5,9.055385138137417,9.219544457292887,9.0,27.0,43.0,41.43669871020132
227,227,20.024984394500787,86.70063436907483,8.06225774829855,15.132745950421556,26.1725046566048,27.16615541441225,15.132745950421556,58.309518948453004,43.18564576337837,33.0,39.0,28.0,18.5,24.5,9.5,12.5,10.04987562112089,9.219544457292887,9.5,28.0,45.0,40.44749683231337
228,228,16.0312195418814,83.60023923410746,8.06225774829855,17.029386365926403,23.08679276123039,24.331050121192877,16.1245154965971,57.21887800367987,40.19950248448356,32.0,41.0,31.0,20.0,21.0,5.0,14.0,9.219544457292887,10.04987562112089,10.0,27.0,44.0,38.63935817272331
229,229,12.041594578792296,84.71717653463199,8.06225774829855,17.11724276862369,22.20360331117452,24.331050121192877,19.1049731745428,56.32051136131489,39.20459156782532,33.0,39.0,28.0,14.5,22.5,6.5,8.5,10.04987562112089,10.198039027185569,10.0,27.0,44.0,40.44749683231337
230,230,15.033296378372908,83.72574275573791,8.06225774829855,17.029386365926403,23.194827009486403,25.179356624028344,16.278820596099706,56.32051136131489,39.319206502675,31.5,41.0,30.0,19.5,20.5,4.5,13.5,10.04987562112089,10.198039027185569,9.5,27.0,45.0,39.6232255123179
231,231,17.0,83.72574275573791,8.06225774829855,16.0312195418814,24.08318915758459,26.1725046566048,14.317821063276353,55.226805085936306,39.20459156782532,30.5,40.0,29.0,20.5,20.5,4.5,14.5,10.04987562112089,10.04987562112089,10.0,27.0,45.0,38.63935817272331
232,232,16.0312195418814,81.61494961096282,8.06225774829855,17.029386365926403,23.194827009486403,24.186773244895647,15.524174696260024,56.43580423808985,39.45883931389772,31.0,40.0,30.0,20.0,21.0,5.0,15.0,10.198039027185569,11.180339887498949,10.5,28.0,45.0,35.510561809129406
233,233,15.0,82.49242389456137,8.0,17.029386365926403,25.079872407968907,26.1725046566048,15.297058540778355,55.14526271584895,38.118237105091836,30.5,39.0,30.0,19.5,20.5,3.5,13.5,9.219544457292887,9.055385138137417,9.0,27.0,44.0,34.713109915419565
234,234,15.033296378372908,82.49242389456137,8.06225774829855,17.11724276862369,25.079872407968907,27.16615541441225,15.297058540778355,55.226805085936306,38.118237105091836,30.5,39.0,30.0,19.5,20.5,4.5,12.5,11.045361017187261,10.198039027185569,9.5,27.0,45.0,38.63935817272331
235,235,15.0,83.48652585896721,8.06225774829855,18.027756377319946,25.079872407968907,26.1725046566048,15.132745950421556,56.142675390472796,38.118237105091836,30.5,39.0,30.0,19.5,21.5,4.5,12.5,10.04987562112089,10.44030650891055,9.5,27.0,45.0,38.63935817272331
236,236,15.0,82.49242389456137,8.0,16.0312195418814,24.186773244895647,25.317977802344327,16.278820596099706,55.14526271584895,39.11521443121589,31.5,40.0,31.0,19.5,19.5,3.5,13.5,10.04987562112089,10.198039027185569,10.0,27.0,44.0,38.63935817272331
237,237,13.0,79.40403012442127,8.06225774829855,16.0312195418814,22.090722034374522,24.186773244895647,18.24828759089466,55.226805085936306,39.20459156782532,32.5,40.0,32.0,18.0,19.0,3.0,12.0,10.0,10.44030650891055,10.0,29.0,43.0,41.593268686170845
238,238,8.0,77.41446893184762,8.06225774829855,17.029386365926403,20.09975124224178,22.090722034374522,19.235384061671343,52.23983154643591,35.22782990761707,31.0,39.0,31.0,16.0,17.0,0.0,9.0,8.06225774829855,7.0710678118654755,7.0,31.0,47.0,34.713109915419565
239,239,9.055385138137417,78.5175139698144,8.06225774829855,17.029386365926403,21.213203435596427,23.194827009486403,19.235384061671343,53.33854141237835,36.345563690772494,31.5,40.0,31.0,16.5,17.5,0.5,10.5,8.0,7.280109889280518,7.0,28.0,36.0,35.12833614050059
240,240,9.055385138137417,77.41446893184762,8.06225774829855,17.029386365926403,21.095023109728988,22.20360331117452,20.223748416156685,54.3323108288245,37.33630940518894,32.5,40.0,32.0,16.0,18.0,1.0,10.0,9.055385138137417,8.06225774829855,8.0,25.0,32.0,34.0147027033899
241,241,12.0,77.41446893184762,8.0,17.029386365926403,21.095023109728988,23.08679276123039,18.24828759089466,55.14526271584895,38.118237105091836,32.0,41.0,33.0,19.0,18.0,1.0,12.0,7.0710678118654755,7.0710678118654755,6.5,30.0,46.0,30.805843601498726
242,242,13.0,79.51100552753688,9.055385138137417,18.027756377319946,21.213203435596427,23.194827009486403,17.26267650163207,57.21887800367987,39.20459156782532,32.5,41.0,32.0,19.5,20.5,2.5,12.5,8.0,8.246211251235321,8.0,29.0,38.0,36.22154055254967
243,243,12.041594578792296,78.5175139698144,9.0,17.0,21.095023109728988,23.194827009486403,19.235384061671343,57.14017850864661,40.19950248448356,34.0,41.0,32.0,17.5,20.5,3.5,10.5,7.0710678118654755,6.082762530298219,6.5,27.0,42.0,35.35533905932738
244,244,14.0,81.49846624323675,8.06225774829855,17.029386365926403,22.090722034374522,24.186773244895647,17.26267650163207,56.22277118748239,39.20459156782532,32.0,40.0,31.0,18.5,20.5,4.5,11.5,8.06225774829855,8.06225774829855,7.5,28.0,44.0,36.49657518178932
245,245,11.0,80.50465825031493,8.06225774829855,17.029386365926403,21.095023109728988,22.360679774997898,21.213203435596427,57.21887800367987,40.19950248448356,34.5,40.0,31.0,14.5,21.5,4.5,8.5,7.0710678118654755,7.0710678118654755,7.5,28.0,43.0,38.3275357934736
246,246,13.0,80.50465825031493,9.0,16.0312195418814,22.090722034374522,24.186773244895647,16.278820596099706,54.147945482723536,38.118237105091836,31.5,40.0,31.0,19.5,18.5,3.5,12.5,8.0,8.06225774829855,8.5,27.0,43.0,39.45883931389772
247,247,14.0,80.50465825031493,8.06225774829855,16.0312195418814,23.08679276123039,25.179356624028344,15.132745950421556,53.150729063673246,37.12142238654117,30.0,39.0,30.0,19.5,18.5,3.5,12.5,8.0,8.246211251235321,8.5,29.0,44.0,38.63935817272331
248,248,10.0,75.4254598925323,10.04987562112089,17.029386365926403,21.095023109728988,22.360679774997898,18.110770276274835,55.14526271584895,38.118237105091836,33.0,40.0,32.0,18.0,19.0,2.0,10.0,9.055385138137417,8.246211251235321,8.5,27.0,42.0,38.47076812334269
249,249,7.0710678118654755,74.54528824815154,11.045361017187261,18.027756377319946,21.095023109728988,23.194827009486403,20.09975124224178,56.22277118748239,38.2099463490856,34.5,41.0,32.0,16.5,19.5,1.5,7.5,9.055385138137417,9.055385138137417,8.5,28.0,44.0,40.311288741492746
250,250,5.0990195135927845,69.58448102845921,11.045361017187261,18.110770276274835,20.09975124224178,22.20360331117452,22.090722034374522,56.32051136131489,38.2099463490856,35.5,44.0,35.0,17.5,16.5,1.5,8.5,9.055385138137417,9.219544457292887,9.0,28.0,44.0,38.47076812334269
251,251,6.082762530298219,69.72087205421343,11.045361017187261,18.110770276274835,21.095023109728988,22.360679774997898,20.09975124224178,55.326304774492215,37.21558813185679,34.0,44.0,34.0,19.0,16.0,2.0,10.0,10.198039027185569,10.04987562112089,9.5,28.0,44.0,37.48332962798263
252,252,7.0710678118654755,76.79192665899195,11.045361017187261,18.027756377319946,22.20360331117452,24.186773244895647,20.09975124224178,56.22277118748239,38.2099463490856,34.5,44.0,33.0,18.5,17.5,0.5,9.5,9.055385138137417,9.219544457292887,9.0,28.0,44.0,39.45883931389772
253,253,9.0,75.8023746329889,10.04987562112089,18.110770276274835,21.095023109728988,24.186773244895647,19.1049731745428,56.22277118748239,38.118237105091836,33.5,44.0,33.0,19.5,17.5,0.5,10.5,8.06225774829855,8.246211251235321,8.5,27.0,44.0,40.607881008493905
254,254,12.041594578792296,80.62257748298549,9.055385138137417,18.027756377319946,22.090722034374522,24.186773244895647,19.1049731745428,58.215118311311535,40.19950248448356,34.0,44.0,34.0,20.0,19.0,2.0,12.0,9.055385138137417,9.219544457292887,8.5,27.0,44.0,43.56604182158393
255,255,16.0312195418814,81.88406438373708,8.06225774829855,17.11724276862369,23.08679276123039,25.317977802344327,18.110770276274835,59.30430001273095,42.190046219457976,34.0,45.0,33.0,21.0,20.0,4.0,14.0,9.055385138137417,9.219544457292887,9.0,27.0,44.0,44.40720662234904
256,256,19.026297590440446,84.48076704197234,8.06225774829855,16.0312195418814,24.186773244895647,26.30589287593181,17.11724276862369,60.207972893961475,44.181444068749045,34.5,42.0,33.0,20.5,22.5,7.5,14.5,10.04987562112089,9.219544457292887,9.0,27.0,44.0,44.40720662234904
257,257,23.021728866442675,86.46964785403026,8.06225774829855,15.132745950421556,25.079872407968907,26.1725046566048,16.278820596099706,62.39390995922599,47.265209192385896,35.5,40.0,31.0,19.5,26.5,11.5,13.5,9.219544457292887,9.219544457292887,9.5,27.0,42.0,40.607881008493905
258,258,22.02271554554524,85.47514258543241,8.246211251235321,15.132745950421556,22.090722034374522,25.179356624028344,18.110770276274835,63.387695966961914,48.25971404805462,37.0,41.0,32.0,18.5,26.5,11.5,12.5,9.055385138137417,10.198039027185569,9.5,27.0,43.0,38.47076812334269
259,259,26.0,87.46427842267951,7.0710678118654755,16.1245154965971,25.079872407968907,27.16615541441225,15.297058540778355,64.28063471995279,48.16637831516918,35.0,41.0,32.0,21.5,27.5,12.5,15.5,10.04987562112089,10.198039027185569,10.0,28.0,43.0,39.6232255123179
260,260,24.0,89.27485648266257,8.06225774829855,17.11724276862369,27.018512172212592,29.068883707497267,15.132745950421556,64.19501538281614,47.095647357266465,35.0,40.0,33.0,21.5,27.5,10.5,14.5,9.0,10.04987562112089,10.0,30.0,43.0,45.39823785126467
261,261,26.0,90.19977827023745,7.0710678118654755,15.033296378372908,27.073972741361768,29.068883707497267,15.132745950421556,63.12685640834652,48.093658625644196,35.0,39.0,33.0,21.0,27.0,12.0,15.0,9.0,10.198039027185569,9.5,31.0,45.0,37.656340767525464
262,262,22.02271554554524,89.27485648266257,7.0710678118654755,16.0312195418814,26.076809620810597,29.068883707497267,14.142135623730951,59.07622195096772,43.04648650006177,32.0,38.0,31.0,20.5,24.5,8.5,14.5,9.0,9.055385138137417,9.5,29.0,43.0,40.44749683231337
263,263,20.0,87.20665112249179,8.06225774829855,17.0,26.019223662515376,28.0178514522438,14.035668847618199,59.033888572581766,42.04759208325728,32.0,38.0,32.0,21.0,24.0,7.0,14.0,8.06225774829855,9.055385138137417,8.5,28.0,41.0,39.319206502675
264,264,19.0,88.2779700718135,7.0710678118654755,16.0312195418814,27.018512172212592,29.068883707497267,15.033296378372908,57.07889277132134,41.048751503547585,31.5,38.0,31.0,19.5,22.5,6.5,13.5,9.055385138137417,9.055385138137417,9.0,27.0,41.0,40.44749683231337
265,265,17.029386365926403,86.14522621712709,7.0710678118654755,16.0312195418814,26.019223662515376,28.071337695236398,15.132745950421556,55.08175741568164,39.05124837953327,30.5,37.0,32.0,19.5,20.5,4.5,14.5,8.0,9.219544457292887,9.0,27.0,41.0,41.593268686170845
266,266,18.0,86.20904824900923,7.0,16.0,26.019223662515376,28.071337695236398,15.132745950421556,56.0357029044876,40.049968789001575,31.0,38.0,32.0,20.0,21.0,5.0,14.0,9.0,10.04987562112089,10.0,28.0,41.0,38.3275357934736
267,267,15.0,87.14355971613737,8.0,16.0,25.0,28.0178514522438,15.297058540778355,54.08326913195984,38.118237105091836,30.5,37.0,32.0,19.5,19.5,3.5,12.5,9.055385138137417,8.06225774829855,8.5,28.0,42.0,37.48332962798263
268,268,15.033296378372908,88.14193099768123,8.06225774829855,16.0,26.0,28.0178514522438,15.132745950421556,54.037024344425184,38.05259518088089,30.5,36.0,31.0,18.5,20.5,4.5,11.5,9.0,10.04987562112089,9.5,28.0,41.0,39.45883931389772
269,269,16.0,87.14355971613737,8.0,15.033296378372908,26.019223662515376,28.071337695236398,14.142135623730951,53.08483775994799,38.05259518088089,30.0,36.0,31.0,19.5,19.5,4.5,12.5,8.06225774829855,9.055385138137417,9.0,29.0,42.0,38.47076812334269
270,270,15.033296378372908,87.14355971613737,7.0710678118654755,15.033296378372908,26.019223662515376,28.071337695236398,16.1245154965971,53.08483775994799,38.05259518088089,30.5,37.0,32.0,18.5,18.5,3.5,12.5,8.06225774829855,9.055385138137417,9.0,28.0,41.0,39.45883931389772
271,271,14.0,86.14522621712709,7.0710678118654755,15.033296378372908,26.019223662515376,27.073972741361768,16.1245154965971,52.15361924162119,37.12142238654117,30.0,36.0,31.0,17.5,18.5,3.5,11.5,9.0,9.055385138137417,9.0,29.0,42.0,38.47076812334269
272,272,9.0,88.20430828479978,9.055385138137417,14.035668847618199,25.079872407968907,27.018512172212592,16.1245154965971,48.16637831516918,34.132096331752024,29.5,34.0,28.0,15.0,17.0,3.0,8.0,9.0,9.055385138137417,9.5,28.0,42.0,39.45883931389772
273,273,10.0,88.20430828479978,9.0,13.038404810405298,26.019223662515376,27.073972741361768,17.11724276862369,49.09175083453431,36.05551275463989,31.0,35.0,29.0,15.0,17.0,3.0,7.0,9.0,9.055385138137417,9.0,30.0,44.0,36.49657518178932
274,274,7.0,86.14522621712709,9.0,13.0,25.019992006393608,26.019223662515376,18.110770276274835,47.042533945356304,34.058772731852805,30.5,34.0,29.0,13.5,15.5,1.5,6.5,8.0,9.055385138137417,9.0,30.0,42.0,36.345563690772494
275,275,1.0,86.20904824900923,11.045361017187261,15.033296378372908,26.076809620810597,26.019223662515376,18.110770276274835,45.17742799230607,30.14962686336267,29.5,34.0,28.0,13.0,14.0,1.0,4.0,8.06225774829855,8.06225774829855,8.5,29.0,41.0,36.345563690772494
276,276,1.0,86.14522621712709,11.045361017187261,14.035668847618199,25.019992006393608,25.019992006393608,19.026297590440446,45.09988913511872,31.064449134018133,30.5,34.0,29.0,12.5,13.5,1.5,2.5,9.055385138137417,9.055385138137417,9.5,30.0,42.0,36.345563690772494
277,277,1.0,86.14522621712709,11.0,13.038404810405298,25.079872407968907,25.019992006393608,18.110770276274835,43.104524124504614,30.066592756745816,29.5,33.0,28.0,12.5,12.5,1.5,3.5,9.055385138137417,9.055385138137417,9.0,29.0,41.0,36.49657518178932
278,278,1.0,85.09406559801923,11.045361017187261,13.038404810405298,24.020824298928627,25.019992006393608,20.09975124224178,43.18564576337837,30.14962686336267,30.5,33.0,29.0,11.0,12.0,1.0,2.0,9.0,10.04987562112089,9.5,28.0,41.0,41.30375285612676
279,279,0.0,85.09406559801923,11.0,13.038404810405298,25.019992006393608,25.079872407968907,20.09975124224178,44.10215414239989,31.064449134018133,31.0,33.0,29.0,11.0,13.0,0.0,2.0,9.0,9.055385138137417,8.5,29.0,41.0,36.49657518178932
280,280,0.0,88.14193099768123,10.04987562112089,13.0,25.019992006393608,26.019223662515376,20.09975124224178,43.104524124504614,30.14962686336267,30.0,33.0,28.0,10.5,12.5,1.5,1.5,9.055385138137417,9.055385138137417,9.0,30.0,41.0,35.510561809129406
281,281,0.0,87.09190547921202,11.0,13.038404810405298,25.079872407968907,26.076809620810597,20.09975124224178,44.10215414239989,31.064449134018133,31.0,33.0,29.0,11.0,13.0,1.0,2.0,9.0,10.04987562112089,10.0,30.0,41.0,37.33630940518894
282,282,1.0,88.09086218218096,11.045361017187261,13.038404810405298,25.019992006393608,26.019223662515376,19.026297590440446,43.04648650006177,30.01666203960727,30.0,32.0,28.0,11.0,13.0,0.0,2.0,9.0,9.055385138137417,9.0,30.0,41.0,37.33630940518894
283,283,0.0,88.05112151472007,11.0,12.041594578792296,24.020824298928627,26.019223662515376,20.09975124224178,43.104524124504614,31.064449134018133,31.0,32.0,29.0,10.5,12.5,0.5,1.5,10.0,9.055385138137417,9.0,30.0,42.0,39.319206502675
284,284,0.0,87.05170877128145,11.0,13.038404810405298,25.019992006393608,26.019223662515376,19.1049731745428,43.104524124504614,30.066592756745816,30.0,32.0,29.0,11.5,12.5,1.5,1.5,10.04987562112089,11.0,10.0,30.0,41.0,40.311288741492746
285,285,0.0,87.09190547921202,11.0,13.0,25.019992006393608,26.0,19.1049731745428,43.04648650006177,30.066592756745816,30.0,32.0,28.0,11.0,13.0,1.0,1.0,9.0,9.055385138137417,9.0,31.0,42.0,43.18564576337837
286,286,0.0,88.05112151472007,11.0,13.038404810405298,25.019992006393608,25.0,19.1049731745428,43.104524124504614,30.066592756745816,30.0,32.0,29.0,11.5,12.5,1.5,1.5,9.0,9.055385138137417,9.0,30.0,41.0,42.2965719651132
287,287,1.0,89.08984229416954,10.04987562112089,13.038404810405298,25.019992006393608,26.019223662515376,20.09975124224178,43.104524124504614,30.066592756745816,30.0,32.0,28.0,10.0,13.0,1.0,1.0,10.0,9.055385138137417,9.0,31.0,42.0,37.48332962798263
288,288,0.0,87.05170877128145,10.0,13.038404810405298,25.0,26.0,20.024984394500787,43.04648650006177,30.01666203960727,30.0,32.0,29.0,10.5,12.5,1.5,1.5,9.0,9.055385138137417,9.0,30.0,40.0,41.19465984809196
289,289,1.0,88.05112151472007,10.0,13.038404810405298,26.0,27.018512172212592,19.1049731745428,42.04759208325728,29.017236257093817,29.0,30.0,27.0,9.5,13.5,0.5,0.5,10.0,9.055385138137417,9.0,31.0,41.0,39.319206502675
290,290,0.0,88.09086218218096,11.045361017187261,14.0,25.019992006393608,26.019223662515376,19.026297590440446,44.04543109109048,30.066592756745816,30.0,32.0,28.0,11.0,14.0,1.0,2.0,10.0,10.0,10.0,32.0,42.0,40.19950248448356
291,291,0.0,89.08984229416954,11.0,13.0,26.019223662515376,26.0,19.1049731745428,43.04648650006177,30.066592756745816,30.0,32.0,28.0,11.0,13.0,1.0,2.0,9.0,10.0,10.0,32.0,41.0,40.11234224026316
292,292,1.0,89.05054744357274,11.0,14.0,25.019992006393608,26.0,20.024984394500787,44.01136216933077,30.01666203960727,30.5,32.0,29.0,10.5,13.5,1.5,1.5,9.0,9.0,9.0,30.0,40.0,39.319206502675
293,293,0.0,88.09086218218096,11.045361017187261,13.038404810405298,24.020824298928627,25.019992006393608,20.024984394500787,44.10215414239989,31.064449134018133,31.0,33.0,29.0,11.0,13.0,1.0,2.0,9.0,9.0,9.0,32.0,43.0,38.3275357934736
294,294,0.0,88.09086218218096,11.0,13.0,25.019992006393608,26.019223662515376,19.1049731745428,43.04648650006177,30.066592756745816,30.0,32.0,28.0,11.0,13.0,1.0,1.0,8.0,9.0,9.5,31.0,41.0,40.19950248448356
295,295,1.0,88.09086218218096,11.045361017187261,14.0,25.019992006393608,26.019223662515376,20.024984394500787,44.04543109109048,30.066592756745816,30.5,33.0,29.0,11.0,13.0,2.0,2.0,9.055385138137417,9.055385138137417,9.0,32.0,42.0,38.2099463490856
296,296,1.4142135623730951,88.09086218218096,12.041594578792296,14.035668847618199,25.019992006393608,25.0,19.026297590440446,44.04543109109048,30.01666203960727,30.5,33.0,29.0,12.0,13.0,2.0,2.0,9.0,9.0,9.5,33.0,43.0,39.20459156782532
297,297,1.0,87.05170877128145,11.045361017187261,14.0,24.020824298928627,25.019992006393608,20.024984394500787,44.04543109109048,30.066592756745816,30.5,32.0,29.0,10.5,13.5,1.5,1.5,9.0,9.0,9.5,32.0,43.0,39.319206502675
298,298,1.0,88.09086218218096,11.0,14.0,25.019992006393608,25.019992006393608,19.026297590440446,44.04543109109048,30.066592756745816,30.0,32.0,28.0,11.0,14.0,1.0,2.0,4.123105625617661,5.0,4.5,35.0,45.0,36.345563690772494
299,299,1.0,88.09086218218096,11.0,14.035668847618199,25.019992006393608,26.019223662515376,20.024984394500787,44.04543109109048,30.01666203960727,30.5,32.0,28.0,10.0,14.0,0.0,1.0,4.123105625617661,5.0,4.5,33.0,43.0,41.19465984809196
300,300,1.0,88.05112151472007,11.0,14.0,25.019992006393608,26.0,20.09975124224178,44.04543109109048,30.066592756745816,30.5,32.0,29.0,10.5,13.5,1.5,1.5,5.0,5.0,5.0,32.0,43.0,36.22154055254967
301,301,1.0,88.09086218218096,11.0,14.0,26.019223662515376,26.076809620810597,20.09975124224178,44.04543109109048,30.066592756745816,30.5,32.0,28.0,10.0,14.0,0.0,1.0,5.0990195135927845,5.0,5.5,32.0,43.0,36.124783736376884
302,302,1.0,88.09086218218096,11.045361017187261,14.035668847618199,25.019992006393608,27.018512172212592,19.026297590440446,44.04543109109048,30.01666203960727,30.0,32.0,28.0,11.0,14.0,1.0,2.0,7.0710678118654755,7.0,7.0,33.0,43.0,37.33630940518894
303,303,0.0,88.09086218218096,10.0,14.035668847618199,26.019223662515376,27.0,20.09975124224178,44.10215414239989,30.066592756745816,30.0,32.0,28.0,10.0,14.0,1.0,1.0,9.055385138137417,9.0,8.5,32.0,41.0,39.20459156782532
304,304,1.0,87.09190547921202,11.0,14.0,25.019992006393608,26.019223662515376,20.223748416156685,44.10215414239989,30.14962686336267,30.5,32.0,28.0,10.0,14.0,1.0,1.0,9.0,9.0,9.0,32.0,42.0,39.20459156782532
305,305,0.0,88.05112151472007,11.0,14.0,25.019992006393608,27.018512172212592,20.09975124224178,45.044422518220834,31.064449134018133,31.0,32.0,29.0,10.5,14.5,0.5,1.5,9.0,9.0,9.0,32.0,41.0,39.11521443121589
306,306,1.4142135623730951,88.05112151472007,10.0,14.035668847618199,25.019992006393608,26.019223662515376,21.213203435596427,44.10215414239989,30.066592756745816,30.5,32.0,29.0,9.5,13.5,1.5,1.5,9.0,10.04987562112089,10.0,32.0,41.0,38.118237105091836
307,307,1.4142135623730951,89.08984229416954,11.0,14.035668847618199,25.019992006393608,27.018512172212592,20.09975124224178,44.04543109109048,30.01666203960727,30.5,32.0,28.0,10.0,14.0,1.0,1.0,9.055385138137417,9.0,9.0,31.0,41.0,37.21558813185679
308,308,0.0,88.09086218218096,10.0,14.0,25.0,26.019223662515376,20.223748416156685,44.10215414239989,30.14962686336267,30.0,32.0,28.0,10.0,14.0,1.0,1.0,10.0,10.0,10.0,32.0,41.0,40.11234224026316
309,309,19.0,81.09870529176159,9.0,16.0,22.02271554554524,24.020824298928627,15.132745950421556,59.033888572581766,43.04648650006177,33.5,34.0,30.0,17.0,27.0,11.0,9.0,13.0,12.041594578792296,12.0,32.0,36.0,35.014282800023196
310,310,24.0,84.09518416651456,9.0,16.0,22.02271554554524,24.08318915758459,15.033296378372908,64.00781202322104,48.010415536631214,36.0,34.0,30.0,17.0,32.0,15.0,9.0,11.045361017187261,11.045361017187261,11.0,31.0,35.0,35.014282800023196
311,311,23.0,82.21921916437786,10.0,16.0,22.02271554554524,24.08318915758459,15.132745950421556,64.03124237432849,48.041648597857254,36.5,36.0,30.0,18.0,31.0,14.0,9.0,11.045361017187261,11.045361017187261,11.0,32.0,35.0,36.0
312,312,27.018512172212592,86.20904824900923,9.055385138137417,16.0312195418814,22.02271554554524,24.08318915758459,16.0312195418814,68.0294054067798,52.009614495783374,38.5,36.0,30.0,17.0,35.0,18.0,9.0,12.0,13.152946437965905,13.0,31.0,34.0,38.01315561749642
313,313,28.0,86.09297300012354,9.0,16.0,23.021728866442675,25.079872407968907,16.0,69.0,53.0,39.0,35.0,31.0,17.0,36.0,19.0,9.0,4.0,4.0,3.5,32.0,37.0,35.05709628591621
314,314,28.0,85.14693182963201,9.055385138137417,16.0,23.08679276123039,26.076809620810597,14.0,67.00746227100382,51.0098029794274,37.0,35.0,30.0,18.5,34.5,17.5,10.5,4.0,4.0,4.0,34.0,39.0,34.0147027033899
315,315,26.0,87.20665112249179,9.0,16.0312195418814,24.020824298928627,26.076809620810597,15.033296378372908,66.03029607687671,50.00999900019995,37.0,35.0,29.0,17.0,34.0,17.0,9.0,4.0,4.123105625617661,4.0,32.0,37.0,38.05259518088089
316,316,27.0,86.20904824900923,8.0,16.0,23.021728866442675,26.076809620810597,15.033296378372908,66.007575322837,50.00999900019995,36.5,35.0,29.0,17.0,34.0,18.0,10.0,4.123105625617661,3.0,3.0,32.0,37.0,29.017236257093817
317,317,22.0,88.14193099768123,9.0,16.0,24.020824298928627,26.076809620810597,15.033296378372908,62.00806399170998,46.010868281309364,35.0,32.0,27.0,14.5,32.5,16.5,7.5,4.0,5.0990195135927845,5.0,32.0,39.0,33.06055050963308
318,318,16.0312195418814,87.36704184073076,10.0,16.0,24.020824298928627,26.076809620810597,13.152946437965905,55.08175741568164,39.11521443121589,31.0,34.0,26.0,17.0,25.0,9.0,8.0,7.0710678118654755,6.082762530298219,6.0,33.0,42.0,43.18564576337837
319,319,14.035668847618199,87.5728268357257,9.0,16.0312195418814,24.08318915758459,26.1725046566048,15.132745950421556,54.147945482723536,38.118237105091836,31.0,35.0,25.0,15.0,24.0,8.0,8.0,5.0,6.082762530298219,6.0,32.0,42.0,41.10960958218893
320,320,15.033296378372908,87.5728268357257,8.0,15.033296378372908,24.08318915758459,26.076809620810597,14.142135623730951,52.15361924162119,37.12142238654117,29.5,33.0,23.0,14.0,24.0,9.0,7.0,5.0990195135927845,4.123105625617661,4.5,34.0,43.0,41.10960958218893
321,321,14.0,86.46964785403026,10.0,15.132745950421556,25.079872407968907,26.076809620810597,14.035668847618199,53.08483775994799,38.01315561749642,31.0,34.0,25.0,15.5,23.5,8.5,7.5,5.0990195135927845,5.0990195135927845,5.0,32.0,43.0,46.17358552246078
322,322,14.0,87.46427842267951,9.0,15.033296378372908,24.08318915758459,26.076809620810597,14.035668847618199,52.03844732503075,37.013511046643494,30.0,33.0,24.0,14.5,23.5,8.5,6.5,2.23606797749979,2.0,2.0,35.0,45.0,40.11234224026316
323,323,12.0,86.37129152675674,8.06225774829855,15.033296378372908,23.08679276123039,25.179356624028344,16.0,51.03920062069938,36.013886210738214,30.0,31.0,23.0,11.0,24.0,9.0,5.0,3.1622776601683795,3.1622776601683795,2.5,34.0,44.0,38.118237105091836
324,324,9.0,83.38465086573187,8.0,15.033296378372908,23.08679276123039,24.186773244895647,16.0312195418814,48.041648597857254,33.015148038438355,28.5,30.0,22.0,10.0,22.0,7.0,4.0,4.123105625617661,5.0990195135927845,4.5,34.0,45.0,43.18564576337837
325,325,9.0,85.28774824088158,8.0,16.0312195418814,23.021728866442675,25.179356624028344,16.0,49.01020301937138,33.0,28.5,29.0,22.0,9.5,23.5,7.5,3.5,4.123105625617661,4.0,4.0,34.0,45.0,42.190046219457976
326,326,2.0,80.15609770940699,10.0,16.0312195418814,21.02379604162864,23.021728866442675,19.0,47.01063709417264,31.0,30.0,29.0,24.0,7.5,20.5,3.5,0.5,7.0710678118654755,7.0710678118654755,6.5,36.0,44.0,39.11521443121589
327,327,0.0,79.1012010022604,8.0,15.0,20.0,20.024984394500787,22.02271554554524,45.0111097397076,30.01666203960727,30.0,28.0,24.0,4.0,19.0,3.0,3.0,10.04987562112089,10.198039027185569,9.5,38.0,47.0,45.09988913511872
328,328,1.0,79.02531240052139,8.0,15.0,22.0,22.02271554554524,23.021728866442675,46.0,31.0,31.0,27.0,25.0,3.0,20.0,3.0,3.0,11.045361017187261,11.180339887498949,11.0,39.0,47.0,47.095647357266465
329,329,3.0,79.05694150420949,9.0,16.0,21.02379604162864,22.02271554554524,21.0,49.0,33.0,31.5,27.0,24.0,4.5,23.5,6.5,2.5,11.0,10.04987562112089,10.5,40.0,47.0,49.040799340956916
330,330,1.4142135623730951,80.05623023850174,9.0,16.0,21.02379604162864,23.021728866442675,22.02271554554524,48.0,32.0,31.5,27.0,24.0,3.5,22.5,5.5,3.5,11.0,11.180339887498949,11.0,39.0,46.0,50.039984012787215
331,331,9.055385138137417,82.05485969764375,9.0,16.0,21.02379604162864,22.0,18.027756377319946,52.0,36.0,31.5,27.0,24.0,7.5,26.5,10.5,0.5,11.0,10.04987562112089,10.5,41.0,48.0,52.009614495783374
332,332,12.0,84.0535543567314,9.0,17.0,21.02379604162864,23.021728866442675,17.029386365926403,55.00909015790027,38.01315561749642,32.0,27.0,24.0,8.5,29.5,12.5,1.5,11.0,11.045361017187261,11.0,41.0,47.0,50.039984012787215
333,333,11.0,85.05292469985967,8.06225774829855,17.0,22.02271554554524,23.021728866442675,16.0312195418814,52.0,35.0,29.5,26.0,23.0,8.5,27.5,10.5,1.5,11.0,11.045361017187261,11.0,41.0,45.0,47.01063709417264
334,334,10.0,86.09297300012354,7.0,17.0,23.0,24.0,16.0312195418814,50.00999900019995,33.015148038438355,28.0,25.0,21.0,7.0,27.0,9.0,1.0,5.0990195135927845,6.0,5.5,39.0,42.0,42.01190307520001
335,335,10.0,86.09297300012354,7.0,17.0,23.0,24.0,16.0312195418814,50.00999900019995,33.015148038438355,28.0,25.0,21.0,7.0,27.0,9.0,1.0,5.0990195135927845,6.0,5.5,39.0,42.0,42.01190307520001
336,336,9.0,86.09297300012354,8.0,17.0,23.021728866442675,24.020824298928627,16.0,50.0,33.0,28.5,26.0,22.0,8.0,26.0,8.0,2.0,1.0,2.0,1.5,30.0,32.0,37.013511046643494
337,337,9.055385138137417,88.09086218218096,8.0,16.0,25.019992006393608,26.019223662515376,16.0312195418814,49.0,33.0,28.5,26.0,22.0,8.0,25.0,8.0,2.0,2.23606797749979,2.0,2.0,35.0,39.0,39.01281840626232
338,338,16.0312195418814,86.05230967266364,8.06225774829855,17.0,25.0,26.076809620810597,16.0,57.0350769263968,40.049968789001575,32.0,29.0,26.0,11.5,29.5,11.5,4.5,3.0,4.0,3.0,29.0,29.0,30.01666203960727
339,339,16.0312195418814,88.05112151472007,8.0,17.0,24.0,26.019223662515376,15.0,56.00892785976178,39.01281840626232,31.0,28.0,25.0,11.5,29.5,12.5,4.5,4.0,5.0,4.5,42.0,44.0,45.0111097397076
340,340,16.0312195418814,88.05112151472007,8.0,17.0,24.0,25.019992006393608,15.0,56.00892785976178,39.01281840626232,31.0,28.0,25.0,11.5,29.5,12.5,4.5,5.0990195135927845,5.0,4.5,42.0,45.0,44.01136216933077
341,341,16.0,87.05170877128145,8.0,16.0312195418814,23.0,25.019992006393608,15.033296378372908,55.036351623268054,39.01281840626232,31.0,27.0,24.0,10.5,29.5,12.5,3.5,6.0,7.0,6.5,42.0,45.0,47.042533945356304
342,342,16.0312195418814,88.02272433866155,8.0,16.0,25.0,26.019223662515376,15.033296378372908,55.0,39.0,31.0,28.0,26.0,12.0,28.0,11.0,5.0,7.0,7.0,6.5,42.0,43.0,42.01190307520001
343,343,16.0,88.02272433866155,8.0,16.0,24.0,27.0,15.0,55.0,39.0,31.0,27.0,25.0,11.0,29.0,12.0,4.0,3.0,3.0,3.0,41.0,43.0,40.0
344,344,16.0312195418814,89.05054744357274,8.0,15.0,24.0,26.0,15.033296378372908,54.0,39.0,31.0,28.0,25.0,11.5,27.5,11.5,4.5,2.23606797749979,3.0,2.5,42.0,44.0,41.0
345,345,15.0,88.05112151472007,9.0,16.0312195418814,25.019992006393608,26.0,15.0,55.00909015790027,39.0,31.5,28.0,25.0,11.5,28.5,11.5,4.5,2.0,3.0,3.0,43.0,46.0,41.012193308819754
346,346,13.038404810405298,89.08984229416954,9.0,16.0,24.0,26.019223662515376,15.0,53.009433122794285,37.013511046643494,30.5,28.0,24.0,11.0,27.0,10.0,3.0,2.0,2.0,2.5,42.0,46.0,45.0111097397076
347,347,12.0,87.09190547921202,9.0,16.0,24.0,26.019223662515376,14.0,51.0,35.0,29.0,27.0,23.0,11.0,26.0,10.0,3.0,4.0,5.0,4.5,42.0,46.0,48.010415536631214
348,348,10.04987562112089,88.09086218218096,8.0,15.0,24.020824298928627,25.019992006393608,15.033296378372908,48.0,33.0,28.0,24.0,20.0,7.0,26.0,10.0,1.0,7.0710678118654755,8.06225774829855,8.0,42.0,47.0,49.040799340956916
349,349,10.04987562112089,85.14693182963201,8.06225774829855,16.0,24.0,26.076809620810597,14.035668847618199,48.010415536631214,32.01562118716424,27.0,25.0,20.0,8.5,25.5,9.5,1.5,8.0,8.0,8.0,41.0,47.0,47.042533945356304
350,350,11.045361017187261,86.09297300012354,7.0,16.0,23.021728866442675,26.019223662515376,15.0,49.01020301937138,33.015148038438355,27.5,24.0,20.0,7.0,27.0,10.0,1.0,8.0,9.055385138137417,9.0,41.0,48.0,50.15974481593781
351,351,15.033296378372908,86.09297300012354,8.0,17.0,23.0,24.020824298928627,15.0,55.00909015790027,38.01315561749642,30.5,25.0,21.0,8.0,32.0,15.0,1.0,9.0,9.055385138137417,9.0,40.0,47.0,47.042533945356304
352,352,17.029386365926403,85.09406559801923,7.0,16.0,23.0,25.019992006393608,15.0,55.00909015790027,39.01281840626232,30.5,26.0,22.0,9.0,31.0,15.0,3.0,9.0,9.055385138137417,9.5,42.0,48.0,51.03920062069938
353,353,17.029386365926403,84.09518416651456,8.0,16.0,23.0,25.019992006393608,15.0,56.00892785976178,40.01249804748511,31.5,27.0,23.0,10.0,31.0,14.0,3.0,9.0,10.04987562112089,10.0,40.0,47.0,52.08646657242167
354,354,15.033296378372908,85.09406559801923,7.0,16.0,22.0,25.019992006393608,16.0312195418814,54.037024344425184,38.05259518088089,30.5,26.0,22.0,8.0,30.0,13.0,2.0,10.0,10.04987562112089,10.0,42.0,47.0,48.010415536631214
355,355,13.038404810405298,85.05292469985967,7.0,16.0,23.0,25.019992006393608,16.0312195418814,52.03844732503075,36.05551275463989,29.5,26.0,23.0,8.5,27.5,10.5,2.5,10.0,10.0,10.5,41.0,47.0,49.01020301937138
356,356,11.045361017187261,84.0535543567314,7.0,16.0312195418814,23.0,24.020824298928627,16.0,50.039984012787215,34.0147027033899,28.5,26.0,23.0,8.5,25.5,8.5,2.5,10.0,10.04987562112089,10.0,41.0,46.0,45.044422518220834
357,357,11.180339887498949,85.0235261559999,6.0,16.0,23.0,25.019992006393608,16.0,49.040799340956916,33.06055050963308,27.5,25.0,23.0,8.0,25.0,8.0,3.0,2.0,2.0,2.0,42.0,47.0,46.010868281309364
358,358,11.180339887498949,85.05292469985967,7.0,15.0,23.0,25.019992006393608,15.0,48.041648597857254,33.06055050963308,27.5,26.0,23.0,9.5,23.5,7.5,3.5,2.23606797749979,2.0,2.0,42.0,47.0,46.04345773288535
359,359,11.045361017187261,85.0235261559999,7.0,16.0,23.021728866442675,24.08318915758459,16.0,50.00999900019995,34.0147027033899,28.5,26.0,24.0,9.0,25.0,9.0,4.0,2.0,2.0,2.0,43.0,49.0,47.01063709417264
360,360,13.038404810405298,86.05230967266364,6.0,16.0,24.0,26.0,16.0,51.0098029794274,35.014282800023196,28.5,27.0,24.0,9.5,25.5,9.5,4.5,2.0,3.0,2.5,44.0,48.0,44.01136216933077
361,361,15.033296378372908,84.02380615040002,7.0,16.0,24.0,26.019223662515376,15.0,53.009433122794285,37.013511046643494,29.5,28.0,26.0,12.0,26.0,9.0,6.0,3.0,4.0,3.5,45.0,49.0,46.010868281309364
362,362,14.142135623730951,86.02325267042627,7.0,16.0312195418814,23.0,24.0,16.0312195418814,53.03772242470448,37.013511046643494,30.0,28.0,26.0,11.0,26.0,9.0,5.0,5.0990195135927845,4.0,4.5,43.0,47.0,45.0
363,363,13.038404810405298,85.0235261559999,7.0,17.029386365926403,23.0,25.019992006393608,16.0,53.03772242470448,36.013886210738214,29.5,28.0,26.0,11.0,26.0,9.0,5.0,4.0,4.0,4.0,45.0,48.0,45.0
364,364,15.0,86.02325267042627,7.0,15.033296378372908,24.0,25.019992006393608,15.0,52.009614495783374,37.0,29.5,27.0,25.0,11.0,26.0,10.0,5.0,2.23606797749979,2.0,2.5,45.0,49.0,47.01063709417264
365,365,14.0,86.02325267042627,7.0,15.033296378372908,24.0,25.0,16.0,52.009614495783374,37.0,30.0,28.0,26.0,11.0,25.0,9.0,5.0,2.23606797749979,2.23606797749979,2.0,44.0,48.0,45.044422518220834
366,366,13.038404810405298,86.02325267042627,7.0,16.0,24.020824298928627,26.019223662515376,16.0,52.009614495783374,36.013886210738214,29.5,28.0,26.0,11.0,25.0,9.0,4.0,2.23606797749979,3.1622776601683795,3.0,44.0,48.0,45.0111097397076
367,367,15.132745950421556,87.05170877128145,8.0,16.0,24.0,25.019992006393608,15.0,54.037024344425184,38.05259518088089,30.5,30.0,27.0,13.5,25.5,9.5,6.5,5.0990195135927845,6.0,6.0,42.0,46.0,49.040799340956916
368,368,15.033296378372908,86.02325267042627,7.0,16.0,24.020824298928627,25.019992006393608,16.0,54.00925846556311,38.01315561749642,30.5,29.0,27.0,12.0,26.0,9.0,6.0,6.0,6.0,6.0,43.0,47.0,45.0111097397076
369,369,18.110770276274835,86.05230967266364,7.0,16.0,24.0,26.019223662515376,16.0,57.0350769263968,41.048751503547585,32.0,30.0,27.0,12.5,28.5,11.5,6.5,4.123105625617661,4.0,4.5,43.0,46.0,49.01020301937138
370,370,20.024984394500787,85.09406559801923,8.0,16.0,24.0,26.076809620810597,14.035668847618199,58.0,42.0,32.0,31.0,27.0,15.0,29.0,12.0,8.0,1.4142135623730951,2.0,1.5,44.0,47.0,45.0111097397076
371,371,21.0,85.21150157109074,6.082762530298219,14.0,25.019992006393608,26.076809620810597,13.038404810405298,54.0,40.0,29.5,31.0,25.0,15.0,26.0,12.0,10.0,2.0,2.23606797749979,2.0,44.0,48.0,42.0
372,372,20.024984394500787,80.15609770940699,6.0,15.0,24.020824298928627,26.076809620810597,12.041594578792296,53.03772242470448,38.05259518088089,28.0,32.0,27.0,17.5,23.5,8.5,12.5,6.082762530298219,7.0710678118654755,6.5,41.0,47.0,42.04759208325728
373,373,19.026297590440446,81.09870529176159,7.0,16.0,24.020824298928627,26.076809620810597,11.045361017187261,53.03772242470448,37.05401462729781,27.5,31.0,27.0,18.0,24.0,8.0,12.0,6.082762530298219,7.0,6.5,41.0,47.0,44.10215414239989
374,374,19.0,81.2219182240853,7.0,16.0,24.020824298928627,25.079872407968907,12.041594578792296,54.00925846556311,38.01315561749642,28.5,33.0,27.0,18.0,24.0,9.0,12.0,7.0,8.0,8.0,40.0,46.0,42.1070065428546
375,375,19.026297590440446,81.2219182240853,8.06225774829855,16.0,23.021728866442675,25.179356624028344,11.180339887498949,54.037024344425184,38.05259518088089,28.5,32.0,26.0,18.0,25.0,9.0,12.0,9.0,9.055385138137417,9.5,40.0,47.0,46.17358552246078
376,376,21.095023109728988,82.21921916437786,7.0710678118654755,15.033296378372908,24.020824298928627,26.076809620810597,11.180339887498949,54.037024344425184,39.11521443121589,28.5,32.0,26.0,18.0,25.0,10.0,13.0,9.055385138137417,9.055385138137417,9.5,39.0,47.0,41.10960958218893
377,377,21.02379604162864,81.30190649671138,7.0,16.0312195418814,23.021728866442675,25.179356624028344,10.04987562112089,54.00925846556311,38.05259518088089,27.5,32.0,25.0,18.5,25.5,10.5,12.5,11.0,10.04987562112089,10.5,40.0,48.0,44.10215414239989
378,378,27.073972741361768,82.38931969618392,6.082762530298219,16.0312195418814,23.021728866442675,26.1725046566048,13.038404810405298,62.00806399170998,46.04345773288535,32.5,34.0,26.0,17.0,32.0,16.0,12.0,10.04987562112089,11.045361017187261,11.0,38.0,47.0,43.104524124504614
379,379,26.0,83.38465086573187,7.0710678118654755,17.029386365926403,23.021728866442675,27.16615541441225,14.035668847618199,64.00781202322104,47.0,34.0,34.0,26.0,16.0,34.0,17.0,10.0,10.04987562112089,10.04987562112089,10.5,38.0,48.0,47.095647357266465
380,380,22.02271554554524,82.29823813423954,8.0,17.029386365926403,24.020824298928627,26.076809620810597,13.0,60.0,43.01162633521314,32.0,31.0,24.0,14.5,32.5,15.5,7.5,10.0,10.04987562112089,10.5,39.0,48.0,47.095647357266465
381,381,17.0,84.2140130857092,8.0,17.029386365926403,23.08679276123039,26.1725046566048,14.0,56.00892785976178,39.0,30.5,30.0,24.0,13.0,29.0,12.0,7.0,11.045361017187261,10.04987562112089,10.0,39.0,49.0,47.265209192385896
382,382,16.0,82.21921916437786,9.055385138137417,17.029386365926403,23.08679276123039,26.076809620810597,13.038404810405298,55.00909015790027,38.0,30.0,30.0,24.0,14.0,28.0,11.0,7.0,11.045361017187261,11.045361017187261,11.0,39.0,49.0,48.25971404805462
383,383,15.0,84.2140130857092,8.06225774829855,16.0,24.08318915758459,26.076809620810597,13.0,52.009614495783374,36.013886210738214,28.5,28.0,22.0,12.0,27.0,11.0,6.0,11.0,11.045361017187261,11.0,40.0,49.0,47.265209192385896
384,384,16.0,85.21150157109074,8.0,15.0,25.019992006393608,26.019223662515376,13.0,52.0,37.0,29.0,29.0,23.0,13.0,26.0,11.0,6.0,11.0,11.045361017187261,11.0,39.0,48.0,49.16299421312742
385,385,18.027756377319946,85.09406559801923,7.0,15.033296378372908,25.019992006393608,27.073972741361768,12.0,52.0,37.013511046643494,28.0,28.0,24.0,14.0,26.0,11.0,8.0,11.045361017187261,11.045361017187261,11.0,41.0,48.0,48.16637831516918
386,386,20.0,85.05292469985967,7.0,15.0,25.019992006393608,27.018512172212592,12.0,54.0,39.0,29.0,29.0,26.0,15.5,26.5,11.5,9.5,10.0,10.04987562112089,10.0,41.0,47.0,42.190046219457976
387,387,20.024984394500787,85.09406559801923,7.0710678118654755,16.0,25.019992006393608,27.018512172212592,11.0,54.0,38.0,28.0,29.0,25.0,16.0,27.0,11.0,10.0,10.04987562112089,10.0,10.0,41.0,47.0,44.10215414239989
388,388,20.024984394500787,86.09297300012354,8.06225774829855,16.0,25.019992006393608,28.0178514522438,10.0,54.0,38.0,28.0,29.0,25.0,17.0,27.0,11.0,11.0,5.0990195135927845,5.0,5.0,39.0,44.0,40.049968789001575
389,389,21.02379604162864,84.0535543567314,7.0,15.0,26.0,27.073972741361768,10.04987562112089,53.0,38.0,27.5,30.0,27.0,18.5,24.5,8.5,12.5,2.0,2.0,2.5,42.0,47.0,41.048751503547585
390,390,21.02379604162864,84.0535543567314,7.0,16.0,26.0,28.071337695236398,10.0,54.00925846556311,38.01315561749642,27.5,31.0,28.0,19.5,24.5,8.5,12.5,3.1622776601683795,4.0,4.0,43.0,47.0,40.01249804748511
391,391,20.0,84.09518416651456,8.0,17.029386365926403,25.0,27.018512172212592,11.045361017187261,56.0357029044876,39.01281840626232,29.0,32.0,28.0,19.0,26.0,9.0,12.0,5.0990195135927845,6.0,5.5,42.0,47.0,46.09772228646444
392,392,20.024984394500787,84.09518416651456,7.0,16.0,26.0,28.0178514522438,11.0,54.00925846556311,38.01315561749642,28.0,31.0,27.0,18.0,25.0,9.0,12.0,5.0990195135927845,6.082762530298219,5.5,42.0,47.0,46.04345773288535
393,393,20.024984394500787,84.02380615040002,7.0,16.0312195418814,26.0,28.0178514522438,12.041594578792296,55.00909015790027,39.0,29.0,30.0,28.0,17.0,26.0,10.0,11.0,7.0,7.0,7.5,42.0,47.0,43.0
394,394,20.09975124224178,83.02409288875127,7.0,17.0,25.0,27.018512172212592,13.038404810405298,57.0087712549569,40.01249804748511,30.0,31.0,29.0,17.0,27.0,10.0,10.0,9.0,9.055385138137417,9.5,42.0,46.0,44.04543109109048
395,395,21.0,84.02380615040002,7.0,16.0312195418814,24.0,26.019223662515376,13.0,57.0087712549569,41.0,30.5,30.0,28.0,16.0,28.0,11.0,9.0,10.0,10.0,10.5,42.0,46.0,43.04648650006177
396,396,18.027756377319946,84.00595217006948,8.0,16.0312195418814,25.0,26.019223662515376,14.0,56.0357029044876,40.01249804748511,31.0,30.0,29.0,15.5,26.5,10.5,8.5,10.0,11.0,10.5,42.0,46.0,43.04648650006177
397,397,19.026297590440446,84.02380615040002,7.0,16.0,25.0,27.018512172212592,14.0,56.00892785976178,40.01249804748511,30.5,31.0,29.0,16.0,26.0,9.0,9.0,10.0,10.04987562112089,10.0,42.0,47.0,46.04345773288535
398,398,16.0312195418814,84.00595217006948,8.0,17.0,25.0,27.018512172212592,14.0,55.00909015790027,38.01315561749642,30.0,30.0,29.0,15.5,25.5,7.5,8.5,10.0,9.0,9.5,43.0,47.0,45.09988913511872
399,399,15.033296378372908,84.00595217006948,7.0,16.0312195418814,24.0,26.0,15.0,53.03772242470448,37.013511046643494,29.5,30.0,29.0,14.5,23.5,6.5,8.5,4.0,5.0,5.0,43.0,47.0,39.05124837953327
400,400,16.0312195418814,82.02438661763951,8.0,17.0,24.0,26.019223662515376,14.0,55.00909015790027,38.01315561749642,30.0,32.0,30.0,17.0,24.0,7.0,9.0,3.0,3.1622776601683795,3.0,44.0,47.0,39.01281840626232
401,401,14.035668847618199,82.00609733428362,8.0,17.0,24.0,26.019223662515376,15.033296378372908,54.037024344425184,37.05401462729781,30.0,31.0,30.0,15.5,23.5,5.5,8.5,2.0,2.23606797749979,2.0,44.0,48.0,41.012193308819754
402,402,15.033296378372908,82.00609733428362,8.0,16.0312195418814,22.02271554554524,24.020824298928627,16.0,55.036351623268054,39.01281840626232,31.5,33.0,32.0,16.5,22.5,5.5,8.5,2.0,2.0,2.5,44.0,48.0,39.01281840626232
403,403,11.045361017187261,82.00609733428362,9.0,18.027756377319946,22.02271554554524,23.0,16.0,54.037024344425184,36.013886210738214,30.5,32.0,31.0,15.5,22.5,3.5,6.5,2.0,3.0,2.5,43.0,46.0,41.0
404,404,8.06225774829855,76.00657866263946,8.0,17.029386365926403,21.0,22.0,19.0,52.03844732503075,35.014282800023196,31.0,34.0,33.0,14.5,18.5,0.5,6.5,7.0,7.0,7.0,41.0,45.0,45.0111097397076
405,405,5.0990195135927845,76.00657866263946,10.0,17.029386365926403,21.0,23.021728866442675,19.0,51.03920062069938,34.0147027033899,31.5,33.0,32.0,13.5,18.5,0.5,4.5,8.0,9.0,9.0,41.0,46.0,44.01136216933077
406,406,5.0990195135927845,75.0066663703967,11.0,17.029386365926403,21.0,23.0,19.0,52.03844732503075,35.014282800023196,32.5,34.0,33.0,14.5,18.5,0.5,4.5,7.0,8.0,8.0,42.0,47.0,43.0
407,407,3.1622776601683795,75.0066663703967,11.0,18.0,21.0,22.02271554554524,19.026297590440446,51.03920062069938,33.06055050963308,31.5,32.0,31.0,12.5,19.5,1.5,3.5,6.0,6.0,6.0,43.0,47.0,44.01136216933077
408,408,7.0710678118654755,76.02631123499285,9.0,17.029386365926403,22.02271554554524,23.0,19.0,52.03844732503075,35.014282800023196,31.5,33.0,31.0,13.0,20.0,2.0,5.0,3.0,3.0,3.0,42.0,48.0,40.049968789001575
409,409,13.0,80.05623023850174,7.0,16.0312195418814,21.0,23.0,16.0312195418814,52.03844732503075,36.013886210738214,29.5,34.0,31.0,16.5,19.5,2.5,9.5,2.0,3.0,3.0,42.0,46.0,38.0
410,410,13.038404810405298,81.02468759581859,8.0,17.0,23.0,25.019992006393608,15.0,53.009433122794285,36.013886210738214,29.5,34.0,32.0,18.0,20.0,3.0,11.0,5.0,6.0,6.0,42.0,45.0,42.0
411,411,13.038404810405298,80.02499609497022,7.0,17.0,22.0,23.021728866442675,15.0,52.009614495783374,35.014282800023196,28.5,33.0,31.0,17.0,20.0,3.0,11.0,5.0,5.0990195135927845,5.0,43.0,46.0,39.05124837953327
412,412,14.035668847618199,82.02438661763951,7.0,17.0,24.020824298928627,26.019223662515376,15.033296378372908,53.03772242470448,36.05551275463989,29.0,33.0,31.0,17.0,21.0,4.0,11.0,7.0,8.0,8.0,43.0,46.0,40.01249804748511
413,413,15.033296378372908,81.05553651663777,7.0,18.0,24.0,26.019223662515376,14.035668847618199,54.037024344425184,36.05551275463989,28.5,33.0,30.0,17.5,22.5,4.5,10.5,9.055385138137417,9.0,9.5,43.0,45.0,41.012193308819754
414,414,17.0,81.02468759581859,6.082762530298219,17.029386365926403,23.0,25.019992006393608,14.0,54.037024344425184,37.013511046643494,28.5,31.0,29.0,16.0,24.0,7.0,10.0,11.0,10.0,10.5,45.0,47.0,44.01136216933077
415,415,18.027756377319946,80.05623023850174,7.0,17.0,23.0,26.019223662515376,13.038404810405298,55.036351623268054,38.05259518088089,29.0,32.0,29.0,17.5,24.5,7.5,10.5,10.04987562112089,11.0,11.0,45.0,47.0,44.01136216933077
416,416,18.027756377319946,82.05485969764375,6.0,17.0,23.0,26.076809620810597,13.038404810405298,54.037024344425184,37.05401462729781,28.0,31.0,28.0,16.5,24.5,8.5,10.5,10.04987562112089,10.0,10.5,43.0,46.0,46.04345773288535
417,417,18.027756377319946,81.02468759581859,6.0,17.0,22.0,25.0,14.035668847618199,55.036351623268054,38.05259518088089,29.0,32.0,30.0,17.0,24.0,7.0,11.0,11.045361017187261,11.0,11.5,45.0,47.0,45.0
418,418,19.026297590440446,81.05553651663777,6.0,17.0,24.0,26.019223662515376,12.165525060596439,54.08326913195984,37.12142238654117,27.5,30.0,27.0,16.5,25.5,8.5,10.5,11.0,11.045361017187261,11.0,45.0,47.0,45.044422518220834
419,419,19.1049731745428,84.02380615040002,7.0,17.0,24.0,26.019223662515376,15.132745950421556,58.137767414994535,41.19465984809196,31.5,30.0,28.0,14.0,29.0,12.0,7.0,11.0,11.0,11.5,44.0,46.0,44.01136216933077
420,420,23.08679276123039,85.0235261559999,6.0,15.0,24.020824298928627,26.019223662515376,14.142135623730951,58.137767414994535,43.18564576337837,31.5,29.0,27.0,14.0,30.0,14.0,8.0,10.0,10.0,10.0,44.0,46.0,48.010415536631214
421,421,23.08679276123039,84.0535543567314,6.0,16.0,24.0,27.073972741361768,13.152946437965905,58.137767414994535,42.190046219457976,30.5,29.0,26.0,14.5,30.5,13.5,8.5,10.0,11.0,11.0,43.0,46.0,46.04345773288535
422,422,23.08679276123039,85.0235261559999,5.0,16.0,26.019223662515376,28.0178514522438,14.142135623730951,58.137767414994535,42.190046219457976,30.5,28.0,26.0,13.0,31.0,15.0,8.0,11.0,11.0,11.0,45.0,47.0,47.042533945356304
423,423,23.08679276123039,85.0235261559999,6.0,16.0312195418814,25.019992006393608,27.018512172212592,14.035668847618199,59.135437767890075,43.104524124504614,31.5,29.0,27.0,14.0,31.0,15.0,8.0,10.04987562112089,10.04987562112089,10.5,45.0,46.0,46.010868281309364
424,424,23.021728866442675,83.02409288875127,6.0,16.0312195418814,24.020824298928627,26.019223662515376,14.142135623730951,59.135437767890075,43.104524124504614,31.5,29.0,27.0,14.0,31.0,14.0,8.0,10.04987562112089,11.045361017187261,10.5,46.0,46.0,46.0
425,425,23.021728866442675,84.02380615040002,6.0,16.0312195418814,24.0,26.019223662515376,14.142135623730951,59.135437767890075,43.104524124504614,31.5,29.0,27.0,14.0,31.0,14.0,9.0,11.0,10.0,10.5,46.0,47.0,46.0
426,426,21.095023109728988,83.00602387778854,7.0,16.0312195418814,23.0,26.019223662515376,15.033296378372908,59.135437767890075,43.104524124504614,32.5,30.0,29.0,14.5,29.5,12.5,8.5,10.04987562112089,11.045361017187261,11.0,45.0,47.0,45.0111097397076
427,427,19.1049731745428,82.0,7.0,16.0312195418814,23.0,25.019992006393608,15.033296378372908,57.14017850864661,41.10960958218893,31.5,30.0,30.0,15.0,27.0,10.0,9.0,11.045361017187261,11.0,11.0,45.0,46.0,47.01063709417264
428,428,17.029386365926403,83.00602387778854,7.0710678118654755,16.0312195418814,24.020824298928627,26.0,15.033296378372908,55.14526271584895,39.11521443121589,30.5,28.0,29.0,13.5,26.5,9.5,6.5,10.04987562112089,10.0,10.0,47.0,47.0,47.01063709417264
429,429,18.027756377319946,84.00595217006948,7.0710678118654755,16.0,23.0,26.0,15.033296378372908,56.08029957123981,40.11234224026316,31.0,30.0,29.0,14.5,26.5,9.5,8.5,3.0,3.1622776601683795,3.0,47.0,47.0,43.0
430,430,17.11724276862369,85.00588214941364,7.0,17.0,24.020824298928627,26.0,15.033296378372908,56.08029957123981,39.11521443121589,30.5,29.0,30.0,14.5,26.5,9.5,7.5,2.0,3.1622776601683795,3.0,46.0,46.0,41.0
431,431,17.029386365926403,83.00602387778854,7.0710678118654755,16.0312195418814,23.021728866442675,25.0,15.033296378372908,55.14526271584895,39.11521443121589,30.5,29.0,30.0,14.5,25.5,8.5,7.5,2.0,3.1622776601683795,3.0,45.0,46.0,41.012193308819754
432,432,16.1245154965971,85.00588214941364,7.0,16.0,24.0,26.0,16.1245154965971,55.14526271584895,39.20459156782532,31.0,30.0,31.0,14.5,24.5,7.5,8.5,2.0,2.23606797749979,2.0,45.0,43.0,43.01162633521314
433,433,15.132745950421556,85.0235261559999,7.0,16.0312195418814,24.020824298928627,26.019223662515376,16.1245154965971,54.230987451824994,38.2099463490856,30.5,30.0,32.0,15.0,23.0,6.0,8.0,4.0,4.47213595499958,4.0,45.0,42.0,43.0
434,434,16.1245154965971,84.09518416651456,8.06225774829855,15.033296378372908,25.079872407968907,26.019223662515376,16.1245154965971,55.326304774492215,40.311288741492746,32.0,31.0,35.0,17.0,22.0,4.0,9.0,7.0,7.0710678118654755,7.0,39.0,34.0,41.048751503547585
435,435,15.132745950421556,85.14693182963201,7.0,15.033296378372908,24.186773244895647,26.076809620810597,17.11724276862369,54.230987451824994,39.20459156782532,31.5,30.0,35.0,15.5,21.5,4.5,7.5,7.0710678118654755,7.0710678118654755,7.0,40.0,34.0,45.17742799230607
436,436,16.0312195418814,85.21150157109074,7.0710678118654755,15.132745950421556,24.08318915758459,26.076809620810597,16.1245154965971,54.3323108288245,39.20459156782532,31.0,30.0,36.0,17.0,21.0,4.0,9.0,9.055385138137417,9.055385138137417,8.5,47.0,40.0,42.04759208325728
437,437,14.142135623730951,85.37564055396598,8.06225774829855,16.1245154965971,24.186773244895647,26.076809620810597,17.11724276862369,55.44366510251645,39.319206502675,32.0,30.0,38.0,17.0,21.0,3.0,8.0,9.055385138137417,10.198039027185569,9.0,48.0,36.0,42.1070065428546
438,438,15.033296378372908,86.57944328765345,9.219544457292887,16.1245154965971,24.331050121192877,25.079872407968907,17.11724276862369,57.42821606144492,41.30375285612676,33.5,30.0,40.0,18.0,22.0,4.0,8.0,9.055385138137417,10.04987562112089,10.0,47.0,34.0,40.311288741492746
439,439,21.213203435596427,85.70880934886448,8.06225774829855,16.1245154965971,23.345235059857504,25.179356624028344,19.4164878389476,64.77653896280658,48.662100242385755,37.5,31.0,42.0,17.5,27.5,8.5,8.5,4.47213595499958,5.385164807134504,5.0,44.0,30.0,31.400636936215164
440,440,22.20360331117452,85.70880934886448,9.055385138137417,15.132745950421556,23.345235059857504,26.1725046566048,18.439088914585774,64.77653896280658,49.64876634922564,38.0,32.0,43.0,19.5,26.5,8.5,9.5,5.385164807134504,5.385164807134504,5.0,46.0,32.0,33.37663853655727
441,441,26.076809620810597,85.98837130682264,8.246211251235321,16.278820596099706,23.345235059857504,26.30589287593181,18.439088914585774,68.8839603971781,52.61178575186362,39.0,31.0,44.0,19.5,30.5,11.5,9.5,5.0990195135927845,6.324555320336759,6.0,48.0,32.0,39.6232255123179
442,442,25.179356624028344,86.70063436907483,9.055385138137417,16.278820596099706,25.317977802344327,27.16615541441225,17.46424919657298,67.89698078707183,51.62363799656123,38.5,31.0,42.0,19.5,30.5,11.5,8.5,4.123105625617661,5.385164807134504,5.0,49.0,34.0,41.43669871020132
443,443,21.095023109728988,87.69264507357501,8.246211251235321,16.278820596099706,23.194827009486403,26.1725046566048,17.46424919657298,62.96824596572466,46.69047011971501,35.5,29.0,40.0,17.5,27.5,9.5,8.5,3.1622776601683795,5.0,4.0,50.0,36.0,37.48332962798263
444,444,10.198039027185569,86.46964785403026,9.055385138137417,16.1245154965971,25.179356624028344,26.076809620810597,15.297058540778355,50.635955604688654,34.52535300326414,29.0,24.0,33.0,13.5,21.5,3.5,3.5,5.385164807134504,6.324555320336759,5.5,49.0,36.0,39.20459156782532
445,445,11.045361017187261,87.46427842267951,9.219544457292887,15.132745950421556,25.179356624028344,26.1725046566048,15.297058540778355,50.635955604688654,35.510561809129406,29.5,24.0,33.0,13.5,21.5,4.5,3.5,5.0990195135927845,6.082762530298219,5.5,49.0,37.0,40.19950248448356
446,446,11.180339887498949,85.37564055396598,9.055385138137417,16.1245154965971,25.179356624028344,26.076809620810597,14.560219778561036,50.80354318352215,34.713109915419565,28.5,24.0,32.0,14.0,22.0,4.0,4.0,6.324555320336759,6.324555320336759,6.5,48.0,35.0,41.19465984809196
447,447,14.142135623730951,86.20904824900923,9.055385138137417,18.110770276274835,24.08318915758459,25.019992006393608,15.524174696260024,56.71860364994893,38.63935817272331,31.0,26.0,32.0,14.0,27.0,7.0,5.0,6.082762530298219,7.0710678118654755,6.5,39.0,27.0,40.049968789001575
448,448,13.152946437965905,87.28115489611719,9.055385138137417,18.110770276274835,25.179356624028344,27.018512172212592,15.524174696260024,55.731499172371095,37.656340767525464,30.5,25.0,32.0,13.5,26.5,6.5,4.5,6.324555320336759,6.324555320336759,6.0,41.0,29.0,38.118237105091836
449,449,15.132745950421556,85.14693182963201,8.06225774829855,19.1049731745428,24.08318915758459,25.019992006393608,15.297058540778355,57.55866572463264,38.47076812334269,30.5,26.0,31.0,13.5,28.5,8.5,4.5,1.4142135623730951,2.8284271247461903,2.0,47.0,37.0,42.1070065428546
450,450,18.24828759089466,86.20904824900923,8.06225774829855,18.110770276274835,23.08679276123039,26.076809620810597,15.297058540778355,59.682493245507096,41.593268686170845,32.0,27.0,33.0,15.0,29.0,10.0,6.0,2.23606797749979,2.23606797749979,1.5,47.0,40.0,42.1070065428546
451,451,17.26267650163207,86.14522621712709,9.055385138137417,18.110770276274835,24.08318915758459,25.019992006393608,15.132745950421556,59.53990258641679,41.43669871020132,32.5,27.0,32.0,14.5,29.5,10.5,5.5,4.123105625617661,4.123105625617661,4.0,46.0,39.0,43.04648650006177
452,452,16.1245154965971,83.21658488546619,8.0,17.11724276862369,24.08318915758459,26.0,14.560219778561036,55.57877292636101,38.47076812334269,30.0,26.0,32.0,15.0,26.0,8.0,7.0,6.082762530298219,6.082762530298219,6.5,47.0,39.0,43.04648650006177
453,453,15.132745950421556,83.21658488546619,8.06225774829855,18.110770276274835,24.08318915758459,25.019992006393608,14.560219778561036,55.731499172371095,37.656340767525464,29.5,26.0,32.0,15.0,26.0,7.0,6.0,6.0,6.082762530298219,6.0,48.0,39.0,41.048751503547585
454,454,13.152946437965905,80.22468448052632,7.0710678118654755,17.11724276862369,23.08679276123039,24.020824298928627,13.341664064126334,50.635955604688654,33.54101966249684,26.5,26.0,32.0,16.0,21.0,2.0,8.0,9.055385138137417,10.04987562112089,10.0,48.0,39.0,46.09772228646444
455,455,12.165525060596439,80.09993757800315,9.055385138137417,17.11724276862369,23.08679276123039,24.020824298928627,13.341664064126334,51.62363799656123,34.52535300326414,28.0,28.0,32.0,17.0,21.0,2.0,7.0,9.219544457292887,10.198039027185569,10.0,45.0,38.0,43.104524124504614
456,456,11.180339887498949,80.22468448052632,8.06225774829855,17.11724276862369,23.08679276123039,24.08318915758459,14.317821063276353,50.635955604688654,33.54101966249684,27.5,27.0,33.0,16.0,20.0,2.0,8.0,10.198039027185569,11.180339887498949,11.0,47.0,39.0,42.1070065428546
457,457,12.165525060596439,79.22752047110903,7.0710678118654755,17.11724276862369,23.194827009486403,25.019992006393608,16.1245154965971,52.46903848937962,35.35533905932738,29.0,28.0,34.0,15.0,21.0,2.0,7.0,10.04987562112089,10.04987562112089,10.5,47.0,38.0,47.095647357266465
458,458,11.40175425099138,79.30952023559341,7.0710678118654755,17.029386365926403,22.20360331117452,24.020824298928627,16.1245154965971,51.478150704935004,34.52535300326414,28.5,27.0,34.0,14.5,20.5,1.5,6.5,10.04987562112089,10.04987562112089,10.5,46.0,37.0,47.095647357266465
459,459,11.180339887498949,76.16429609731846,8.06225774829855,18.110770276274835,21.095023109728988,23.021728866442675,17.26267650163207,54.589376255824725,36.49657518178932,30.5,30.0,35.0,15.5,21.5,2.5,7.5,11.180339887498949,11.045361017187261,11.0,48.0,39.0,44.181444068749045
460,460,11.40175425099138,73.33484846919642,10.04987562112089,18.110770276274835,22.090722034374522,23.021728866442675,17.26267650163207,56.71860364994893,38.63935817272331,32.5,31.0,38.0,17.5,21.5,1.5,7.5,11.045361017187261,11.180339887498949,11.0,48.0,39.0,43.104524124504614
461,461,9.486832980505138,74.24284477308234,11.045361017187261,20.09975124224178,22.20360331117452,24.020824298928627,19.4164878389476,59.841457201508724,39.81205847478876,34.5,32.0,38.0,16.0,24.0,3.0,5.0,11.045361017187261,11.045361017187261,11.0,48.0,39.0,42.1070065428546
462,462,11.180339887498949,72.24956747275377,11.045361017187261,20.09975124224178,20.09975124224178,22.02271554554524,19.6468827043885,61.814237842102365,41.773197148410844,35.5,34.0,40.0,18.0,24.0,2.0,7.0,10.04987562112089,11.0,11.5,48.0,38.0,39.11521443121589
463,463,11.40175425099138,72.24956747275377,10.04987562112089,20.09975124224178,22.20360331117452,23.021728866442675,19.235384061671343,60.67124524847005,40.607881008493905,34.5,33.0,39.0,17.0,24.0,2.0,6.0,10.198039027185569,10.0,10.0,48.0,37.0,41.10960958218893
464,464,11.180339887498949,70.178344238091,10.04987562112089,20.09975124224178,20.09975124224178,22.02271554554524,20.223748416156685,61.5223536610881,41.43669871020132,35.5,35.0,40.0,17.5,23.5,1.5,7.5,11.180339887498949,11.045361017187261,11.0,47.0,40.0,40.19950248448356
465,465,10.198039027185569,71.11258679024411,11.045361017187261,20.09975124224178,20.024984394500787,21.02379604162864,19.235384061671343,60.530983801686226,40.44749683231337,35.0,35.0,39.0,18.0,23.0,2.0,7.0,11.180339887498949,12.0,12.0,48.0,41.0,44.04543109109048
466,466,8.246211251235321,70.25667228100119,11.045361017187261,20.024984394500787,19.1049731745428,20.024984394500787,20.223748416156685,59.413803110051795,39.45883931389772,35.0,35.0,41.0,18.0,21.0,1.0,7.0,13.152946437965905,13.0,13.0,42.0,41.0,43.04648650006177
467,467,7.0,68.11754546370561,12.041594578792296,20.09975124224178,19.026297590440446,21.02379604162864,19.235384061671343,58.309518948453004,38.2099463490856,34.5,36.0,40.0,19.0,20.0,2.0,7.0,11.180339887498949,11.045361017187261,11.0,48.0,42.0,39.11521443121589
468,468,7.0710678118654755,66.03029607687671,11.0,21.02379604162864,19.026297590440446,20.0,20.223748416156685,59.21148537234985,38.2099463490856,34.5,37.0,39.0,18.0,21.0,1.0,7.0,10.04987562112089,11.045361017187261,11.5,48.0,43.0,42.04759208325728
469,469,4.123105625617661,69.1158447825099,13.038404810405298,21.02379604162864,19.026297590440446,22.02271554554524,18.110770276274835,56.22277118748239,35.22782990761707,33.0,35.0,39.0,19.0,19.0,3.0,6.0,11.045361017187261,11.045361017187261,11.0,46.0,42.0,41.012193308819754
470,470,4.123105625617661,71.11258679024411,13.038404810405298,21.095023109728988,20.09975124224178,22.02271554554524,18.027756377319946,56.22277118748239,35.12833614050059,33.0,35.0,39.0,19.0,19.0,3.0,6.0,11.045361017187261,11.045361017187261,11.5,44.0,39.0,38.05259518088089
471,471,6.082762530298219,71.11258679024411,11.045361017187261,20.09975124224178,20.024984394500787,22.02271554554524,17.029386365926403,54.230987451824994,34.132096331752024,31.0,34.0,38.0,19.0,18.0,3.0,8.0,11.045361017187261,11.045361017187261,11.5,44.0,39.0,38.118237105091836
472,472,5.0990195135927845,73.10950690573696,12.041594578792296,20.024984394500787,20.09975124224178,22.02271554554524,17.11724276862369,54.230987451824994,34.23448553724738,31.5,33.0,37.0,18.0,19.0,2.0,6.0,11.045361017187261,11.045361017187261,11.0,44.0,38.0,37.05401462729781
473,473,11.045361017187261,75.16648189186454,10.04987562112089,18.027756377319946,20.09975124224178,22.02271554554524,18.110770276274835,57.21887800367987,39.20459156782532,33.5,36.0,41.0,20.5,18.5,1.5,10.5,11.045361017187261,11.045361017187261,11.0,40.0,35.0,38.118237105091836
474,474,11.045361017187261,80.09993757800315,9.055385138137417,19.1049731745428,22.090722034374522,22.02271554554524,18.24828759089466,57.42821606144492,38.3275357934736,32.5,34.0,38.0,18.0,21.0,1.0,8.0,5.0990195135927845,4.123105625617661,4.0,36.0,27.0,37.21558813185679
475,475,10.198039027185569,80.09993757800315,11.0,19.026297590440446,22.090722034374522,24.020824298928627,18.24828759089466,58.309518948453004,39.319206502675,34.0,34.0,38.0,18.0,22.0,1.0,7.0,2.23606797749979,3.1622776601683795,2.5,44.0,38.0,36.124783736376884
476,476,11.045361017187261,79.1580697086532,9.055385138137417,19.1049731745428,22.02271554554524,24.020824298928627,17.26267650163207,56.43580423808985,37.33630940518894,31.5,32.0,37.0,17.5,21.5,1.5,8.5,5.0990195135927845,5.0990195135927845,5.0,44.0,38.0,37.05401462729781
477,477,13.152946437965905,77.10382610480494,10.04987562112089,19.1049731745428,22.090722034374522,24.020824298928627,15.132745950421556,57.42821606144492,38.3275357934736,31.5,33.0,37.0,20.0,22.0,2.0,9.0,5.0990195135927845,5.0990195135927845,5.0,44.0,38.0,38.05259518088089
478,478,11.180339887498949,76.16429609731846,9.055385138137417,18.027756377319946,21.02379604162864,24.020824298928627,17.46424919657298,55.57877292636101,37.656340767525464,31.5,31.0,36.0,16.5,21.5,1.5,7.5,7.0,6.082762530298219,6.0,44.0,39.0,43.04648650006177
479,479,1.4142135623730951,74.10802925459562,13.038404810405298,19.1049731745428,20.09975124224178,21.02379604162864,18.24828759089466,51.478150704935004,32.38826948140329,31.5,31.0,35.0,15.0,18.0,2.0,1.0,9.055385138137417,9.055385138137417,9.5,47.0,41.0,44.04543109109048
480,480,1.4142135623730951,73.10950690573696,12.041594578792296,19.026297590440446,20.09975124224178,21.0,17.46424919657298,49.49747468305833,30.59411708155671,29.5,30.0,34.0,15.0,17.0,3.0,3.0,9.055385138137417,9.0,9.0,45.0,39.0,42.0
481,481,1.0,71.17583859709698,11.045361017187261,19.1049731745428,19.1049731745428,21.02379604162864,17.11724276862369,47.38143096192854,28.284271247461902,28.0,28.0,33.0,13.5,16.5,3.5,2.5,9.055385138137417,9.055385138137417,9.5,46.0,41.0,42.04759208325728
482,482,2.23606797749979,71.11258679024411,10.04987562112089,18.0,19.026297590440446,20.024984394500787,18.24828759089466,48.25971404805462,30.4138126514911,29.0,30.0,34.0,14.0,16.0,3.0,4.0,10.04987562112089,10.0,10.0,46.0,41.0,40.01249804748511
483,483,1.4142135623730951,70.11419257183242,10.0,17.029386365926403,20.09975124224178,22.02271554554524,18.439088914585774,46.389654018972806,29.427877939124322,28.5,29.0,33.0,13.0,15.0,3.0,3.0,11.045361017187261,11.0,11.0,47.0,41.0,39.05124837953327
484,484,1.4142135623730951,67.11929677819934,11.045361017187261,19.026297590440446,21.02379604162864,22.02271554554524,17.11724276862369,48.25971404805462,29.274562336608895,28.5,30.0,34.0,15.0,16.0,4.0,4.0,9.055385138137417,10.0,10.0,45.0,40.0,39.05124837953327
485,485,5.0990195135927845,69.18092222571191,10.0,18.110770276274835,20.024984394500787,22.02271554554524,16.278820596099706,49.36598018878993,31.25699921617557,28.5,28.0,33.0,14.5,18.5,0.5,4.5,9.055385138137417,10.0,10.0,46.0,41.0,36.0
486,486,8.246211251235321,69.1158447825099,10.0,18.027756377319946,21.02379604162864,23.021728866442675,16.492422502470642,52.46903848937962,34.52535300326414,30.0,30.0,34.0,16.0,20.0,1.0,6.0,9.219544457292887,10.04987562112089,10.5,46.0,40.0,38.01315561749642
487,487,8.246211251235321,69.18092222571191,9.055385138137417,18.027756377319946,21.095023109728988,23.021728866442675,16.492422502470642,51.62363799656123,33.734255586866,29.0,29.0,34.0,15.5,19.5,0.5,5.5,9.219544457292887,10.04987562112089,10.5,44.0,40.0,38.0
488,488,11.180339887498949,73.17103251970687,8.06225774829855,17.029386365926403,21.02379604162864,24.020824298928627,15.297058540778355,51.478150704935004,34.52535300326414,28.5,27.0,32.0,14.5,21.5,2.5,6.5,9.055385138137417,9.0,9.5,44.0,39.0,39.0
489,489,10.198039027185569,73.24616030891995,9.0,18.027756377319946,21.095023109728988,23.021728866442675,14.317821063276353,51.35172830587107,33.37663853655727,28.0,27.0,33.0,16.0,21.0,2.0,7.0,8.246211251235321,9.0,9.5,45.0,40.0,43.01162633521314
490,490,12.165525060596439,75.16648189186454,8.06225774829855,17.029386365926403,21.095023109728988,24.020824298928627,14.317821063276353,51.478150704935004,34.52535300326414,28.0,27.0,32.0,15.5,21.5,2.5,6.5,9.219544457292887,10.04987562112089,10.0,45.0,40.0,41.0
491,491,12.041594578792296,75.16648189186454,8.06225774829855,18.110770276274835,23.08679276123039,25.019992006393608,13.341664064126334,51.478150704935004,33.37663853655727,27.0,27.0,32.0,16.5,21.5,2.5,7.5,9.055385138137417,10.04987562112089,10.0,45.0,40.0,40.01249804748511
492,492,12.165525060596439,76.23647421018367,8.0,18.110770276274835,22.090722034374522,24.08318915758459,13.341664064126334,51.478150704935004,33.37663853655727,27.0,26.0,32.0,16.0,22.0,3.0,7.0,9.219544457292887,10.0,10.0,45.0,40.0,42.04759208325728
493,493,11.180339887498949,77.23341245859851,7.0710678118654755,16.1245154965971,22.090722034374522,24.020824298928627,15.297058540778355,49.64876634922564,33.54101966249684,27.5,25.0,31.0,13.0,21.0,4.0,6.0,5.0990195135927845,6.0,6.0,45.0,39.0,40.049968789001575
494,494,11.180339887498949,79.1580697086532,8.06225774829855,16.1245154965971,23.021728866442675,24.0,12.165525060596439,47.51841748206689,31.400636936215164,25.5,24.0,29.0,14.5,20.5,3.5,6.5,3.1622776601683795,5.0990195135927845,4.5,46.0,40.0,40.01249804748511
495,495,11.180339887498949,78.16009211867653,8.0,17.029386365926403,23.08679276123039,24.0,13.601470508735444,49.49747468305833,32.55764119219941,26.5,26.0,31.0,15.5,20.5,2.5,7.5,3.1622776601683795,3.605551275463989,3.0,44.0,40.0,39.01281840626232
496,496,13.152946437965905,79.1012010022604,8.06225774829855,17.029386365926403,23.08679276123039,25.0,13.341664064126334,51.478150704935004,34.52535300326414,27.5,27.0,31.0,16.0,22.0,4.0,8.0,4.123105625617661,4.123105625617661,4.0,46.0,41.0,42.0
497,497,13.038404810405298,80.09993757800315,8.06225774829855,17.11724276862369,23.021728866442675,25.019992006393608,13.341664064126334,51.478150704935004,34.36568055487916,27.5,27.0,31.0,16.0,22.0,4.0,8.0,5.0990195135927845,6.082762530298219,5.5,45.0,41.0,43.0
498,498,16.0312195418814,79.05694150420949,9.055385138137417,17.11724276862369,24.08318915758459,25.0,12.36931687685298,54.45181356024793,37.33630940518894,29.0,29.0,32.0,18.5,23.5,5.5,9.5,6.082762530298219,7.0710678118654755,7.0,47.0,43.0,44.0
499,499,16.1245154965971,79.05694150420949,8.0,16.0312195418814,22.02271554554524,25.0,13.341664064126334,53.33854141237835,37.33630940518894,29.0,29.0,32.0,17.5,22.5,5.5,9.5,8.06225774829855,8.06225774829855,8.5,45.0,43.0,44.01136216933077
500,500,14.142135623730951,80.02499609497022,8.0,16.0312195418814,23.021728866442675,25.0,14.142135623730951,52.23983154643591,36.22154055254967,29.0,30.0,32.0,17.0,21.0,4.0,9.0,8.0,8.06225774829855,8.5,43.0,42.0,43.01162633521314
501,501,14.035668847618199,80.02499609497022,8.06225774829855,16.0312195418814,23.021728866442675,25.0,14.142135623730951,52.23983154643591,36.22154055254967,29.0,30.0,32.0,17.0,21.0,4.0,9.0,8.0,8.06225774829855,8.5,43.0,42.0,43.01162633521314
502,502,14.035668847618199,83.02409288875127,7.0710678118654755,16.1245154965971,24.08318915758459,26.019223662515376,14.142135623730951,51.35172830587107,35.22782990761707,28.0,28.0,30.0,15.0,22.0,5.0,7.0,8.06225774829855,10.04987562112089,10.0,43.0,43.0,44.04543109109048
503,503,13.038404810405298,84.00595217006948,7.0,15.033296378372908,24.020824298928627,26.0,15.132745950421556,50.15974481593781,35.12833614050059,28.5,27.0,28.0,12.5,22.5,6.5,5.5,8.06225774829855,9.0,9.5,43.0,43.0,46.010868281309364
504,504,14.035668847618199,87.02298546935747,7.0,14.035668847618199,25.019992006393608,27.018512172212592,14.142135623730951,49.16299421312742,35.12833614050059,28.0,25.0,23.0,10.0,25.0,10.0,3.0,2.23606797749979,3.0,2.5,42.0,44.0,42.01190307520001
