,frame_seq,m1,m3,m4,m5,m6,m7,m8,m9,m10,m11,m12,m13,m14,m15,m16,m17,e1,e2,e3,b1,b2,b3,label_measures
0,97,3.0,44.04543109109048,5.0,8.0,11.0,12.0,12.0,28.0,20.0,18.5,16.0,18.0,5.0,11.0,2.0,1.0,5.0990195135927845,5.0990195135927845,5.5,17.0,15.0,15.0,{}
1,98,4.0,44.04543109109048,5.0,7.0,10.04987562112089,11.04536101718726,12.0,28.0,21.0,19.0,17.0,19.0,6.0,10.0,2.0,1.0,5.0,6.0,5.5,16.0,14.0,16.0,{}
2,99,3.0,42.04759208325728,5.0,8.0,11.04536101718726,12.041594578792296,12.041594578792296,28.0178514522438,20.024984394500787,18.5,19.0,21.0,8.0,8.0,1.0,3.0,5.0990195135927845,5.0990195135927845,5.5,16.0,13.0,16.0,{}
3,100,1.0,40.01249804748511,6.0,9.0,10.0,12.041594578792296,12.041594578792296,28.0178514522438,19.026297590440446,18.5,20.0,21.0,8.5,7.5,2.5,3.5,6.082762530298219,6.0,5.5,16.0,13.0,15.0,"{'neutral': (['m1', 'm3', 'm12', 'e1', 'e2'], None, 22)}"
4,101,5.0,40.049968789001575,5.0,9.0,11.0,12.0,11.04536101718726,30.01666203960727,21.02379604162864,18.5,21.0,19.0,9.0,10.0,0.0,4.0,5.0,5.0990195135927845,5.0,12.0,13.0,15.132745950421556,"{'neutral': (['m1', 'm3', 'm12', 'e1', 'e2'], None, 22)}"
5,102,5.0990195135927845,39.05124837953327,5.0,10.04987562112089,12.0,13.038404810405298,12.0,32.0,22.02271554554524,19.5,22.0,20.0,9.0,11.0,1.0,4.0,3.0,3.0,3.0,12.0,15.0,15.132745950421556,"{'neutral': (['m1', 'm3', 'm12', 'e1', 'e2'], None, 22)}"
6,103,5.0,41.04875150354759,5.0,9.0,13.0,13.038404810405298,11.0,30.0,21.0,18.5,21.0,19.0,9.0,10.0,1.0,4.0,5.0,5.0990195135927845,4.5,13.0,15.0,14.0356688476182,"{'neutral': (['m1', 'm3', 'm12', 'e1', 'e2'], None, 22)}"
7,104,3.0,41.01219330881976,6.0,9.0,12.0,13.0,11.0,29.0,20.0,18.5,21.0,20.0,9.5,8.5,0.5,3.5,5.0,4.0,4.0,12.0,14.0,14.0356688476182,"{'neutral': (['m1', 'm3', 'm12', 'e1', 'e2'], None, 22)}"
8,105,4.123105625617661,41.01219330881976,5.0,9.055385138137416,12.0,13.0,11.0,29.0,20.024984394500787,18.0,20.0,19.0,8.5,9.5,0.5,3.5,5.0,5.0,5.0,13.0,15.0,14.0356688476182,"{'neutral': (['m1', 'm3', 'm12', 'e1', 'e2'], None, 22)}"
9,106,4.0,40.0,6.0,10.0,12.041594578792296,13.0,11.0,31.0,21.0,19.0,21.0,21.0,10.0,10.0,1.0,4.0,6.0,6.0,6.0,13.0,14.0,14.0356688476182,"{'neutral': (['m1', 'm3', 'm12', 'e1', 'e2'], None, 22)}"
10,107,2.0,41.01219330881976,6.0,10.04987562112089,12.041594578792296,13.0,10.04987562112089,28.0713376952364,18.027756377319943,17.0,19.0,20.0,9.5,8.5,2.5,3.5,6.0,6.0,5.5,13.0,14.0,15.033296378372908,"{'neutral': (['m1', 'm3', 'm12', 'e1', 'e2'], None, 22)}"
11,108,5.0990195135927845,41.01219330881976,5.0,9.055385138137416,12.0,14.0356688476182,10.0,29.0,20.024984394500787,17.5,19.0,20.0,9.5,9.5,0.5,4.5,4.0,4.0,4.5,12.0,13.0,15.033296378372908,"{'neutral': (['m1', 'm3', 'm12', 'e1', 'e2'], None, 22)}"
12,109,5.0,38.01315561749642,5.0,9.0,12.0,13.038404810405298,10.0,29.0,20.0,17.5,19.0,20.0,9.5,9.5,0.5,4.5,5.0990195135927845,5.0990195135927845,4.5,14.0,14.0,15.033296378372908,"{'neutral': (['m1', 'm3', 'm12', 'e1', 'e2'], None, 22)}"
13,110,5.0,39.01281840626232,6.0,8.06225774829855,12.0,13.0,10.0,29.017236257093817,21.0,18.5,20.0,19.0,9.5,9.5,0.5,4.5,3.0,4.0,3.5,14.0,14.0,14.0,"{'neutral': (['m1', 'm3', 'm12', 'e1', 'e2'], None, 22)}"
14,111,3.0,42.0,5.0,9.0,13.038404810405298,14.0,11.0,28.0,19.0,17.5,19.0,19.0,8.0,9.0,1.0,3.0,4.0,5.0990195135927845,4.5,12.0,14.0,13.038404810405298,"{'neutral': (['m1', 'm3', 'm12', 'e1', 'e2'], None, 22)}"
15,112,4.0,42.01190307520001,5.0,9.0,12.041594578792296,13.038404810405298,11.04536101718726,29.017236257093817,20.024984394500787,18.0,19.0,18.0,7.5,10.5,0.5,3.5,5.0990195135927845,5.0990195135927845,4.5,12.0,14.0,14.142135623730953,"{'neutral': (['m1', 'm3', 'm12', 'e1', 'e2'], None, 22)}"
16,113,4.0,43.01162633521314,6.0,9.0,12.0,14.0356688476182,10.0,29.0,20.0,18.0,19.0,18.0,8.5,10.5,0.5,3.5,5.0,6.0,5.5,12.0,14.0,14.0356688476182,"{'neutral': (['m1', 'm3', 'm12', 'e1', 'e2'], None, 22)}"
17,114,5.0,43.01162633521314,5.0,8.06225774829855,12.0,13.0,11.0,29.017236257093817,21.0,18.5,19.0,18.0,7.5,10.5,1.5,2.5,5.0,5.0,5.0,13.0,14.0,14.0356688476182,"{'neutral': (['m1', 'm3', 'm12', 'e1', 'e2'], None, 22)}"
18,115,5.0,44.0,5.0,9.0,12.0,12.0,12.041594578792296,31.016124838541646,22.02271554554524,19.5,19.0,19.0,7.0,12.0,2.0,3.0,6.0,7.071067811865476,6.5,12.0,14.0,16.0312195418814,"{'neutral': (['m1', 'm3', 'm12', 'e1', 'e2'], None, 22)}"
19,116,6.0,44.0,4.0,7.071067811865476,12.0,13.0,12.041594578792296,29.0,22.02271554554524,19.0,18.0,18.0,6.0,11.0,3.0,2.0,4.0,5.0,4.5,14.0,15.0,13.038404810405298,"{'neutral': (['m1', 'm3', 'm12', 'e1', 'e2'], None, 22)}"
20,117,1.0,44.0,5.0,8.0,12.0,12.0,11.0,25.0,17.0,16.5,17.0,17.0,6.0,8.0,1.0,1.0,5.0,5.0,5.0,14.0,15.0,14.0356688476182,"{'neutral': (['m1', 'm3', 'm12', 'e1', 'e2'], None, 22)}"
21,118,1.0,44.0,5.0,8.0,11.0,12.0,11.0,25.0,17.0,16.5,17.0,17.0,6.0,8.0,1.0,1.0,3.1622776601683795,4.0,3.5,13.0,14.0,13.152946437965904,"{'neutral': (['m1', 'm3', 'm12', 'e1', 'e2'], None, 22)}"
22,119,1.0,43.0,5.0,9.0,12.0,13.0,11.0,26.0,17.0,16.5,17.0,17.0,6.0,9.0,0.0,1.0,3.0,3.1622776601683795,3.0,14.0,14.0,15.033296378372908,"{'neutral': (['m1', 'm3', 'm12', 'e1', 'e2'], None, 22)}"
23,120,3.0,42.01190307520001,5.0,8.0,11.04536101718726,12.0,11.0,27.0,19.0,17.5,18.0,17.0,6.5,9.5,0.5,2.5,4.0,5.0,4.5,13.0,15.0,15.0,"{'neutral': (['m1', 'm3', 'm12', 'e1', 'e2'], None, 22)}"
24,121,4.0,43.01162633521314,5.0,9.0,13.0,13.0,11.0,29.0,20.0,18.0,18.0,17.0,6.5,11.5,2.5,1.5,5.0,6.0,5.0,12.0,15.0,14.142135623730953,"{'neutral': (['m1', 'm3', 'm12', 'e1', 'e2'], None, 22)}"
25,122,4.0,43.0,5.0,10.04987562112089,12.0,13.038404810405298,11.04536101718726,30.0,20.024984394500787,18.0,18.0,18.0,7.0,12.0,2.0,2.0,4.0,5.0990195135927845,4.5,13.0,15.0,15.033296378372908,"{'neutral': (['m1', 'm3', 'm12', 'e1', 'e2'], None, 22)}"
26,123,2.0,43.0,6.0,11.0,11.0,13.0,11.04536101718726,30.01666203960727,19.026297590440446,18.0,18.0,18.0,7.0,12.0,1.0,2.0,5.0,6.0,5.5,13.0,15.0,15.033296378372908,"{'neutral': (['m1', 'm3', 'm12', 'e1', 'e2'], None, 22)}"
27,124,1.0,42.0,6.0,10.0,13.0,13.038404810405298,11.0,28.0,18.0,17.5,18.0,18.0,7.0,10.0,0.0,1.0,5.0,5.0990195135927845,4.5,13.0,15.0,14.0356688476182,"{'neutral': (['m1', 'm3', 'm12', 'e1', 'e2'], None, 22)}"
28,125,2.0,42.0,6.0,10.0,12.0,13.038404810405298,11.0,29.0,19.0,18.0,18.0,18.0,7.0,11.0,0.0,1.0,4.0,5.0990195135927845,5.0,12.0,14.0,14.0356688476182,"{'neutral': (['m1', 'm3', 'm12', 'e1', 'e2'], None, 22)}"
29,126,2.0,40.01249804748511,6.082762530298219,10.0,12.0,13.038404810405298,10.04987562112089,28.0,18.0,17.0,17.0,18.0,7.5,10.5,0.5,1.5,4.123105625617661,4.0,3.5,13.0,13.0,15.0,"{'neutral': (['m1', 'm3', 'm12', 'e1', 'e2'], None, 22)}"
30,127,2.0,42.0,6.0,11.0,13.0,13.0,10.0,29.0,18.0,17.0,18.0,18.0,8.0,11.0,1.0,2.0,4.0,5.0,5.0,13.0,13.0,14.0356688476182,"{'neutral': (['m1', 'm3', 'm12', 'e1', 'e2'], None, 22)}"
31,128,3.0,43.0,6.082762530298219,10.0,12.0,14.0356688476182,11.04536101718726,30.0,20.0,18.5,19.0,19.0,8.0,11.0,0.0,2.0,4.123105625617661,4.0,3.5,13.0,13.0,15.033296378372908,"{'neutral': (['m1', 'm3', 'm12', 'e1', 'e2'], None, 22)}"
32,129,3.0,42.01190307520001,6.082762530298219,10.0,13.0,14.0356688476182,10.04987562112089,29.0,19.0,17.5,17.0,18.0,7.5,11.5,0.5,1.5,4.0,5.0,4.5,12.0,13.0,14.0356688476182,"{'neutral': (['m1', 'm3', 'm12', 'e1', 'e2'], None, 22)}"
33,130,1.4142135623730951,40.0,6.0,8.0,11.0,12.0,10.0,25.019992006393608,17.029386365926403,16.5,17.0,17.0,7.0,8.0,1.0,2.0,5.0,5.0,5.0,13.0,13.0,15.033296378372908,{}
34,131,2.0,41.0,5.0,8.06225774829855,11.0,12.0,10.0,25.019992006393608,17.0,16.0,17.0,17.0,7.0,8.0,1.0,2.0,4.0,5.0,5.0,12.0,13.0,15.0,{}
35,132,3.0,42.0,6.082762530298219,9.0,12.0,13.0,10.04987562112089,28.0,19.0,17.5,17.0,17.0,7.0,11.0,1.0,2.0,5.0,5.0990195135927845,4.5,13.0,14.0,15.033296378372908,{}
36,133,4.0,42.0,5.0,9.0,13.0,14.0356688476182,11.04536101718726,29.017236257093817,20.024984394500787,18.0,18.0,18.0,7.0,11.0,1.0,2.0,4.0,5.0990195135927845,5.0,13.0,13.0,16.0312195418814,{}
37,134,5.0,42.0,5.0,10.04987562112089,12.0,13.0,11.04536101718726,31.0,21.02379604162864,18.5,18.0,18.0,7.0,13.0,2.0,2.0,5.0,5.0990195135927845,5.0,13.0,13.0,15.0,{}
38,135,6.0,43.0,5.0,10.04987562112089,12.0,13.0,11.180339887498947,32.01562118716424,22.09072203437452,19.0,19.0,19.0,8.0,13.0,2.0,3.0,5.0,5.0990195135927845,5.0,13.0,14.0,14.0356688476182,{}
39,136,8.0,44.0,5.0,11.04536101718726,13.0,14.0356688476182,10.198039027185567,34.0147027033899,23.08679276123039,19.0,18.0,18.0,8.0,16.0,4.0,3.0,5.0990195135927845,5.0,4.5,14.0,14.0,15.033296378372908,{}
40,137,7.0,42.01190307520001,5.0,9.055385138137416,12.0,13.038404810405298,10.198039027185567,31.016124838541646,22.09072203437452,18.5,18.0,19.0,8.5,12.5,2.5,3.5,5.0990195135927845,4.0,4.0,13.0,14.0,15.033296378372908,{}
41,138,4.123105625617661,43.01162633521314,6.0,9.0,12.041594578792296,13.038404810405298,10.198039027185567,29.017236257093817,20.024984394500787,18.0,17.0,18.0,7.5,11.5,1.5,1.5,4.0,4.123105625617661,4.0,12.0,12.0,16.0312195418814,{}
42,139,2.0,42.0,6.0,8.0,12.0,12.041594578792296,10.04987562112089,26.019223662515376,18.027756377319943,17.0,17.0,17.0,7.0,9.0,0.0,2.0,4.0,4.0,4.0,13.0,13.0,14.0356688476182,{}
43,140,2.0,43.01162633521314,5.0,9.0,13.0,13.038404810405298,10.04987562112089,26.019223662515376,17.029386365926403,16.0,16.0,17.0,6.5,9.5,0.5,1.5,4.123105625617661,4.0,4.0,13.0,13.0,15.033296378372908,{}
44,141,2.23606797749979,43.01162633521314,5.0,9.0,12.0,13.038404810405298,11.04536101718726,27.0,18.0,17.0,17.0,18.0,6.5,9.5,0.5,1.5,5.0,5.0990195135927845,5.0,13.0,13.0,15.0,{}
45,142,3.0,42.01190307520001,5.0,9.055385138137416,12.0,12.041594578792296,11.04536101718726,28.0,19.026297590440446,17.5,17.0,18.0,6.5,10.5,0.5,1.5,5.0,6.082762530298219,5.0,13.0,13.0,16.0312195418814,{}
46,143,3.0,42.0,5.0,8.0,11.0,12.0,11.04536101718726,27.018512172212592,19.026297590440446,17.5,18.0,18.0,7.0,9.0,0.0,2.0,5.0,5.0990195135927845,5.0,12.0,12.0,16.0,{}
47,144,3.0,43.0,6.0,9.055385138137416,12.0,13.0,10.04987562112089,28.0,19.026297590440446,17.5,17.0,17.0,7.0,11.0,1.0,2.0,4.0,5.0990195135927845,5.0,12.0,12.0,15.033296378372908,{}
48,145,2.0,42.04759208325728,6.0,10.04987562112089,12.0,13.038404810405298,10.04987562112089,28.0,18.027756377319943,17.0,16.0,18.0,7.0,11.0,0.0,2.0,4.0,4.0,4.0,12.0,12.0,14.0356688476182,{}
49,146,4.123105625617661,39.01281840626232,5.0,9.0,11.0,12.041594578792296,12.041594578792296,30.0,21.0,19.0,18.0,19.0,6.5,11.5,1.5,1.5,4.123105625617661,4.123105625617661,4.0,12.0,13.0,13.0,{}
50,147,1.0,37.01351104664349,6.0,11.04536101718726,11.04536101718726,12.16552506059644,11.04536101718726,29.0,18.027756377319943,17.5,18.0,19.0,7.5,10.5,1.5,1.5,5.0,5.0990195135927845,4.5,13.0,14.0,15.0,{}
51,148,1.0,38.05259518088089,7.0,10.04987562112089,10.04987562112089,11.04536101718726,11.04536101718726,29.0,19.026297590440446,18.5,18.0,20.0,8.0,10.0,1.0,1.0,5.0,6.082762530298219,5.5,12.0,14.0,15.0,{}
52,149,2.0,36.05551275463989,6.0,10.04987562112089,11.0,12.041594578792296,11.0,29.017236257093817,19.0,18.0,18.0,20.0,8.0,10.0,1.0,2.0,4.0,5.0,4.5,13.0,13.0,14.0356688476182,{}
53,150,4.0,39.01281840626232,6.0,10.04987562112089,12.0,13.038404810405298,11.04536101718726,31.0,21.02379604162864,19.0,19.0,20.0,8.5,11.5,0.5,3.5,4.123105625617661,4.123105625617661,4.0,13.0,13.0,15.0,{}
54,151,6.082762530298219,39.05124837953327,6.0,11.0,11.04536101718726,12.0,10.04987562112089,33.0,22.0,19.0,18.0,20.0,9.0,14.0,2.0,3.0,5.0,5.0,4.5,14.0,13.0,14.0,{}
55,152,5.0,40.049968789001575,4.0,8.06225774829855,11.0,13.038404810405298,11.04536101718726,28.0,20.024984394500787,17.5,17.0,19.0,7.0,10.0,1.0,3.0,5.0990195135927845,5.0990195135927845,5.0,13.0,12.0,14.0,{}
56,153,2.0,39.05124837953327,5.0,9.055385138137416,10.0,11.0,10.04987562112089,26.0,17.029386365926403,16.0,16.0,18.0,7.0,9.0,1.0,2.0,3.0,4.0,3.5,12.0,12.0,14.0,{}
57,154,2.0,42.01190307520001,5.0990195135927845,8.0,12.0,12.041594578792296,10.04987562112089,25.0,17.0,16.0,16.0,17.0,6.5,8.5,0.5,1.5,3.0,4.123105625617661,4.0,12.0,13.0,15.0,{}
58,155,1.0,42.01190307520001,6.0,8.0,12.0,12.0,10.04987562112089,25.019992006393608,17.029386365926403,16.5,16.0,17.0,6.5,8.5,0.5,1.5,4.123105625617661,4.0,4.0,13.0,13.0,15.0,{}
59,156,5.0,43.01162633521314,5.0,9.0,12.0,13.038404810405298,11.04536101718726,30.01666203960727,21.02379604162864,18.5,17.0,18.0,6.5,12.5,2.5,2.5,4.0,4.0,4.0,13.0,12.0,13.038404810405298,{}
60,157,6.0,44.0,5.0,9.055385138137416,13.038404810405298,14.0356688476182,11.180339887498947,31.016124838541646,22.09072203437452,19.0,18.0,18.0,7.0,13.0,3.0,2.0,4.123105625617661,4.123105625617661,4.0,13.0,13.0,12.041594578792296,{}
61,158,6.0,43.0,6.0,10.0,12.0,14.0356688476182,10.04987562112089,32.01562118716424,22.02271554554524,19.0,18.0,18.0,8.0,14.0,3.0,3.0,4.0,5.0,4.5,13.0,13.0,14.0356688476182,{}
62,159,5.0,42.01190307520001,5.0,8.06225774829855,12.041594578792296,12.041594578792296,11.180339887498947,29.017236257093817,21.095023109728988,18.5,18.0,19.0,7.5,10.5,1.5,2.5,4.123105625617661,5.0990195135927845,5.0,12.0,12.0,14.0356688476182,{}
63,160,1.0,43.0,6.0,7.0,11.0,12.0,11.04536101718726,25.019992006393608,18.027756377319943,17.5,17.0,17.0,6.0,8.0,0.0,1.0,4.0,5.0990195135927845,5.0,12.0,14.0,14.0356688476182,{}
64,161,1.0,41.01219330881976,6.0,9.0,11.0,11.0,11.0,27.0,18.0,17.5,17.0,16.0,5.5,10.5,0.5,0.5,4.0,5.0,5.0,13.0,13.0,14.0356688476182,{}
65,162,3.0,44.01136216933077,5.0,8.0,12.041594578792296,12.041594578792296,13.152946437965904,29.068883707497267,21.095023109728988,19.5,17.0,18.0,4.5,11.5,2.5,0.5,4.0,4.0,4.0,12.0,12.0,15.033296378372908,{}
66,163,1.0,43.01162633521314,5.0,7.0,11.04536101718726,12.0,13.038404810405298,26.019223662515376,19.026297590440446,18.5,17.0,18.0,4.5,8.5,0.5,0.5,5.0990195135927845,5.0,4.5,13.0,14.0,15.033296378372908,{}
67,164,1.0,42.01190307520001,5.0,9.0,10.0,11.04536101718726,13.038404810405298,28.0178514522438,19.026297590440446,18.5,17.0,18.0,4.5,10.5,0.5,0.5,4.0,5.0,4.5,13.0,12.0,14.0356688476182,{}
68,165,4.123105625617661,44.01136216933077,5.0,7.071067811865476,10.0,12.041594578792296,12.041594578792296,28.0178514522438,21.095023109728988,19.0,17.0,18.0,5.5,10.5,2.5,0.5,4.0,5.0990195135927845,4.5,14.0,13.0,14.0356688476182,{}
69,166,3.0,44.01136216933077,6.0,9.0,11.0,11.04536101718726,12.041594578792296,30.01666203960727,21.02379604162864,19.5,17.0,18.0,5.5,12.5,2.5,0.5,3.0,3.0,3.0,14.0,14.0,15.033296378372908,{}
70,167,2.0,44.04543109109048,6.082762530298219,9.0,10.0,11.04536101718726,11.180339887498947,28.0178514522438,19.026297590440446,18.0,16.0,18.0,6.0,11.0,1.0,0.0,4.0,4.0,4.0,14.0,13.0,14.0356688476182,{}
71,168,4.123105625617661,45.044422518220834,6.082762530298219,9.055385138137416,12.0,12.0,11.180339887498947,30.01666203960727,21.095023109728988,19.0,17.0,19.0,7.0,12.0,2.0,1.0,4.123105625617661,5.0,4.5,15.0,14.0,13.038404810405298,{}
72,169,5.0,44.04543109109048,5.0,8.06225774829855,11.04536101718726,13.038404810405298,12.16552506059644,30.01666203960727,22.09072203437452,19.5,17.0,19.0,6.0,12.0,3.0,1.0,3.0,4.123105625617661,3.5,14.0,12.0,14.0,{}
73,170,6.0,45.09988913511872,5.0,8.0,11.04536101718726,12.041594578792296,12.041594578792296,31.016124838541646,23.021728866442675,20.0,17.0,20.0,6.5,12.5,2.5,0.5,3.0,4.0,4.0,14.0,12.0,14.0356688476182,{}
74,171,5.0990195135927845,46.04345773288535,5.0,9.055385138137416,12.041594578792296,12.041594578792296,12.041594578792296,31.016124838541646,22.09072203437452,19.5,17.0,19.0,6.0,13.0,3.0,1.0,4.123105625617661,4.0,3.5,14.0,12.0,13.038404810405298,{}
75,172,6.082762530298219,47.042533945356304,5.0,9.055385138137416,12.041594578792296,13.038404810405298,11.180339887498947,31.064449134018133,22.20360331117452,19.0,17.0,19.0,7.0,13.0,3.0,2.0,3.1622776601683795,3.1622776601683795,3.0,14.0,12.0,12.0,{}
76,173,6.082762530298219,45.09988913511872,5.0990195135927845,9.055385138137416,11.04536101718726,12.16552506059644,11.40175425099138,31.064449134018133,22.20360331117452,19.0,16.0,19.0,6.5,13.5,3.5,0.5,4.123105625617661,4.0,4.0,13.0,11.0,12.0,{}
77,174,6.0,45.09988913511872,5.0,8.0,12.0,13.038404810405298,11.180339887498947,30.066592756745816,22.09072203437452,19.0,16.0,19.0,6.5,12.5,2.5,1.5,3.0,3.0,3.0,15.0,13.0,13.038404810405298,{}
78,175,7.071067811865476,44.10215414239989,5.0990195135927845,8.0,12.041594578792296,13.038404810405298,11.180339887498947,31.064449134018133,23.08679276123039,19.5,16.0,19.0,6.5,13.5,4.5,1.5,3.0,4.0,3.5,14.0,12.0,13.0,{}
79,176,7.0,45.09988913511872,4.0,7.0,11.04536101718726,13.152946437965904,12.16552506059644,30.066592756745816,23.08679276123039,19.5,16.0,19.0,5.5,12.5,3.5,0.5,3.1622776601683795,3.0,3.0,14.0,11.0,12.0,{}
80,177,6.082762530298219,44.04543109109048,5.0,7.071067811865476,11.04536101718726,12.041594578792296,12.16552506059644,30.066592756745816,23.194827009486403,20.0,17.0,19.0,6.0,12.0,3.0,1.0,3.1622776601683795,3.0,2.5,14.0,12.0,13.038404810405298,{}
81,178,6.082762530298219,45.044422518220834,5.0,8.06225774829855,11.0,12.041594578792296,11.180339887498947,30.066592756745816,22.20360331117452,19.0,17.0,19.0,7.0,12.0,2.0,2.0,4.0,4.0,4.0,14.0,12.0,12.0,{}
82,179,6.082762530298219,46.17358552246078,5.0990195135927845,8.0,12.041594578792296,13.038404810405298,12.16552506059644,31.064449134018133,23.08679276123039,20.0,17.0,21.0,7.0,12.0,2.0,2.0,3.1622776601683795,4.123105625617661,3.5,14.0,12.0,12.0,{}
83,180,5.0990195135927845,45.09988913511872,5.0,9.055385138137416,12.041594578792296,13.152946437965904,12.16552506059644,31.064449134018133,22.20360331117452,19.5,17.0,20.0,6.5,12.5,2.5,1.5,4.123105625617661,5.0,4.5,14.0,12.0,13.0,{}
84,181,6.082762530298219,44.10215414239989,5.0,8.0,12.041594578792296,13.038404810405298,12.16552506059644,31.14482300479488,23.194827009486403,20.0,17.0,20.0,6.5,12.5,2.5,1.5,3.1622776601683795,4.0,3.5,14.0,12.0,13.0,{}
85,182,8.0,45.044422518220834,5.0,9.0,12.041594578792296,13.038404810405298,12.16552506059644,34.058772731852805,25.079872407968907,21.0,18.0,20.0,7.0,15.0,5.0,2.0,3.0,3.0,3.0,14.0,13.0,13.038404810405298,{}
86,183,9.055385138137416,45.044422518220834,6.0,9.0,12.041594578792296,13.038404810405298,11.180339887498947,35.12833614050059,26.1725046566048,21.5,19.0,21.0,9.0,15.0,5.0,3.0,4.0,5.0990195135927845,4.5,14.0,13.0,12.041594578792296,{}
87,184,10.04987562112089,45.09988913511872,6.082762530298219,9.055385138137416,12.041594578792296,14.0356688476182,11.40175425099138,36.05551275463989,27.16615541441225,22.0,18.0,21.0,8.5,16.5,6.5,2.5,4.0,4.0,3.5,13.0,12.0,13.038404810405298,{}
88,185,10.0,45.044422518220834,6.0,9.0,11.04536101718726,13.152946437965904,11.40175425099138,36.12478373637688,27.16615541441225,22.0,19.0,21.0,9.0,16.0,5.0,3.0,4.0,4.0,4.0,14.0,12.0,13.038404810405298,{}
89,186,10.0,45.044422518220834,5.0,10.0,11.0,13.152946437965904,11.180339887498947,36.05551275463989,26.0768096208106,21.0,18.0,20.0,8.0,17.0,5.0,3.0,4.0,4.0,3.5,13.0,12.0,14.0,{}
90,187,10.0,44.04543109109048,5.0,10.0,12.0,13.152946437965904,11.180339887498947,36.05551275463989,26.0768096208106,21.0,18.0,20.0,8.0,17.0,6.0,3.0,4.0,4.0,3.5,13.0,12.0,14.0356688476182,{}
91,188,9.0,45.044422518220834,5.0,8.0,12.041594578792296,13.038404810405298,12.16552506059644,34.058772731852805,26.0768096208106,21.5,18.0,20.0,7.0,15.0,5.0,2.0,4.0,4.123105625617661,3.5,14.0,12.0,14.0356688476182,{}
92,189,8.06225774829855,45.09988913511872,6.082762530298219,9.0,12.041594578792296,13.038404810405298,11.180339887498947,34.058772731852805,25.079872407968907,21.0,17.0,20.0,7.5,15.5,4.5,1.5,4.0,4.123105625617661,3.5,14.0,13.0,15.0,{}
93,190,8.0,45.09988913511872,5.0,9.0,11.04536101718726,13.152946437965904,12.16552506059644,34.058772731852805,25.079872407968907,21.0,17.0,20.0,6.5,15.5,5.5,1.5,4.0,4.0,3.5,13.0,12.0,14.0356688476182,{}
94,191,7.0,44.10215414239989,5.0,9.055385138137416,11.04536101718726,12.041594578792296,12.16552506059644,33.015148038438355,24.08318915758459,20.5,18.0,21.0,7.5,13.5,3.5,2.5,3.0,4.0,3.5,14.0,12.0,13.038404810405298,{}
95,192,8.0,44.10215414239989,5.0,9.055385138137416,11.0,12.041594578792296,11.180339887498947,33.015148038438355,24.08318915758459,20.0,17.0,20.0,7.5,14.5,4.5,2.5,4.0,3.0,3.5,14.0,12.0,14.0,{}
96,193,7.0,45.09988913511872,5.0,9.0,12.041594578792296,13.152946437965904,12.16552506059644,33.06055050963308,24.08318915758459,20.5,17.0,20.0,6.5,14.5,3.5,1.5,4.0,4.0,3.5,14.0,11.0,12.0,{}
97,194,6.082762530298219,46.09772228646444,6.0,10.04987562112089,12.041594578792296,13.152946437965904,11.180339887498947,33.06055050963308,23.194827009486403,20.0,17.0,20.0,7.5,14.5,3.5,1.5,4.123105625617661,4.123105625617661,3.5,14.0,12.0,12.041594578792296,{}
98,195,8.0,44.10215414239989,5.0,8.06225774829855,11.04536101718726,12.041594578792296,12.16552506059644,33.015148038438355,25.079872407968907,21.0,17.0,20.0,6.5,14.5,4.5,1.5,4.0,4.0,3.5,14.0,11.0,13.038404810405298,{}
99,196,8.0,45.09988913511872,6.0,8.0,11.04536101718726,13.038404810405298,11.40175425099138,33.13608305156178,25.179356624028344,21.0,17.0,20.0,7.5,14.5,4.5,1.5,4.123105625617661,4.0,3.5,14.0,12.0,14.0,{}
100,197,8.0,44.10215414239989,6.0,9.055385138137416,11.04536101718726,13.152946437965904,11.180339887498947,34.0147027033899,25.079872407968907,21.0,17.0,20.0,7.5,15.5,4.5,1.5,3.0,4.0,3.5,14.0,12.0,13.0,{}
101,198,8.0,45.09988913511872,5.0,8.0,12.0,13.152946437965904,12.16552506059644,33.06055050963308,25.079872407968907,21.0,17.0,20.0,6.5,14.5,4.5,1.5,4.123105625617661,4.0,4.0,14.0,12.0,14.0,{}
102,199,8.0,44.10215414239989,5.0,9.0,12.0,13.038404810405298,11.180339887498947,33.06055050963308,24.08318915758459,20.0,16.0,19.0,6.5,15.5,5.5,1.5,3.0,4.0,4.0,14.0,12.0,14.0,{}
103,200,7.0,44.04543109109048,5.0,10.0,11.180339887498947,13.038404810405298,12.16552506059644,34.058772731852805,24.08318915758459,20.5,17.0,19.0,6.0,16.0,5.0,0.0,5.0990195135927845,5.0,4.5,18.0,13.0,14.0,{}
104,201,8.0,45.09988913511872,5.0,10.0,12.041594578792296,13.152946437965904,11.180339887498947,34.058772731852805,24.08318915758459,20.0,16.0,19.0,6.5,16.5,4.5,1.5,5.0,4.0,3.5,19.0,13.0,13.038404810405298,{}
105,202,8.06225774829855,44.181444068749045,5.0,10.04987562112089,12.041594578792296,13.152946437965904,11.180339887498947,34.058772731852805,24.186773244895647,20.0,16.0,20.0,7.0,16.0,4.0,1.0,4.123105625617661,4.0,4.0,15.0,12.0,13.0,{}
106,203,8.0,44.10215414239989,5.0,9.055385138137416,12.041594578792296,12.041594578792296,11.180339887498947,33.015148038438355,24.08318915758459,20.0,16.0,19.0,6.5,15.5,4.5,1.5,3.1622776601683795,4.123105625617661,3.5,14.0,11.0,12.041594578792296,{}
107,204,8.0,44.10215414239989,5.0,10.0,11.180339887498947,13.152946437965904,11.180339887498947,34.058772731852805,24.08318915758459,20.0,16.0,19.0,6.5,16.5,4.5,0.5,5.0990195135927845,4.0,3.5,18.0,13.0,15.132745950421556,{}
108,205,5.0,43.10452412450461,6.0,9.055385138137416,11.04536101718726,12.16552506059644,10.198039027185567,30.01666203960727,21.095023109728988,18.5,16.0,19.0,7.5,12.5,2.5,1.5,4.0,4.123105625617661,3.5,15.0,12.0,13.038404810405298,{}
109,206,2.0,40.11234224026316,5.0,8.06225774829855,11.04536101718726,11.180339887498947,12.16552506059644,27.018512172212592,19.1049731745428,18.0,15.0,18.0,4.5,10.5,0.5,0.5,4.123105625617661,5.0,4.5,15.0,12.0,15.0,{}
110,207,1.0,42.04759208325728,4.0,8.0,11.04536101718726,11.04536101718726,12.041594578792296,25.019992006393608,17.029386365926403,16.5,15.0,17.0,4.0,9.0,0.0,0.0,4.123105625617661,5.0990195135927845,4.5,13.0,11.0,12.0,{}
111,208,2.0,42.01190307520001,4.0,8.06225774829855,11.0,12.041594578792296,11.04536101718726,25.0,17.029386365926403,16.0,14.0,15.0,3.5,10.5,1.5,0.5,4.0,5.0,4.5,15.0,13.0,14.0,{}
112,209,5.0,43.01162633521314,4.123105625617661,8.06225774829855,11.0,12.0,12.16552506059644,29.068883707497267,21.213203435596427,18.5,16.0,17.0,4.5,12.5,3.5,0.5,4.123105625617661,5.0,4.5,14.0,13.0,13.038404810405298,{}
113,210,5.0990195135927845,43.01162633521314,5.0,8.0,11.0,12.041594578792296,10.04987562112089,28.0713376952364,20.09975124224178,17.5,15.0,16.0,5.5,12.5,3.5,0.5,4.123105625617661,5.0,4.5,14.0,12.0,14.0356688476182,{}
114,211,4.123105625617661,45.0,5.0,8.0,11.04536101718726,12.041594578792296,11.180339887498947,28.16025568065745,20.223748416156685,18.0,16.0,16.0,5.0,12.0,3.0,0.0,4.0,5.0990195135927845,4.0,14.0,13.0,14.0356688476182,{}
115,212,4.123105625617661,44.01136216933077,5.0,8.0,11.0,12.041594578792296,11.180339887498947,28.16025568065745,20.223748416156685,18.0,16.0,17.0,5.5,11.5,2.5,0.5,4.123105625617661,5.0,4.0,14.0,12.0,13.0,{}
116,213,5.0,44.01136216933077,5.0,7.0,11.04536101718726,11.04536101718726,10.198039027185567,27.073972741361768,20.09975124224178,17.5,15.0,16.0,5.5,11.5,2.5,0.5,4.123105625617661,4.0,3.5,14.0,13.0,13.0,{}
117,214,3.1622776601683795,41.01219330881976,5.0,8.06225774829855,10.0,12.0,11.04536101718726,27.018512172212592,19.1049731745428,17.5,16.0,17.0,5.5,10.5,1.5,0.5,4.0,4.0,3.5,15.0,13.0,13.0,{}
118,215,4.0,42.01190307520001,5.0,8.06225774829855,11.0,12.041594578792296,10.198039027185567,27.018512172212592,19.1049731745428,17.0,16.0,17.0,6.5,10.5,1.5,1.5,4.0,3.0,3.0,12.0,12.0,12.0,{}
119,216,4.0,42.04759208325728,5.0,9.055385138137416,11.0,12.041594578792296,10.04987562112089,28.0,19.026297590440446,17.0,16.0,18.0,7.0,11.0,1.0,2.0,5.0,4.0,4.0,14.0,12.0,13.0,{}
120,217,5.0,42.01190307520001,6.0,9.0,12.0,13.038404810405298,11.04536101718726,31.016124838541646,22.02271554554524,19.5,19.0,20.0,8.5,11.5,1.5,2.5,5.0990195135927845,4.0,4.0,13.0,14.0,14.0,{}
121,218,7.0,41.0,5.0,10.0,11.0,12.0,11.04536101718726,33.015148038438355,23.021728866442675,19.5,20.0,20.0,9.0,13.0,2.0,4.0,6.0,5.0,5.0,13.0,13.0,15.033296378372908,{}
122,219,9.0,41.01219330881976,6.0,9.0,12.041594578792296,13.038404810405298,11.04536101718726,35.0142828000232,26.019223662515376,21.5,21.0,22.0,10.5,13.5,3.5,4.5,5.0990195135927845,5.0,5.0,14.0,13.0,15.033296378372908,{}
123,220,10.0,42.01190307520001,6.0,10.0,11.0,12.041594578792296,11.04536101718726,37.01351104664349,27.018512172212592,22.0,22.0,23.0,11.5,14.5,3.5,5.5,5.0,6.082762530298219,5.5,13.0,14.0,17.029386365926403,{}
124,221,11.0,41.01219330881976,6.0,10.04987562112089,12.041594578792296,13.038404810405298,11.180339887498947,38.01315561749642,28.0713376952364,22.5,22.0,23.0,11.5,15.5,4.5,5.5,5.0,6.0,6.0,13.0,14.0,15.033296378372908,{}
125,222,11.04536101718726,41.04875150354759,6.0,10.04987562112089,12.0,13.0,11.04536101718726,38.01315561749642,28.0713376952364,22.5,22.0,24.0,12.0,15.0,4.0,6.0,6.082762530298219,6.0,6.0,13.0,14.0,15.033296378372908,{}
126,223,9.0,41.01219330881976,7.0,11.04536101718726,12.041594578792296,13.0,10.04987562112089,37.0,26.019223662515376,21.5,22.0,23.0,12.5,14.5,2.5,5.5,6.0,6.0,6.0,14.0,15.0,16.0312195418814,{}
127,224,6.0,42.01190307520001,7.0,11.04536101718726,12.0,13.0,10.04987562112089,34.0,23.021728866442675,20.0,21.0,22.0,11.5,12.5,0.5,4.5,6.0,6.082762530298219,6.0,14.0,14.0,16.0312195418814,{}
128,225,6.0,43.01162633521314,6.082762530298219,9.0,12.0,12.0,11.04536101718726,32.0,23.0,20.0,21.0,22.0,10.5,10.5,0.5,4.5,6.0,6.0,6.0,13.0,13.0,16.0312195418814,{}
129,226,6.0,43.01162633521314,6.082762530298219,10.04987562112089,11.0,12.0,10.04987562112089,32.01562118716424,22.0,19.0,20.0,21.0,10.5,11.5,0.5,4.5,6.0,6.082762530298219,6.0,13.0,14.0,14.0356688476182,{}
130,227,2.0,42.01190307520001,7.0,10.04987562112089,12.0,13.038404810405298,12.041594578792296,31.0,21.02379604162864,20.0,20.0,21.0,8.5,10.5,0.5,2.5,6.082762530298219,7.0,7.0,14.0,15.0,13.038404810405298,{}
131,228,1.0,40.01249804748511,6.0,9.0,10.0,11.04536101718726,13.152946437965904,28.0178514522438,19.026297590440446,19.0,19.0,20.0,6.5,8.5,1.5,1.5,6.0,6.082762530298219,6.0,13.0,14.0,14.0356688476182,{}
132,229,1.0,41.0,6.0,9.0,10.04987562112089,11.0,13.038404810405298,28.0,19.0,19.0,20.0,20.0,7.0,8.0,2.0,1.0,6.0,7.071067811865476,7.0,12.0,13.0,14.0356688476182,{}
133,230,0.0,41.01219330881976,6.0,9.055385138137416,10.0,11.0,13.038404810405298,28.0,19.026297590440446,19.0,19.0,20.0,6.5,8.5,1.5,1.5,5.0,6.0,6.0,12.0,14.0,13.038404810405298,{}
134,231,1.0,43.01162633521314,6.0,9.055385138137416,11.04536101718726,12.041594578792296,13.038404810405298,29.0,20.024984394500787,19.5,19.0,20.0,6.5,9.5,0.5,0.5,6.0,7.071067811865476,7.0,13.0,13.0,14.0356688476182,{}
135,232,2.0,41.04875150354759,6.0,9.055385138137416,10.04987562112089,11.04536101718726,11.04536101718726,28.0,19.026297590440446,18.0,18.0,20.0,8.0,9.0,2.0,2.0,6.0,6.082762530298219,6.0,13.0,14.0,13.038404810405298,{}
136,233,1.0,41.04875150354759,6.0,10.04987562112089,10.04987562112089,11.0,11.04536101718726,28.0,18.027756377319943,17.5,18.0,20.0,8.0,9.0,2.0,2.0,6.0,6.0,6.0,13.0,14.0,14.0,{}
137,234,1.0,41.01219330881976,6.0,10.0,10.0,12.041594578792296,11.0,28.0,18.0,17.5,19.0,20.0,8.5,8.5,2.5,2.5,6.082762530298219,7.0,7.0,13.0,14.0,14.0,{}
138,235,1.4142135623730951,40.049968789001575,6.0,9.0,10.04987562112089,11.04536101718726,11.04536101718726,27.0,18.0,17.5,18.0,20.0,8.0,8.0,3.0,2.0,6.082762530298219,7.0,6.5,13.0,14.0,14.0,{}
139,236,0.0,41.0,5.0,9.0,10.0,11.04536101718726,12.0,26.0,17.0,17.0,19.0,19.0,7.0,7.0,2.0,2.0,6.082762530298219,7.071067811865476,6.5,13.0,13.0,13.0,{}
140,237,3.0,41.0,5.0,10.0,11.0,12.0,12.0,30.0,20.0,18.5,20.0,20.0,8.0,10.0,0.0,3.0,6.082762530298219,6.082762530298219,6.0,13.0,14.0,15.0,{}
141,238,5.0,42.0,6.0,9.0,10.04987562112089,12.0,11.04536101718726,31.016124838541646,22.02271554554524,19.5,20.0,20.0,9.0,11.0,1.0,3.0,7.0,7.071067811865476,7.0,12.0,13.0,13.038404810405298,{}
142,239,4.0,42.01190307520001,5.0,7.071067811865476,11.0,12.0,12.041594578792296,28.0,21.02379604162864,19.0,19.0,20.0,7.5,8.5,0.5,2.5,7.0,7.071067811865476,7.0,14.0,14.0,14.0356688476182,{}
143,240,1.0,45.0,5.0,8.06225774829855,11.04536101718726,12.041594578792296,12.041594578792296,26.0,18.027756377319943,17.5,18.0,18.0,6.0,8.0,1.0,1.0,7.0,6.082762530298219,6.0,13.0,14.0,15.033296378372908,{}
144,241,3.0,44.0,6.0,8.06225774829855,11.0,12.0,11.04536101718726,28.0,20.024984394500787,18.5,18.0,18.0,7.0,10.0,1.0,2.0,6.082762530298219,6.082762530298219,6.0,13.0,13.0,14.0356688476182,{}
145,242,4.123105625617661,48.0,5.0,8.06225774829855,12.041594578792296,13.038404810405298,13.152946437965904,30.066592756745816,22.20360331117452,20.0,17.0,17.0,4.0,13.0,4.0,1.0,6.0,6.082762530298219,5.5,13.0,13.0,13.038404810405298,{}
146,243,1.0,48.010415536631214,5.0,7.0,11.0,11.04536101718726,12.16552506059644,25.079872407968907,18.110770276274835,17.5,15.0,16.0,3.5,9.5,1.5,1.5,5.0990195135927845,6.082762530298219,5.5,15.0,13.0,16.0312195418814,{}
147,244,2.0,49.04079934095692,4.0,7.0,11.04536101718726,13.038404810405298,13.341664064126334,26.1725046566048,19.235384061671343,18.0,14.0,16.0,2.0,11.0,3.0,2.0,4.123105625617661,5.0990195135927845,5.0,15.0,12.0,14.0,{}
148,245,5.0990195135927845,47.01063709417264,5.0,8.0,11.04536101718726,12.041594578792296,12.16552506059644,30.14962686336267,22.20360331117452,19.5,16.0,17.0,4.5,13.5,4.5,0.5,5.0990195135927845,6.082762530298219,5.5,14.0,12.0,16.0,{}
149,246,7.0,44.10215414239989,6.0,10.0,11.04536101718726,12.16552506059644,12.36931687685298,35.12833614050059,25.179356624028344,21.5,17.0,20.0,6.5,16.5,4.5,0.5,5.0990195135927845,6.082762530298219,5.5,16.0,13.0,15.0,{}
150,247,2.0,35.22782990761707,6.0,9.0,8.06225774829855,10.198039027185567,14.0356688476182,31.016124838541646,22.02271554554524,21.0,19.0,23.0,7.0,10.0,0.0,1.0,5.0990195135927845,5.0990195135927845,4.5,14.0,11.0,14.0,{}
151,248,2.0,32.14031735997639,5.0,9.0,7.071067811865476,9.055385138137416,13.038404810405298,29.017236257093817,20.024984394500787,19.0,19.0,22.0,7.5,8.5,1.5,1.5,4.0,5.0,5.0,15.0,12.0,13.0,{}
152,249,2.0,32.55764119219941,5.0,8.0,7.280109889280518,8.246211251235321,14.142135623730953,29.068883707497267,21.095023109728988,20.0,18.0,24.0,7.0,8.0,1.0,1.0,4.0,6.0,5.5,15.0,12.0,14.0356688476182,{}
153,250,2.0,31.400636936215164,5.0,8.0,6.082762530298219,7.280109889280518,14.0356688476182,29.017236257093817,21.02379604162864,20.0,20.0,25.0,8.5,6.5,2.5,2.5,5.0,6.0,5.5,16.0,13.0,14.0356688476182,{}
154,251,1.0,32.2490309931942,4.0,7.0,6.082762530298219,7.071067811865476,15.0,27.0,20.0,19.5,20.0,24.0,7.0,5.0,2.0,2.0,5.0990195135927845,5.0,4.5,16.0,12.0,14.0,{}
155,252,1.0,33.06055050963308,4.0,5.0,7.071067811865476,7.071067811865476,14.0,22.0,17.0,17.5,18.0,20.0,5.0,3.0,3.0,1.0,4.0,5.0,4.5,16.0,12.0,12.041594578792296,{}
156,253,4.0,36.05551275463989,4.0,6.0,8.0,9.055385138137416,13.038404810405298,27.018512172212592,21.02379604162864,19.0,18.0,20.0,6.0,8.0,1.0,2.0,4.123105625617661,4.123105625617661,4.0,15.0,12.0,13.038404810405298,{}
157,254,5.0990195135927845,38.01315561749642,4.0,7.071067811865476,9.0,10.04987562112089,13.038404810405298,29.017236257093817,22.09072203437452,19.5,18.0,19.0,5.5,10.5,2.5,1.5,4.123105625617661,4.0,4.0,14.0,12.0,13.0,{}
158,255,5.0990195135927845,37.0,6.0,10.0,9.0,11.0,12.041594578792296,33.06055050963308,23.08679276123039,20.5,20.0,20.0,8.0,13.0,2.0,2.0,5.0,5.0,4.5,14.0,13.0,14.0356688476182,{}
159,256,5.0,38.05259518088089,5.0,10.0,9.0,11.04536101718726,12.16552506059644,32.0624390837628,22.09072203437452,19.5,18.0,20.0,7.0,13.0,2.0,2.0,4.123105625617661,4.123105625617661,4.0,14.0,12.0,14.0356688476182,{}
160,257,2.0,38.01315561749642,6.0,10.0,10.0,11.04536101718726,12.041594578792296,30.01666203960727,20.024984394500787,19.0,19.0,20.0,7.5,10.5,0.5,1.5,5.0,5.0990195135927845,5.0,14.0,14.0,15.033296378372908,{}
161,258,1.0,39.05124837953327,6.0,9.0,10.04987562112089,11.04536101718726,13.0,29.0,20.0,19.5,19.0,21.0,7.0,9.0,1.0,1.0,5.0990195135927845,5.0990195135927845,4.5,13.0,13.0,13.038404810405298,{}
162,259,1.0,38.01315561749642,6.0,9.055385138137416,9.055385138137416,10.0,12.0,28.0178514522438,19.0,18.5,19.0,20.0,7.5,8.5,1.5,1.5,6.0,5.0,5.0,13.0,14.0,15.033296378372908,{}
163,260,0.0,38.05259518088089,7.0,9.0,9.055385138137416,10.0,12.0,28.0,19.0,19.0,19.0,21.0,8.0,8.0,2.0,1.0,6.082762530298219,6.0,5.5,13.0,13.0,13.038404810405298,{}
164,261,1.4142135623730951,38.05259518088089,6.0,9.0,9.0,10.0,12.0,28.0178514522438,19.026297590440446,18.5,19.0,21.0,8.0,8.0,2.0,2.0,5.0,5.0,5.0,14.0,14.0,13.0,{}
165,262,0.0,38.11823710509184,6.082762530298219,9.055385138137416,10.04987562112089,11.04536101718726,13.038404810405298,28.0178514522438,19.0,19.0,19.0,22.0,7.5,7.5,2.5,1.5,6.0,6.0,6.0,13.0,14.0,14.0356688476182,{}
166,263,1.0,38.11823710509184,6.0,9.055385138137416,9.055385138137416,10.04987562112089,12.0,28.0178514522438,19.0,18.5,18.0,21.0,7.5,8.5,1.5,1.5,6.0,6.0,6.0,14.0,14.0,14.0356688476182,{}
167,264,1.0,38.01315561749642,6.0,9.055385138137416,10.04987562112089,11.0,13.0,29.017236257093817,20.0,19.5,20.0,21.0,7.5,8.5,1.5,1.5,6.082762530298219,6.0,6.0,13.0,14.0,14.0356688476182,{}
168,265,1.0,38.01315561749642,7.0,10.04987562112089,10.04987562112089,11.0,12.0,30.01666203960727,20.0,19.5,21.0,22.0,9.5,8.5,2.5,2.5,6.082762530298219,7.0,6.5,14.0,14.0,13.038404810405298,{}
169,266,2.23606797749979,38.01315561749642,6.0,9.0,10.0,10.04987562112089,13.0,30.01666203960727,21.02379604162864,20.0,21.0,22.0,8.5,8.5,1.5,2.5,6.0,6.0,6.0,14.0,15.0,14.0356688476182,{}
170,267,1.0,39.05124837953327,7.0,10.04987562112089,10.04987562112089,11.0,12.041594578792296,30.066592756745816,20.024984394500787,19.5,20.0,22.0,9.0,9.0,1.0,2.0,6.082762530298219,7.0,7.0,14.0,15.0,14.0356688476182,{}
171,268,1.0,39.01281840626232,7.0,10.04987562112089,10.0,11.0,13.0,31.016124838541646,21.0,20.5,21.0,22.0,8.5,9.5,1.5,2.5,6.0,7.0,7.0,15.0,15.0,16.0312195418814,{}
172,269,2.0,42.01190307520001,7.0,9.055385138137416,10.04987562112089,11.0,12.0,30.01666203960727,21.0,20.0,20.0,21.0,8.5,9.5,0.5,1.5,6.082762530298219,7.0,7.0,15.0,15.0,15.033296378372908,{}
173,270,2.0,44.04543109109048,8.06225774829855,11.04536101718726,11.04536101718726,12.041594578792296,12.041594578792296,33.015148038438355,22.0,21.0,20.0,22.0,9.0,12.0,0.0,1.0,6.082762530298219,7.0,6.5,14.0,14.0,15.0,{}
174,271,3.0,47.01063709417264,7.0,10.04987562112089,12.041594578792296,13.038404810405298,12.041594578792296,32.0,22.02271554554524,20.5,19.0,20.0,7.5,12.5,1.5,0.5,6.0,6.082762530298219,6.0,14.0,14.0,15.0,{}
175,272,7.0,50.00999900019995,6.0,9.0,13.0,14.0,12.36931687685298,34.132096331752024,25.179356624028344,21.5,19.0,20.0,7.5,14.5,4.5,1.5,6.082762530298219,6.082762530298219,6.0,14.0,15.0,15.033296378372908,{}
176,273,5.0990195135927845,50.00999900019995,6.0,9.055385138137416,13.0,13.0,13.152946437965904,33.06055050963308,24.186773244895647,21.5,19.0,18.0,5.5,14.5,4.5,0.5,5.0990195135927845,6.082762530298219,6.0,13.0,14.0,15.033296378372908,{}
177,274,6.082762530298219,51.0,6.0,9.055385138137416,13.038404810405298,14.0,12.16552506059644,33.06055050963308,24.186773244895647,21.0,18.0,18.0,6.0,15.0,5.0,1.0,6.0,6.082762530298219,5.5,13.0,14.0,14.0356688476182,{}
178,275,5.0,49.01020301937138,6.0,9.0,12.0,13.0,13.152946437965904,33.06055050963308,24.08318915758459,21.5,19.0,18.0,5.5,14.5,4.5,0.5,6.0,6.0,6.0,13.0,15.0,15.033296378372908,{}
179,276,6.0,50.00999900019995,5.0,9.0,12.0,13.0,13.152946437965904,33.06055050963308,24.08318915758459,21.0,19.0,18.0,5.5,14.5,4.5,0.5,6.082762530298219,6.082762530298219,6.0,13.0,15.0,15.033296378372908,{}
180,277,5.0,47.01063709417264,6.0,9.0,12.0,13.0,13.152946437965904,33.06055050963308,24.08318915758459,21.5,20.0,19.0,6.5,13.5,4.5,0.5,6.082762530298219,6.082762530298219,6.0,13.0,15.0,15.033296378372908,{}
181,278,7.0,48.010415536631214,5.0,9.0,12.0,13.0,12.16552506059644,33.06055050963308,24.08318915758459,20.5,18.0,17.0,5.5,15.5,5.5,0.5,4.0,4.0,4.0,14.0,13.0,14.0,{}
182,279,6.0,47.01063709417264,5.0,9.0,11.0,12.0,13.341664064126334,33.13608305156178,24.186773244895647,21.0,19.0,20.0,6.5,13.5,4.5,1.5,4.0,4.0,4.0,14.0,13.0,13.038404810405298,{}
183,280,4.0,44.01136216933077,6.0,10.0,11.04536101718726,11.04536101718726,13.152946437965904,33.06055050963308,23.08679276123039,21.0,19.0,20.0,6.5,13.5,2.5,0.5,4.123105625617661,4.0,3.5,14.0,13.0,14.0,{}
184,281,5.0990195135927845,42.04759208325728,6.0,9.0,10.0,11.04536101718726,14.0356688476182,34.058772731852805,25.079872407968907,22.5,21.0,23.0,8.0,12.0,1.0,2.0,3.0,4.0,3.0,16.0,14.0,14.0,{}
185,282,4.0,39.11521443121589,6.082762530298219,10.04987562112089,8.06225774829855,9.219544457292889,14.0356688476182,34.132096331752024,24.08318915758459,22.0,20.0,23.0,7.5,12.5,1.5,1.5,4.0,4.123105625617661,3.5,15.0,13.0,12.041594578792296,{}
186,283,3.1622776601683795,38.3275357934736,6.0,10.0,8.06225774829855,10.198039027185567,14.0,33.015148038438355,23.021728866442675,21.5,19.0,24.0,7.5,11.5,0.5,1.5,4.0,4.123105625617661,4.0,17.0,14.0,13.0,{}
187,284,4.123105625617661,37.21558813185679,6.0,10.04987562112089,8.06225774829855,9.219544457292889,14.0356688476182,34.132096331752024,24.08318915758459,22.0,19.0,23.0,7.0,13.0,1.0,1.0,5.0,6.082762530298219,5.5,16.0,13.0,12.0,{}
188,285,3.0,38.2099463490856,6.082762530298219,9.055385138137416,8.06225774829855,9.486832980505138,14.0,32.0624390837628,23.021728866442675,21.5,18.0,22.0,6.0,12.0,1.0,0.0,4.123105625617661,5.0990195135927845,4.5,16.0,13.0,12.0,{}
189,286,3.1622776601683795,38.3275357934736,5.0,9.0,8.246211251235321,9.219544457292889,14.0,31.016124838541646,22.02271554554524,20.5,17.0,22.0,5.5,11.5,1.5,0.5,4.0,5.0,5.0,16.0,13.0,12.0,{}
190,287,4.0,40.311288741492746,5.0990195135927845,7.071067811865476,9.219544457292889,9.219544457292889,13.038404810405298,29.154759474226505,22.09072203437452,20.0,16.0,21.0,5.5,10.5,1.5,0.5,4.0,5.0,4.5,16.0,12.0,12.0,{}
191,288,2.0,40.19950248448356,6.0,8.06225774829855,8.06225774829855,10.198039027185567,13.038404810405298,29.068883707497267,21.02379604162864,20.0,17.0,21.0,6.0,10.0,0.0,0.0,5.0,5.0,4.5,16.0,13.0,13.0,{}
192,289,2.0,40.19950248448356,6.082762530298219,8.0,8.06225774829855,9.219544457292889,13.0,29.017236257093817,21.02379604162864,20.0,17.0,21.0,6.0,10.0,1.0,0.0,4.123105625617661,5.0990195135927845,4.0,15.0,12.0,12.0,{}
193,290,2.0,40.19950248448356,5.0,7.071067811865476,8.06225774829855,9.219544457292889,13.0,27.018512172212592,20.0,19.0,17.0,21.0,6.0,8.0,0.0,0.0,3.0,4.0,4.0,15.0,12.0,14.0,{}
194,291,3.0,39.20459156782532,4.0,7.0,9.219544457292889,9.219544457292889,13.038404810405298,27.018512172212592,20.024984394500787,18.5,17.0,21.0,6.0,8.0,0.0,1.0,4.0,4.0,3.5,15.0,12.0,13.038404810405298,{}
195,292,1.4142135623730951,38.0,5.0,9.0,10.0,10.04987562112089,13.0,28.0178514522438,19.026297590440446,18.5,19.0,19.0,6.0,9.0,0.0,1.0,3.1622776601683795,4.0,3.5,14.0,13.0,14.0356688476182,{}
196,293,2.0,39.01281840626232,6.0,9.0,10.0,11.0,13.038404810405298,30.01666203960727,21.02379604162864,20.0,20.0,21.0,7.5,9.5,0.5,2.5,5.0,6.0,5.5,14.0,15.0,14.0356688476182,{}
197,294,3.1622776601683795,39.0,7.0,8.06225774829855,9.055385138137416,11.0,13.038404810405298,31.016124838541646,23.0,21.5,22.0,22.0,9.0,9.0,0.0,3.0,5.0,6.082762530298219,5.5,13.0,14.0,16.0312195418814,{}
198,295,3.0,40.01249804748511,6.0,9.0,9.0,11.0,12.041594578792296,30.01666203960727,21.02379604162864,19.5,20.0,21.0,8.5,9.5,0.5,2.5,5.0,6.0,5.5,13.0,14.0,15.033296378372908,{}
199,296,2.0,40.01249804748511,6.0,8.0,9.055385138137416,10.0,13.0,29.0,21.0,20.0,20.0,21.0,7.5,8.5,0.5,1.5,5.0,6.0,5.5,13.0,14.0,15.033296378372908,{}
200,297,1.0,43.01162633521314,5.0,7.0,10.0,10.0,13.038404810405298,25.0,18.0,18.0,20.0,21.0,7.5,4.5,3.5,2.5,5.0990195135927845,5.0,5.0,13.0,14.0,17.029386365926403,{}
201,298,1.0,43.04648650006177,6.0,9.055385138137416,10.04987562112089,12.041594578792296,13.152946437965904,28.0,19.026297590440446,19.0,19.0,21.0,7.0,8.0,2.0,1.0,5.0,6.0,5.5,14.0,14.0,15.033296378372908,{}
202,299,2.0,42.01190307520001,7.0,10.0,10.0,11.04536101718726,13.0,32.0,22.0,21.0,21.0,22.0,8.5,10.5,0.5,2.5,6.0,5.0,5.5,14.0,14.0,15.132745950421556,{}
203,300,3.0,43.01162633521314,6.0,9.055385138137416,11.0,11.04536101718726,12.0,30.01666203960727,21.0,19.5,20.0,21.0,8.5,9.5,0.5,2.5,6.0,6.0,5.5,14.0,14.0,17.11724276862369,{}
204,301,1.0,43.04648650006177,5.0,9.0,10.04987562112089,11.04536101718726,11.04536101718726,25.0,16.0,16.0,18.0,20.0,8.0,6.0,3.0,3.0,6.0,6.082762530298219,5.5,14.0,14.0,15.033296378372908,{}
205,302,1.4142135623730951,42.04759208325728,5.0,8.06225774829855,10.04987562112089,11.04536101718726,11.04536101718726,25.019992006393608,17.0,16.5,19.0,21.0,9.0,5.0,4.0,3.0,6.0,6.0,5.5,14.0,13.0,15.033296378372908,{}
206,303,4.0,41.04875150354759,5.0,9.055385138137416,11.0,11.04536101718726,11.0,29.017236257093817,20.0,18.0,19.0,21.0,9.0,9.0,1.0,4.0,6.082762530298219,6.0,6.0,13.0,12.0,16.0,{}
207,304,6.0,42.04759208325728,5.0990195135927845,7.0,10.04987562112089,11.04536101718726,12.041594578792296,30.0,23.0,20.0,20.0,22.0,9.0,9.0,1.0,3.0,6.082762530298219,6.082762530298219,5.5,13.0,12.0,15.0,{}
208,305,1.0,43.04648650006177,7.0,9.055385138137416,11.0,11.04536101718726,12.0,29.017236257093817,20.0,19.5,19.0,21.0,8.0,9.0,1.0,2.0,6.082762530298219,6.0,6.0,13.0,12.0,14.0,{}
209,306,0.0,44.01136216933077,6.0,8.06225774829855,11.04536101718726,12.0,12.041594578792296,26.0,18.027756377319943,18.0,19.0,20.0,7.5,6.5,2.5,1.5,5.0,6.0,5.5,14.0,12.0,15.0,{}
210,307,0.0,42.04759208325728,6.082762530298219,9.055385138137416,11.04536101718726,11.04536101718726,13.152946437965904,28.0,19.026297590440446,19.0,19.0,21.0,7.0,8.0,2.0,1.0,6.0,7.0,6.5,14.0,13.0,15.033296378372908,{}
211,308,2.23606797749979,43.01162633521314,8.06225774829855,10.04987562112089,11.0,12.041594578792296,12.041594578792296,32.0,22.02271554554524,21.0,21.0,22.0,9.5,10.5,0.5,2.5,6.0,7.0,6.5,15.0,14.0,16.0,{}
212,309,4.0,42.04759208325728,6.0,10.04987562112089,12.0,13.038404810405298,12.0,32.01562118716424,22.0,20.0,20.0,22.0,9.0,11.0,0.0,3.0,7.0,6.0,6.0,15.0,14.0,15.0,{}
213,310,2.0,43.04648650006177,7.0,11.0,11.04536101718726,12.041594578792296,12.0,32.0,21.0,20.0,20.0,22.0,9.0,11.0,0.0,2.0,5.0,6.0,6.0,15.0,15.0,16.0312195418814,{}
214,311,4.0,44.04543109109048,6.0,10.04987562112089,11.0,12.041594578792296,12.0,32.01562118716424,22.0,20.0,20.0,22.0,9.0,11.0,0.0,3.0,6.0,7.0,6.5,14.0,13.0,14.0356688476182,{}
215,312,3.0,43.01162633521314,7.0,11.04536101718726,11.0,12.0,11.0,32.01562118716424,21.0,19.5,21.0,22.0,10.5,10.5,1.5,3.5,6.082762530298219,6.082762530298219,6.0,14.0,13.0,16.0,{}
216,313,3.0,43.04648650006177,7.0,11.0,11.0,12.041594578792296,11.0,32.0,21.0,19.5,20.0,22.0,10.0,11.0,1.0,3.0,6.0,6.0,6.5,14.0,13.0,15.0,{}
217,314,2.0,43.04648650006177,7.0,10.04987562112089,11.04536101718726,13.0,12.0,31.016124838541646,21.0,20.0,20.0,22.0,9.0,10.0,1.0,2.0,6.082762530298219,7.0,6.5,14.0,13.0,15.0,{}
218,315,2.0,42.04759208325728,7.0,11.04536101718726,12.041594578792296,13.038404810405298,12.041594578792296,32.0,21.02379604162864,20.0,20.0,22.0,9.0,11.0,0.0,2.0,6.0,7.0,6.5,15.0,13.0,15.0,{}
219,316,4.0,43.01162633521314,7.0,10.04987562112089,12.0,13.0,11.04536101718726,32.0,22.02271554554524,20.0,20.0,21.0,9.5,11.5,0.5,2.5,6.0,7.0,6.5,14.0,14.0,14.0,{}
220,317,2.0,43.04648650006177,7.0,10.04987562112089,11.04536101718726,13.038404810405298,12.041594578792296,31.0,21.02379604162864,20.0,20.0,22.0,9.0,10.0,1.0,2.0,6.0,7.0,6.5,15.0,14.0,14.0356688476182,{}
221,318,2.23606797749979,42.04759208325728,7.0,11.0,10.0,12.0,11.04536101718726,31.0,20.0,19.0,19.0,21.0,9.0,11.0,0.0,2.0,6.0,7.0,6.5,16.0,15.0,14.0,{}
222,319,3.1622776601683795,42.01190307520001,7.0,11.0,12.041594578792296,12.041594578792296,11.04536101718726,32.0,21.0,19.5,20.0,21.0,9.5,11.5,0.5,2.5,6.0,6.082762530298219,6.0,15.0,14.0,15.0,{}
223,320,3.0,42.01190307520001,7.071067811865476,11.04536101718726,11.04536101718726,12.041594578792296,11.04536101718726,32.01562118716424,21.0,19.5,21.0,22.0,10.5,10.5,0.5,3.5,7.071067811865476,6.0,6.0,14.0,13.0,15.033296378372908,{}
224,321,4.0,41.01219330881976,6.0,9.055385138137416,10.0,11.0,12.041594578792296,31.0,22.02271554554524,20.0,20.0,21.0,8.5,10.5,0.5,2.5,7.0,7.0,6.5,14.0,13.0,15.0,{}
225,322,1.0,44.04543109109048,6.082762530298219,10.0,11.04536101718726,12.0,12.041594578792296,29.0,19.0,18.5,19.0,21.0,8.0,9.0,2.0,2.0,6.0,6.0,6.0,14.0,13.0,15.033296378372908,{}
226,323,1.4142135623730951,43.04648650006177,6.0,9.0,11.04536101718726,12.041594578792296,12.041594578792296,28.0,19.0,18.5,18.0,20.0,7.0,9.0,1.0,1.0,6.0,7.0,6.5,14.0,14.0,15.033296378372908,{}
227,324,1.4142135623730951,43.04648650006177,6.0,9.055385138137416,11.0,12.0,12.041594578792296,28.0178514522438,19.0,18.5,18.0,20.0,7.0,9.0,1.0,1.0,6.0,6.0,6.0,14.0,14.0,14.0,{}
228,325,1.0,42.01190307520001,7.0,10.0,11.04536101718726,12.041594578792296,12.041594578792296,29.0,19.0,19.0,19.0,20.0,7.5,9.5,1.5,0.5,6.0,6.0,6.0,14.0,14.0,14.0356688476182,{}
229,326,1.4142135623730951,43.0,7.0,9.0,11.04536101718726,12.0,12.041594578792296,29.0,20.0,19.5,20.0,20.0,8.0,9.0,1.0,1.0,7.071067811865476,7.0,6.5,13.0,13.0,15.033296378372908,{}
230,327,2.0,43.01162633521314,6.0,9.055385138137416,11.0,13.0,12.041594578792296,29.0,20.024984394500787,19.0,19.0,20.0,7.5,9.5,0.5,1.5,7.0,6.082762530298219,6.0,14.0,14.0,13.038404810405298,{}
231,328,2.0,42.01190307520001,7.071067811865476,10.0,11.0,12.0,12.041594578792296,31.0,21.0,20.0,20.0,21.0,8.5,10.5,0.5,1.5,6.082762530298219,7.071067811865476,7.0,15.0,15.0,15.0,{}
232,329,2.0,42.01190307520001,7.0,9.0,11.0,12.0,11.0,29.0,20.0,19.0,19.0,20.0,8.5,9.5,0.5,1.5,7.071067811865476,7.071067811865476,7.0,15.0,15.0,14.0,{}
233,330,1.0,42.01190307520001,7.0,10.04987562112089,11.0,12.0,12.0,30.01666203960727,20.0,19.5,20.0,21.0,8.5,9.5,1.5,2.5,6.082762530298219,6.0,6.0,14.0,15.0,15.033296378372908,{}
234,331,2.0,42.01190307520001,7.0,10.0,11.0,12.0,12.0,31.0,21.0,20.0,20.0,21.0,8.5,10.5,0.5,1.5,7.071067811865476,7.0,7.0,14.0,14.0,15.0,{}
235,332,2.0,42.0,7.071067811865476,10.0,11.0,12.0,12.041594578792296,31.0,21.0,20.0,21.0,21.0,9.0,10.0,1.0,2.0,7.071067811865476,7.071067811865476,7.0,14.0,14.0,14.0,{}
236,333,2.23606797749979,42.0,7.0,10.0,12.0,12.041594578792296,11.04536101718726,30.0,20.0,19.0,20.0,20.0,9.0,10.0,1.0,2.0,7.071067811865476,7.071067811865476,7.0,13.0,14.0,14.0,{}
237,334,1.0,42.0,7.071067811865476,10.0,11.0,12.041594578792296,12.041594578792296,30.0,20.0,19.5,20.0,20.0,8.0,10.0,0.0,2.0,6.0,7.071067811865476,6.5,14.0,14.0,14.0,{}
238,335,1.0,42.01190307520001,6.0,10.04987562112089,11.0,12.041594578792296,13.038404810405298,30.0,20.024984394500787,19.5,20.0,21.0,7.5,9.5,0.5,1.5,7.0,7.071067811865476,6.5,13.0,14.0,15.033296378372908,{}
239,336,2.0,41.0,6.0,10.04987562112089,11.0,12.0,12.041594578792296,30.0,20.024984394500787,19.0,20.0,20.0,8.0,10.0,1.0,2.0,7.0,7.071067811865476,7.0,14.0,15.0,15.132745950421556,{}
240,337,2.0,41.0,7.0,10.04987562112089,11.0,12.0,12.041594578792296,31.0,21.02379604162864,20.0,20.0,20.0,8.0,11.0,0.0,1.0,7.071067811865476,7.0,7.0,13.0,15.0,15.033296378372908,{}
241,338,2.0,41.01219330881976,6.0,10.0,11.0,12.0,13.0,31.0,21.0,20.0,21.0,20.0,7.5,10.5,0.5,1.5,6.0,7.0,7.0,13.0,14.0,15.033296378372908,{}
242,339,1.4142135623730951,41.01219330881976,7.071067811865476,10.0,11.0,12.0,12.041594578792296,30.01666203960727,20.024984394500787,19.5,20.0,19.0,7.5,10.5,0.5,1.5,7.071067811865476,7.071067811865476,6.5,14.0,16.0,14.142135623730953,{}
243,340,1.0,41.01219330881976,8.0,10.04987562112089,11.0,12.0,11.04536101718726,30.0,20.024984394500787,19.5,20.0,19.0,8.5,10.5,0.5,1.5,7.0,7.0,7.0,13.0,16.0,17.11724276862369,{}
244,341,1.0,41.0,7.0,10.04987562112089,11.0,12.0,12.041594578792296,30.0,20.024984394500787,19.5,20.0,20.0,8.0,10.0,1.0,2.0,6.0,7.071067811865476,7.0,13.0,15.0,16.1245154965971,{}
245,342,2.0,42.0,6.0,9.0,11.0,13.0,12.041594578792296,29.017236257093817,20.024984394500787,19.0,20.0,20.0,8.0,9.0,1.0,2.0,6.0,7.0,7.0,12.0,15.0,16.1245154965971,{}
246,343,4.0,39.01281840626232,7.0,11.0,10.0,11.0,12.041594578792296,34.0147027033899,23.021728866442675,21.0,22.0,21.0,9.5,12.5,1.5,2.5,6.0,6.082762530298219,6.0,14.0,16.0,16.0,{}
247,344,2.0,40.0,6.082762530298219,9.0,10.0,10.0,14.0356688476182,31.064449134018133,22.09072203437452,21.0,20.0,20.0,6.0,11.0,1.0,1.0,6.0,6.082762530298219,5.5,13.0,16.0,17.11724276862369,{}
248,345,0.0,41.01219330881976,5.0,7.0,10.0,11.0,14.0356688476182,26.019223662515376,19.026297590440446,19.0,19.0,20.0,5.5,6.5,1.5,0.5,6.0,6.082762530298219,5.5,13.0,15.0,17.11724276862369,{}
249,346,1.0,42.01190307520001,5.0,7.071067811865476,10.0,11.0,14.142135623730953,27.16615541441225,20.09975124224178,19.5,19.0,20.0,5.5,7.5,0.5,0.5,5.0,5.0990195135927845,5.0,13.0,15.0,16.0312195418814,{}
250,347,1.0,40.01249804748511,5.0,7.071067811865476,10.04987562112089,10.0,15.132745950421556,28.16025568065745,21.095023109728988,20.5,19.0,20.0,4.5,8.5,0.5,0.5,4.0,5.0,5.0,15.0,16.0,14.0,{}
251,348,3.1622776601683795,37.01351104664349,4.0,8.0,8.0,9.055385138137416,14.0356688476182,29.068883707497267,21.095023109728988,19.5,19.0,20.0,5.5,9.5,0.5,1.5,5.0,6.0,5.5,16.0,16.0,16.0312195418814,{}
252,349,2.0,36.12478373637688,5.0,9.055385138137416,8.06225774829855,9.055385138137416,12.041594578792296,28.0713376952364,19.026297590440446,18.0,17.0,20.0,6.5,9.5,0.5,0.5,4.0,5.0990195135927845,5.0,17.0,15.0,17.0,{}
253,350,3.0,34.058772731852805,5.0,9.0,7.0,9.219544457292889,12.0,29.0,20.0,18.5,18.0,20.0,7.0,10.0,0.0,2.0,4.0,6.0,5.0,14.0,14.0,15.033296378372908,{}
254,351,3.0,32.14031735997639,4.123105625617661,9.0,8.06225774829855,9.219544457292889,12.041594578792296,28.0,19.0,17.5,17.0,20.0,6.5,9.5,0.5,1.5,5.0,6.0,6.0,17.0,16.0,14.0356688476182,{}
255,352,2.0,32.14031735997639,4.0,7.0,7.071067811865476,8.06225774829855,13.0,26.0,19.0,18.0,17.0,20.0,5.5,7.5,0.5,0.5,5.0,6.0,5.5,18.0,15.0,15.0,{}
256,353,1.0,35.0142828000232,5.0990195135927845,8.0,8.06225774829855,9.055385138137416,14.0,28.0178514522438,20.024984394500787,19.5,18.0,19.0,4.5,9.5,0.5,0.5,4.0,5.0990195135927845,5.0,15.0,14.0,16.0,{}
257,354,3.0,37.0,4.0,6.082762530298219,9.055385138137416,10.0,13.038404810405298,26.0,20.024984394500787,18.5,19.0,19.0,6.0,7.0,1.0,3.0,4.0,5.0,4.5,14.0,15.0,14.0,{}
258,355,5.0,38.0,6.0,9.055385138137416,10.0,11.04536101718726,11.04536101718726,31.064449134018133,22.02271554554524,19.5,19.0,19.0,8.0,12.0,2.0,2.0,4.123105625617661,5.0,4.5,14.0,15.0,13.0,{}
259,356,4.0,39.01281840626232,5.0,10.0,10.0,11.04536101718726,12.041594578792296,31.016124838541646,21.02379604162864,19.0,19.0,20.0,7.5,11.5,0.5,2.5,4.123105625617661,5.0990195135927845,4.5,15.0,14.0,14.0,{}
260,357,4.0,38.0,7.0,11.0,10.0,12.0,10.198039027185567,32.0624390837628,21.095023109728988,19.0,19.0,19.0,9.0,13.0,1.0,3.0,5.0990195135927845,6.082762530298219,5.0,13.0,14.0,15.033296378372908,{}
261,358,3.0,40.0,6.0,12.041594578792296,10.0,12.0,12.041594578792296,33.0,21.02379604162864,19.5,21.0,21.0,9.0,12.0,0.0,3.0,6.0,6.0,6.0,13.0,14.0,17.029386365926403,{}
262,359,2.0,41.0,7.0,11.0,11.0,12.041594578792296,12.041594578792296,32.01562118716424,21.02379604162864,20.0,21.0,21.0,9.0,11.0,0.0,3.0,6.0,6.0,5.5,14.0,14.0,18.027756377319943,{}
263,360,4.0,39.0,6.0,11.0,11.0,12.0,12.041594578792296,33.015148038438355,22.02271554554524,20.0,21.0,21.0,9.0,12.0,0.0,3.0,6.0,6.082762530298219,5.5,14.0,14.0,16.0312195418814,{}
264,361,4.0,39.0,7.0,11.0,11.04536101718726,11.0,12.041594578792296,34.0147027033899,23.021728866442675,21.0,21.0,21.0,9.0,13.0,1.0,2.0,6.082762530298219,6.082762530298219,6.0,14.0,14.0,16.0312195418814,{}
265,362,1.0,39.01281840626232,5.0,8.0,10.0,11.04536101718726,14.0356688476182,28.0178514522438,20.024984394500787,19.5,20.0,21.0,6.5,7.5,1.5,1.5,6.082762530298219,6.082762530298219,5.5,13.0,13.0,15.033296378372908,{}
266,363,0.0,41.0,5.0,9.055385138137416,10.0,11.04536101718726,14.0,28.0178514522438,19.0,19.0,20.0,20.0,6.0,8.0,1.0,1.0,6.082762530298219,6.0,6.0,13.0,13.0,14.0356688476182,{}
267,364,4.123105625617661,43.0,7.0,10.0,11.0,12.0,11.04536101718726,32.0,22.0,20.0,21.0,21.0,10.0,11.0,0.0,3.0,7.0,6.0,6.0,14.0,15.0,18.027756377319943,{}
268,365,1.0,42.0,7.071067811865476,9.0,10.0,11.0,12.041594578792296,29.0,20.0,19.5,20.0,20.0,8.0,9.0,1.0,2.0,6.0,7.071067811865476,6.5,13.0,14.0,17.11724276862369,{}
269,366,1.4142135623730951,42.01190307520001,7.0,9.0,10.0,11.0,13.038404810405298,30.0,21.0,20.5,21.0,20.0,7.5,9.5,0.5,1.5,6.0,6.082762530298219,6.0,13.0,14.0,17.029386365926403,{}
270,367,3.1622776601683795,41.01219330881976,6.0,9.0,10.0,11.0,14.0356688476182,32.0,23.0,21.5,22.0,21.0,7.5,10.5,1.5,1.5,6.0,6.082762530298219,6.0,13.0,15.0,17.029386365926403,{}
271,368,1.0,42.01190307520001,6.0,9.0,11.0,12.0,14.0356688476182,30.01666203960727,21.02379604162864,20.5,22.0,21.0,7.5,8.5,1.5,1.5,6.082762530298219,6.082762530298219,6.0,13.0,15.0,17.0,{}
272,369,1.0,41.01219330881976,6.082762530298219,9.0,10.0,11.0,14.0,29.0,20.0,20.0,21.0,20.0,6.5,8.5,1.5,0.5,7.0,7.0,7.0,13.0,15.0,18.027756377319943,{}
273,370,1.0,44.04543109109048,6.0,9.0,11.0,11.04536101718726,13.038404810405298,29.017236257093817,20.024984394500787,19.5,20.0,18.0,6.0,10.0,1.0,0.0,6.082762530298219,6.0,6.0,14.0,15.0,17.029386365926403,{}
274,371,0.0,42.01190307520001,6.0,9.0,10.0,11.0,13.038404810405298,28.0178514522438,19.026297590440446,19.0,19.0,18.0,5.5,9.5,0.5,0.5,6.082762530298219,6.0,6.0,13.0,15.0,19.026297590440446,{}
275,372,1.0,42.0,7.0,9.0,10.0,11.0,12.041594578792296,28.0,19.0,19.0,19.0,19.0,7.0,9.0,1.0,1.0,6.0,7.071067811865476,7.0,13.0,15.0,18.027756377319943,{}
276,373,0.0,40.0,6.0,10.04987562112089,10.04987562112089,11.0,12.041594578792296,28.0,18.027756377319943,18.0,19.0,19.0,7.0,9.0,2.0,1.0,6.0,6.082762530298219,6.5,13.0,15.0,17.11724276862369,{}
277,374,1.0,40.01249804748511,6.0,10.0,10.04987562112089,12.0,12.16552506059644,29.068883707497267,19.1049731745428,18.5,20.0,19.0,7.5,9.5,1.5,1.5,6.0,6.082762530298219,6.5,14.0,16.0,17.029386365926403,{}
278,375,1.0,41.01219330881976,6.0,9.0,10.04987562112089,11.0,12.041594578792296,28.0178514522438,19.026297590440446,18.5,20.0,19.0,7.5,8.5,1.5,1.5,7.071067811865476,7.071067811865476,6.5,12.0,14.0,18.0,{}
279,376,0.0,44.0,7.0,11.0,10.04987562112089,11.0,10.04987562112089,28.0178514522438,17.029386365926403,17.0,18.0,18.0,8.0,10.0,2.0,1.0,7.071067811865476,7.0,7.0,14.0,16.0,18.027756377319943,{}
280,377,2.23606797749979,43.01162633521314,6.082762530298219,11.0,11.0,11.0,10.04987562112089,29.017236257093817,18.027756377319943,17.0,20.0,19.0,9.5,9.5,1.5,3.5,7.071067811865476,7.071067811865476,7.0,13.0,15.0,17.029386365926403,{}
281,378,3.0,42.01190307520001,6.0,11.0,11.0,11.0,11.04536101718726,31.016124838541646,20.024984394500787,18.5,21.0,20.0,9.5,10.5,1.5,3.5,7.0,7.071067811865476,7.5,14.0,16.0,17.029386365926403,{}
282,379,4.0,43.0,6.0,10.0,10.0,12.0,11.180339887498947,31.064449134018133,21.095023109728988,19.0,20.0,20.0,9.0,11.0,0.0,3.0,7.0,8.06225774829855,8.0,14.0,16.0,17.029386365926403,{}
283,380,4.0,44.01136216933077,7.0,11.0,11.04536101718726,13.038404810405298,11.04536101718726,33.015148038438355,22.02271554554524,20.0,21.0,20.0,9.5,12.5,0.5,3.5,7.071067811865476,8.06225774829855,7.5,16.0,19.0,20.0,{}
284,381,2.0,43.01162633521314,6.0,10.0,11.0,12.0,11.180339887498947,29.068883707497267,19.1049731745428,18.0,19.0,18.0,7.5,10.5,0.5,2.5,7.0,7.0,7.5,18.0,20.0,21.02379604162864,{}
285,382,2.0,42.01190307520001,6.0,9.0,11.0,11.04536101718726,11.04536101718726,28.0178514522438,19.026297590440446,18.0,20.0,19.0,8.5,8.5,1.5,2.5,7.0,7.071067811865476,7.0,17.0,21.0,21.0,{}
286,383,3.0,42.04759208325728,6.0,9.0,11.0,12.0,11.04536101718726,29.017236257093817,20.024984394500787,18.5,20.0,18.0,8.0,10.0,0.0,2.0,6.0,6.0,6.0,18.0,21.0,22.0,{}
287,384,1.0,44.04543109109048,7.071067811865476,10.0,12.0,12.0,12.16552506059644,30.14962686336267,20.223748416156685,19.5,20.0,18.0,7.0,11.0,0.0,1.0,6.082762530298219,6.082762530298219,5.5,19.0,21.0,22.0,{}
288,385,2.0,44.01136216933077,7.0,11.0,11.0,13.0,11.180339887498947,31.064449134018133,20.09975124224178,19.0,20.0,19.0,8.5,11.5,0.5,1.5,5.0,6.082762530298219,5.5,19.0,21.0,24.0,{}
289,386,2.0,44.04543109109048,7.0,11.0,12.0,13.0,12.16552506059644,32.0624390837628,21.095023109728988,20.0,21.0,19.0,8.0,12.0,0.0,2.0,6.0,6.082762530298219,5.5,18.0,20.0,22.0,{}
290,387,1.0,42.04759208325728,7.0,12.0,11.0,12.0,12.16552506059644,32.0624390837628,20.09975124224178,19.5,21.0,19.0,8.0,12.0,0.0,1.0,6.0,6.082762530298219,5.5,19.0,21.0,24.0,{}
291,388,2.0,42.04759208325728,6.0,10.0,11.0,12.0,12.16552506059644,30.066592756745816,20.09975124224178,19.0,20.0,18.0,7.0,11.0,0.0,1.0,6.082762530298219,6.082762530298219,5.5,18.0,20.0,23.0,{}
292,389,0.0,42.0,6.0,10.0,11.0,13.0,13.152946437965904,29.068883707497267,19.1049731745428,19.0,19.0,19.0,6.0,10.0,1.0,0.0,5.0,5.0990195135927845,5.0,18.0,21.0,21.0,{}
293,390,0.0,44.01136216933077,6.0,11.0,11.0,13.0,13.152946437965904,30.066592756745816,19.1049731745428,19.0,20.0,19.0,6.5,10.5,1.5,0.5,5.0,5.0990195135927845,5.0,18.0,20.0,21.0,{}
294,391,0.0,43.01162633521314,7.0,10.0,10.04987562112089,12.0,12.36931687685298,29.154759474226505,19.235384061671343,19.0,20.0,19.0,7.5,9.5,0.5,0.5,6.082762530298219,6.082762530298219,6.0,17.0,19.0,19.0,{}
295,392,0.0,39.05124837953327,6.0,11.0,10.0,11.0,13.152946437965904,30.066592756745816,19.1049731745428,19.0,21.0,19.0,7.0,10.0,1.0,1.0,6.0,6.082762530298219,5.5,18.0,20.0,20.024984394500787,{}
296,393,0.0,40.01249804748511,6.0,10.04987562112089,9.0,11.0,13.152946437965904,29.154759474226505,19.1049731745428,19.0,19.0,20.0,6.5,9.5,0.5,1.5,5.0,5.0990195135927845,5.0,16.0,19.0,20.0,{}
297,394,0.0,39.01281840626232,7.0,11.0,9.0,11.0,13.341664064126334,31.14482300479488,20.223748416156685,20.0,21.0,20.0,7.5,10.5,1.5,1.5,7.0,7.071067811865476,6.5,17.0,19.0,20.0,{}
298,395,0.0,38.0,7.071067811865476,11.0,9.0,10.04987562112089,12.041594578792296,30.066592756745816,19.1049731745428,19.0,19.0,19.0,7.0,11.0,1.0,1.0,6.0,7.071067811865476,6.5,18.0,20.0,22.02271554554524,{}
299,396,1.0,39.01281840626232,6.0,10.0,10.0,11.0,12.16552506059644,29.068883707497267,19.1049731745428,18.5,20.0,19.0,7.5,9.5,1.5,1.5,5.0,5.0990195135927845,5.0,16.0,20.0,18.027756377319943,{}
300,397,1.0,39.0,6.0,11.0,9.0,10.0,12.36931687685298,30.14962686336267,19.235384061671343,18.5,19.0,19.0,7.0,11.0,1.0,1.0,6.0,6.082762530298219,6.0,17.0,20.0,18.0,{}
301,398,0.0,39.05124837953327,6.082762530298219,11.0,9.0,11.04536101718726,13.152946437965904,30.14962686336267,19.235384061671343,19.0,21.0,19.0,7.0,10.0,1.0,1.0,5.0,5.0,4.5,16.0,20.0,20.0,{}
302,399,0.0,39.01281840626232,7.0,11.0,10.0,11.04536101718726,12.16552506059644,30.066592756745816,19.1049731745428,19.0,20.0,19.0,7.5,10.5,1.5,1.5,6.0,6.082762530298219,5.5,17.0,20.0,19.0,{}
303,400,1.4142135623730951,39.05124837953327,6.0,11.0,11.0,11.0,12.041594578792296,30.066592756745816,19.1049731745428,18.5,20.0,18.0,7.0,11.0,0.0,1.0,5.0,5.0990195135927845,5.0,16.0,17.0,18.0,{}
304,401,0.0,39.01281840626232,7.0,11.04536101718726,11.0,12.0,12.16552506059644,30.14962686336267,19.1049731745428,19.0,20.0,19.0,7.5,10.5,1.5,1.5,6.0,6.082762530298219,5.5,17.0,20.0,19.026297590440446,{}
305,402,0.0,38.01315561749642,6.0,11.0,10.0,11.0,12.16552506059644,29.068883707497267,18.110770276274835,18.0,19.0,18.0,6.5,10.5,1.5,1.5,6.0,6.082762530298219,6.0,16.0,19.0,19.026297590440446,{}
306,403,1.4142135623730951,39.01281840626232,6.0,10.0,10.0,11.0,12.041594578792296,29.068883707497267,19.1049731745428,18.5,20.0,19.0,7.5,9.5,1.5,2.5,6.082762530298219,6.082762530298219,6.0,17.0,19.0,20.024984394500787,{}
307,404,1.4142135623730951,39.01281840626232,6.0,10.0,11.0,11.04536101718726,11.180339887498947,28.16025568065745,18.24828759089466,17.5,19.0,18.0,7.5,9.5,1.5,2.5,6.0,6.082762530298219,6.0,17.0,18.0,19.026297590440446,{}
308,405,2.0,38.01315561749642,5.0,11.0,10.0,11.0,11.180339887498947,29.068883707497267,18.110770276274835,17.0,19.0,18.0,7.5,10.5,1.5,2.5,5.0990195135927845,4.0,4.0,16.0,15.0,18.0,{}
309,406,1.0,40.0,6.0,11.0,10.04987562112089,11.04536101718726,11.180339887498947,29.068883707497267,18.110770276274835,17.5,19.0,19.0,8.0,10.0,2.0,2.0,6.082762530298219,6.0,6.0,18.0,18.0,19.026297590440446,{}
310,407,1.0,41.0,7.0,10.0,10.0,11.0,10.198039027185567,28.0713376952364,18.110770276274835,17.5,19.0,19.0,9.0,9.0,1.0,3.0,6.0,6.0,6.0,16.0,18.0,19.0,{}
311,408,2.23606797749979,40.0,6.0,11.0,10.0,12.0,11.180339887498947,30.01666203960727,19.026297590440446,18.0,19.0,19.0,8.0,11.0,1.0,3.0,5.0,5.0990195135927845,5.0,16.0,18.0,19.0,{}
312,409,2.0,39.0,6.0,10.0,10.0,12.0,11.04536101718726,29.017236257093817,19.026297590440446,18.0,19.0,19.0,8.0,10.0,1.0,2.0,6.082762530298219,6.0,6.0,18.0,19.0,21.0,{}
313,410,0.0,40.0,7.0,11.0,11.0,12.0,11.04536101718726,29.017236257093817,18.027756377319943,18.0,19.0,19.0,8.0,10.0,2.0,2.0,7.071067811865476,6.0,6.0,17.0,18.0,21.0,{}
314,411,0.0,41.01219330881976,7.0,12.0,11.0,12.0,11.04536101718726,30.01666203960727,18.027756377319943,18.0,20.0,19.0,8.5,10.5,1.5,2.5,6.0,6.082762530298219,6.0,17.0,19.0,21.0,{}
315,412,1.0,41.0,6.0,11.0,11.0,12.0,11.180339887498947,29.068883707497267,18.110770276274835,17.5,19.0,19.0,8.0,10.0,1.0,2.0,6.0,6.082762530298219,6.0,17.0,18.0,21.0,{}
316,413,1.0,41.01219330881976,6.0,12.0,10.0,12.0,11.180339887498947,30.066592756745816,18.110770276274835,17.5,20.0,19.0,8.5,10.5,1.5,2.5,7.071067811865476,7.071067811865476,7.0,17.0,18.0,21.02379604162864,{}
317,414,1.0,41.04875150354759,7.0,11.0,10.0,11.0,10.04987562112089,29.017236257093817,18.027756377319943,17.5,20.0,18.0,9.0,10.0,1.0,2.0,6.082762530298219,7.0,6.5,16.0,18.0,21.0,{}
318,415,1.0,41.01219330881976,7.0,11.0,10.0,12.0,11.180339887498947,30.066592756745816,19.1049731745428,18.5,20.0,19.0,8.5,10.5,0.5,2.5,7.0,7.071067811865476,7.0,16.0,18.0,20.0,{}
319,416,1.0,42.04759208325728,7.0,11.0,11.0,13.038404810405298,11.180339887498947,30.066592756745816,19.1049731745428,18.5,20.0,18.0,8.0,11.0,0.0,2.0,7.0,7.071067811865476,6.5,15.0,17.0,20.024984394500787,{}
320,417,2.0,41.04875150354759,7.0,10.0,12.0,13.0,10.198039027185567,29.068883707497267,19.1049731745428,18.0,19.0,17.0,8.0,11.0,0.0,2.0,7.0,7.071067811865476,7.0,14.0,18.0,19.026297590440446,{}
321,418,2.0,41.04875150354759,7.0,11.0,11.0,12.041594578792296,10.198039027185567,30.066592756745816,19.1049731745428,18.0,20.0,18.0,9.0,11.0,0.0,2.0,7.0,8.0,7.5,15.0,18.0,19.0,{}
322,419,2.0,41.04875150354759,7.0,11.04536101718726,10.0,11.0,10.04987562112089,30.066592756745816,19.026297590440446,18.0,20.0,18.0,9.0,11.0,1.0,2.0,7.0,7.071067811865476,7.0,15.0,18.0,20.024984394500787,{}
323,420,2.0,41.04875150354759,7.0,12.041594578792296,11.0,12.0,10.04987562112089,31.064449134018133,19.026297590440446,18.0,20.0,18.0,9.0,12.0,0.0,2.0,7.0,8.06225774829855,7.5,15.0,19.0,20.09975124224178,{}
324,421,1.4142135623730951,41.04875150354759,7.0,11.0,10.0,11.0,11.04536101718726,30.066592756745816,19.1049731745428,18.5,20.0,18.0,8.0,11.0,1.0,2.0,7.0,7.071067811865476,7.0,15.0,18.0,20.024984394500787,{}
325,422,1.0,40.049968789001575,6.0,10.0,11.04536101718726,11.0,11.04536101718726,28.0178514522438,18.027756377319943,17.5,19.0,17.0,7.0,10.0,0.0,2.0,7.0,7.071067811865476,7.0,14.0,17.0,20.024984394500787,{}
326,423,1.0,41.04875150354759,7.0,10.0,11.04536101718726,12.0,10.198039027185567,28.0713376952364,18.110770276274835,17.5,19.0,17.0,8.0,10.0,1.0,2.0,7.0,7.071067811865476,7.0,15.0,19.0,21.02379604162864,{}
327,424,1.0,41.04875150354759,7.0,10.04987562112089,11.04536101718726,12.0,11.04536101718726,29.068883707497267,19.026297590440446,18.5,20.0,18.0,8.0,10.0,1.0,2.0,7.0,7.0,7.0,14.0,18.0,21.095023109728988,{}
328,425,3.0,41.04875150354759,6.0,10.0,11.0,12.0,11.04536101718726,30.01666203960727,20.024984394500787,18.5,21.0,19.0,9.0,10.0,0.0,3.0,7.0,8.06225774829855,7.5,14.0,18.0,19.1049731745428,{}
329,426,5.0,41.04875150354759,7.071067811865476,10.0,11.04536101718726,12.0,11.04536101718726,33.06055050963308,23.08679276123039,20.5,21.0,19.0,9.0,13.0,2.0,3.0,7.0,7.071067811865476,6.5,14.0,18.0,20.09975124224178,{}
330,427,1.0,42.04759208325728,6.0,10.0,11.04536101718726,12.0,13.152946437965904,30.066592756745816,20.09975124224178,19.5,21.0,19.0,7.0,10.0,0.0,2.0,7.0,7.0,7.0,13.0,17.0,18.110770276274835,{}
331,428,0.0,42.04759208325728,7.071067811865476,9.0,10.0,11.0,12.041594578792296,28.0713376952364,19.1049731745428,19.0,20.0,18.0,7.0,9.0,1.0,1.0,7.0,7.071067811865476,6.5,13.0,18.0,18.24828759089466,{}
332,429,0.0,43.01162633521314,6.0,9.0,11.0,12.041594578792296,13.152946437965904,28.0713376952364,19.1049731745428,19.0,20.0,19.0,6.5,8.5,1.5,1.5,7.0,7.071067811865476,7.0,13.0,17.0,18.110770276274835,{}
333,430,1.0,42.01190307520001,6.082762530298219,9.0,10.0,11.0,14.0356688476182,30.066592756745816,21.095023109728988,20.5,21.0,20.0,6.5,9.5,0.5,1.5,6.0,6.082762530298219,6.5,12.0,17.0,17.26267650163207,{}
334,431,2.23606797749979,41.04875150354759,7.0,10.0,10.04987562112089,11.0,13.038404810405298,32.0624390837628,22.09072203437452,21.0,22.0,20.0,8.0,11.0,0.0,2.0,6.0,6.082762530298219,6.5,13.0,18.0,16.278820596099706,{}
335,432,3.0,42.04759208325728,6.0,11.04536101718726,10.0,11.0,13.152946437965904,33.13608305156178,22.09072203437452,20.5,22.0,20.0,8.0,12.0,1.0,2.0,6.0,7.0,6.0,13.0,18.0,17.26267650163207,{}
336,433,4.0,42.04759208325728,7.071067811865476,10.04987562112089,11.0,12.0,13.038404810405298,34.132096331752024,24.08318915758459,22.0,23.0,21.0,9.0,12.0,1.0,2.0,6.0,6.0,5.5,13.0,18.0,18.24828759089466,{}
337,434,7.0,43.04648650006177,6.0,12.041594578792296,11.0,12.0,12.041594578792296,37.05401462729781,25.019992006393608,21.5,23.0,21.0,10.0,15.0,2.0,4.0,5.0,6.0,5.5,13.0,18.0,17.26267650163207,{}
338,435,10.0,43.01162633521314,6.0,11.04536101718726,11.0,12.0,11.180339887498947,38.11823710509184,27.073972741361768,22.0,23.0,22.0,11.5,15.5,4.5,5.5,5.0,6.082762530298219,5.5,13.0,18.0,16.278820596099706,{}
339,436,12.041594578792296,41.01219330881976,6.0,9.0,11.0,12.0,11.180339887498947,38.11823710509184,29.154759474226505,23.0,23.0,22.0,11.5,15.5,5.5,5.5,5.0,6.0,5.5,13.0,17.0,15.297058540778355,{}
340,437,11.04536101718726,42.04759208325728,6.0,10.0,10.0,11.04536101718726,11.180339887498947,38.11823710509184,28.16025568065745,22.5,24.0,22.0,12.0,15.0,5.0,6.0,5.0990195135927845,6.0,5.0,13.0,18.0,17.26267650163207,{}
341,438,11.0,42.04759208325728,6.082762530298219,8.06225774829855,11.04536101718726,12.041594578792296,10.04987562112089,35.12833614050059,27.073972741361768,21.5,23.0,21.0,12.0,13.0,4.0,6.0,5.0,6.082762530298219,5.5,13.0,17.0,16.1245154965971,{}
342,439,9.055385138137416,43.04648650006177,6.0,10.0,11.0,12.041594578792296,11.180339887498947,36.12478373637688,26.1725046566048,21.5,23.0,21.0,11.0,14.0,3.0,5.0,5.0,7.071067811865476,6.0,14.0,17.0,15.297058540778355,{}
343,440,8.0,42.01190307520001,6.082762530298219,9.0,11.04536101718726,12.0,11.04536101718726,34.058772731852805,25.079872407968907,21.0,22.0,21.0,10.5,12.5,3.5,5.5,5.0,6.0,5.0,12.0,16.0,16.1245154965971,{}
344,441,7.0,41.0,7.0,9.0,11.04536101718726,12.0,11.180339887498947,34.058772731852805,25.079872407968907,21.5,22.0,22.0,11.0,12.0,2.0,5.0,5.0,5.0990195135927845,5.0,14.0,18.0,16.1245154965971,{}
345,442,8.0,41.01219330881976,6.0,10.0,11.0,12.0,11.04536101718726,35.0142828000232,25.019992006393608,21.0,22.0,21.0,10.5,13.5,2.5,4.5,4.123105625617661,6.0,5.0,13.0,18.0,16.1245154965971,{}
346,443,7.0,41.01219330881976,6.0,10.04987562112089,11.0,12.041594578792296,11.04536101718726,34.058772731852805,24.020824298928627,20.5,22.0,21.0,10.5,12.5,1.5,4.5,5.0990195135927845,5.0990195135927845,4.5,13.0,18.0,15.297058540778355,{}
347,444,7.071067811865476,41.01219330881976,6.0,11.0,11.0,12.0,11.04536101718726,35.05709628591621,24.08318915758459,20.5,22.0,21.0,10.5,13.5,1.5,4.5,5.0,6.082762530298219,5.0,13.0,17.0,14.142135623730953,{}
348,445,5.0990195135927845,41.0,6.0,9.0,10.0,12.041594578792296,12.041594578792296,32.0624390837628,23.08679276123039,20.5,21.0,21.0,9.0,11.0,1.0,3.0,4.123105625617661,5.0990195135927845,4.5,13.0,17.0,16.1245154965971,{}
349,446,1.0,40.0,7.0,10.0,10.0,11.04536101718726,11.04536101718726,29.017236257093817,19.026297590440446,18.5,19.0,19.0,8.0,10.0,1.0,2.0,4.0,5.0990195135927845,4.5,12.0,17.0,16.1245154965971,{}
350,447,1.0,40.01249804748511,6.0,10.0,11.04536101718726,11.04536101718726,11.0,28.0,18.0,17.5,18.0,19.0,7.5,9.5,1.5,1.5,5.0,4.123105625617661,4.0,13.0,17.0,15.132745950421556,{}
351,448,0.0,40.01249804748511,6.0,10.0,10.04987562112089,11.04536101718726,11.04536101718726,27.018512172212592,17.029386365926403,17.0,18.0,19.0,7.5,8.5,1.5,1.5,4.0,5.0990195135927845,4.5,13.0,17.0,15.132745950421556,{}
352,449,1.0,40.01249804748511,6.0,10.0,10.0,11.180339887498947,10.04987562112089,27.018512172212592,17.029386365926403,16.5,18.0,19.0,8.5,8.5,2.5,2.5,4.0,4.123105625617661,4.0,13.0,17.0,13.152946437965904,{}
353,450,2.0,38.01315561749642,5.0,9.0,10.0,11.0,11.04536101718726,27.018512172212592,18.027756377319943,17.0,17.0,18.0,6.5,9.5,0.5,1.5,4.123105625617661,5.0990195135927845,4.5,12.0,17.0,14.142135623730953,{}
354,451,1.0,38.0,6.0,10.0,10.0,10.04987562112089,11.0,28.0,18.0,17.5,18.0,18.0,7.0,10.0,1.0,2.0,5.0,5.0990195135927845,4.5,12.0,16.0,13.152946437965904,{}
355,452,1.0,39.01281840626232,6.0,10.0,9.0,11.04536101718726,11.0,28.0,18.0,17.5,18.0,19.0,7.5,9.5,1.5,1.5,4.0,5.0,5.0,12.0,17.0,13.038404810405298,{}
356,453,1.0,39.05124837953327,6.0,10.0,10.0,11.04536101718726,11.04536101718726,28.0178514522438,18.027756377319943,17.5,17.0,19.0,7.0,10.0,1.0,2.0,4.0,5.0990195135927845,5.0,14.0,17.0,14.0356688476182,{}
357,454,0.0,39.0,6.0,10.0,10.04987562112089,11.04536101718726,11.0,27.0,17.0,17.0,18.0,18.0,7.0,9.0,2.0,1.0,4.0,5.0990195135927845,5.0,13.0,17.0,13.038404810405298,{}
358,455,0.0,39.01281840626232,6.082762530298219,11.0,10.04987562112089,11.04536101718726,11.0,28.0178514522438,17.029386365926403,17.0,17.0,18.0,6.5,10.5,1.5,0.5,4.0,4.0,4.0,13.0,17.0,13.038404810405298,{}
359,456,3.0,39.0,5.0,9.0,10.0,12.041594578792296,12.041594578792296,29.017236257093817,20.024984394500787,18.5,19.0,19.0,7.0,10.0,1.0,2.0,4.0,5.0990195135927845,4.5,13.0,16.0,13.152946437965904,{}
360,457,3.0,39.0,6.082762530298219,8.0,10.0,12.0,12.041594578792296,29.068883707497267,21.095023109728988,19.5,20.0,20.0,8.0,9.0,0.0,2.0,4.0,6.082762530298219,5.0,12.0,16.0,15.132745950421556,{}
361,458,3.0,38.0,5.0990195135927845,10.0,10.0,10.04987562112089,12.041594578792296,30.066592756745816,20.09975124224178,18.5,19.0,19.0,7.0,11.0,1.0,2.0,5.0,5.0990195135927845,4.5,16.0,17.0,14.0356688476182,{}
362,459,4.0,38.0,5.0,10.0,10.0,11.04536101718726,12.041594578792296,31.016124838541646,21.02379604162864,19.0,19.0,19.0,7.0,12.0,1.0,2.0,5.0,5.0990195135927845,5.0,15.0,16.0,13.038404810405298,{}
363,460,3.0,39.0,5.0990195135927845,10.0,10.0,11.0,12.0,30.01666203960727,20.024984394500787,18.5,19.0,19.0,7.0,11.0,1.0,2.0,5.0990195135927845,5.0990195135927845,5.0,14.0,17.0,14.142135623730953,{}
364,461,2.23606797749979,39.01281840626232,6.0,10.0,11.0,12.0,12.0,30.01666203960727,20.024984394500787,19.0,20.0,19.0,7.5,10.5,0.5,1.5,5.0,5.0990195135927845,5.0,14.0,17.0,13.038404810405298,{}
365,462,3.0,39.0,6.0,9.0,10.0,11.0,11.04536101718726,29.017236257093817,20.024984394500787,18.5,19.0,19.0,8.0,10.0,0.0,2.0,5.0,5.0990195135927845,5.0,13.0,16.0,14.0,{}
366,463,1.4142135623730951,40.0,6.0,10.0,10.0,12.041594578792296,12.0,29.017236257093817,19.026297590440446,18.5,19.0,19.0,7.0,10.0,0.0,2.0,5.0,5.0990195135927845,5.0,14.0,17.0,14.0356688476182,{}
367,464,3.0,39.0,6.0,9.055385138137416,9.0,11.04536101718726,11.04536101718726,29.068883707497267,20.024984394500787,18.5,19.0,19.0,8.0,10.0,0.0,2.0,5.0,5.0990195135927845,5.0,13.0,15.0,14.0356688476182,{}
368,465,2.0,39.0,6.082762530298219,10.0,10.0,12.0,11.0,29.017236257093817,19.026297590440446,18.0,19.0,19.0,8.0,10.0,0.0,2.0,4.0,6.082762530298219,5.0,13.0,17.0,14.142135623730953,{}
369,466,2.23606797749979,39.0,6.0,9.0,10.0,11.0,11.04536101718726,28.0713376952364,19.1049731745428,18.0,18.0,18.0,7.0,10.0,0.0,2.0,5.0,5.0990195135927845,5.0,14.0,17.0,14.0356688476182,{}
370,467,1.0,39.0,6.0,9.055385138137416,9.0,10.0,12.0,28.0178514522438,19.0,18.5,19.0,19.0,7.0,9.0,1.0,2.0,5.0,5.0990195135927845,4.5,13.0,16.0,15.033296378372908,{}
371,468,2.0,39.01281840626232,5.0,9.0,10.0,11.0,12.0,28.0,19.0,18.0,19.0,18.0,6.5,9.5,0.5,1.5,4.0,5.0990195135927845,5.0,13.0,15.0,14.0356688476182,{}
372,469,2.0,39.0,6.0,9.0,9.0,11.04536101718726,11.04536101718726,28.0178514522438,19.026297590440446,18.0,18.0,18.0,7.0,10.0,0.0,1.0,4.0,5.0990195135927845,5.0,13.0,16.0,14.0356688476182,{}
373,470,2.0,40.01249804748511,6.0,10.04987562112089,10.0,10.0,11.0,29.017236257093817,19.0,18.0,19.0,18.0,7.5,10.5,0.5,1.5,5.0,5.0990195135927845,5.0,13.0,15.0,14.0356688476182,{}
374,471,6.082762530298219,42.01190307520001,6.0,12.0,10.0,13.038404810405298,11.04536101718726,35.05709628591621,23.08679276123039,20.0,21.0,20.0,9.5,14.5,2.5,3.5,4.0,5.0990195135927845,4.5,13.0,18.0,15.132745950421556,{}
375,472,6.0,41.01219330881976,6.082762530298219,11.0,10.0,12.0,11.04536101718726,34.058772731852805,23.08679276123039,20.0,20.0,19.0,8.5,14.5,2.5,2.5,5.0,6.082762530298219,5.0,13.0,16.0,16.0312195418814,{}
376,473,7.071067811865476,43.0,5.0,11.0,11.0,12.041594578792296,11.04536101718726,34.058772731852805,23.08679276123039,19.5,19.0,19.0,8.0,15.0,3.0,3.0,5.0,6.0,5.5,14.0,17.0,15.033296378372908,{}
377,474,8.0,45.0111097397076,6.0,9.055385138137416,11.04536101718726,12.041594578792296,11.180339887498947,34.132096331752024,25.079872407968907,21.0,20.0,19.0,8.5,14.5,4.5,3.5,3.0,3.1622776601683795,3.0,14.0,16.0,13.152946437965904,{}
378,475,7.0,43.0,5.0,8.0,11.0,12.041594578792296,12.16552506059644,32.0624390837628,24.08318915758459,20.5,18.0,18.0,6.0,14.0,5.0,2.0,3.0,4.0,4.0,12.0,14.0,13.038404810405298,{}
379,476,2.0,43.04648650006177,6.082762530298219,10.0,11.04536101718726,11.0,12.041594578792296,30.066592756745816,20.09975124224178,19.0,19.0,17.0,6.0,12.0,1.0,1.0,4.0,4.0,4.0,13.0,16.0,14.0356688476182,{}
380,477,2.23606797749979,43.04648650006177,6.0,9.0,10.0,11.0,11.04536101718726,28.0713376952364,19.1049731745428,18.0,18.0,16.0,6.0,11.0,1.0,0.0,4.0,4.123105625617661,3.5,13.0,16.0,14.142135623730953,{}
381,478,4.0,45.0111097397076,5.0990195135927845,8.0,12.0,13.0,13.038404810405298,30.066592756745816,22.09072203437452,20.0,19.0,18.0,5.5,11.5,2.5,0.5,4.0,4.0,4.0,13.0,16.0,14.142135623730953,{}
382,479,4.0,45.044422518220834,6.0,10.0,11.04536101718726,12.0,12.041594578792296,32.01562118716424,22.02271554554524,20.0,19.0,17.0,6.0,14.0,4.0,1.0,4.0,4.0,4.0,12.0,16.0,15.132745950421556,{}
383,480,4.0,46.04345773288535,7.0,10.0,11.04536101718726,13.0,12.16552506059644,33.06055050963308,23.08679276123039,21.0,21.0,19.0,8.0,13.0,3.0,2.0,6.0,5.0990195135927845,5.0,13.0,16.0,15.132745950421556,{}
384,481,2.0,45.044422518220834,6.0,9.0,11.0,12.041594578792296,12.16552506059644,29.068883707497267,20.09975124224178,19.0,19.0,17.0,6.0,11.0,2.0,0.0,5.0,6.0,6.0,12.0,16.0,14.0356688476182,{}
385,482,1.0,45.0,6.0,8.06225774829855,11.0,11.0,12.16552506059644,27.018512172212592,19.1049731745428,18.5,18.0,18.0,6.0,9.0,0.0,1.0,5.0,5.0990195135927845,5.0,12.0,16.0,16.1245154965971,{}
386,483,1.0,46.04345773288535,6.0,9.0,11.0,11.0,13.152946437965904,27.073972741361768,18.110770276274835,18.5,20.0,18.0,6.0,8.0,2.0,1.0,6.0,6.0,5.5,12.0,16.0,15.033296378372908,{}
387,484,0.0,46.01086828130936,6.082762530298219,8.0,10.04987562112089,12.0,13.038404810405298,27.073972741361768,19.1049731745428,19.0,20.0,19.0,6.5,7.5,1.5,0.5,6.0,5.0,5.5,12.0,15.0,14.0356688476182,{}
388,485,2.0,45.0,6.0,9.0,11.0,11.0,14.0356688476182,31.016124838541646,22.02271554554524,21.0,20.0,20.0,6.0,11.0,2.0,0.0,6.0,6.082762530298219,6.0,13.0,17.0,14.142135623730953,{}
389,486,2.0,45.0111097397076,7.0,8.0,10.0,11.0,15.132745950421556,32.0624390837628,24.08318915758459,23.0,22.0,21.0,6.5,10.5,1.5,0.5,6.0,6.0,5.5,13.0,16.0,14.0356688476182,{}
390,487,2.0,44.0,6.0,7.071067811865476,10.0,11.0,15.033296378372908,30.0,23.021728866442675,22.0,21.0,21.0,6.0,9.0,1.0,1.0,6.0,6.0,6.0,13.0,16.0,15.132745950421556,{}
391,488,1.4142135623730951,44.0,6.0,8.0,10.0,11.0,14.0356688476182,29.0,21.0,20.5,21.0,21.0,7.0,8.0,1.0,1.0,6.0,6.0,5.5,13.0,17.0,13.152946437965904,{}
392,489,0.0,44.01136216933077,6.0,7.0,10.0,11.0,15.0,28.0,21.0,21.0,21.0,22.0,6.5,6.5,0.5,1.5,5.0,5.0,5.0,14.0,17.0,13.152946437965904,{}
393,490,1.0,44.04543109109048,6.0,8.06225774829855,9.055385138137416,10.0,15.033296378372908,30.0,22.02271554554524,21.5,21.0,23.0,7.0,8.0,1.0,1.0,5.0990195135927845,6.0,6.0,14.0,17.0,13.038404810405298,{}
394,491,0.0,42.01190307520001,6.0,8.06225774829855,10.0,10.04987562112089,14.0356688476182,28.0,20.024984394500787,20.0,20.0,21.0,6.5,7.5,1.5,1.5,6.0,6.0,6.0,13.0,17.0,14.142135623730953,{}
395,492,1.0,43.01162633521314,5.0990195135927845,7.0,10.0,11.0,14.0,27.018512172212592,20.024984394500787,19.5,19.0,20.0,5.5,7.5,0.5,0.5,5.0,5.0,5.0,14.0,17.0,14.0356688476182,{}
396,493,1.0,43.01162633521314,6.0,8.0,10.04987562112089,11.04536101718726,14.0356688476182,29.017236257093817,21.02379604162864,20.5,20.0,21.0,6.5,8.5,0.5,0.5,6.0,5.0,5.5,13.0,16.0,14.142135623730953,{}
397,494,2.0,44.0,5.0,8.0,10.0,11.0,14.0356688476182,29.017236257093817,21.02379604162864,20.0,20.0,20.0,6.0,9.0,1.0,1.0,5.0,5.0,5.0,13.0,16.0,15.033296378372908,{}
398,495,2.0,45.0111097397076,6.082762530298219,9.0,10.0,11.0,13.0,30.01666203960727,21.02379604162864,20.0,21.0,20.0,7.5,9.5,0.5,1.5,6.0,6.0,5.5,13.0,17.0,15.132745950421556,{}
399,496,2.0,47.042533945356304,6.0,9.0,12.0,12.0,14.142135623730953,31.064449134018133,22.09072203437452,21.0,21.0,19.0,6.0,11.0,2.0,1.0,5.0,5.0,5.0,14.0,17.0,14.142135623730953,{}
400,497,2.0,46.04345773288535,6.0,8.0,10.0,12.0,13.038404810405298,29.017236257093817,21.02379604162864,20.0,20.0,18.0,6.0,10.0,1.0,1.0,5.0,5.0990195135927845,5.0,14.0,18.0,14.142135623730953,{}
401,498,1.0,48.04164859785725,6.0,8.0,11.0,12.0,13.038404810405298,28.0178514522438,20.024984394500787,19.5,20.0,18.0,6.0,9.0,1.0,0.0,5.0,6.0,5.5,13.0,17.0,15.132745950421556,{}
402,499,1.0,48.010415536631214,6.0,8.0,10.0,12.0,13.038404810405298,28.0178514522438,20.024984394500787,19.5,19.0,18.0,5.5,9.5,1.5,0.5,5.0,6.0,5.5,13.0,17.0,14.0356688476182,{}
403,500,0.0,47.01063709417264,6.0,8.0,11.0,12.041594578792296,14.142135623730953,28.0713376952364,20.09975124224178,20.0,19.0,18.0,4.5,9.5,1.5,0.5,6.0,6.0,5.5,14.0,17.0,15.033296378372908,{}
404,501,1.0,46.01086828130936,5.0,8.0,10.0,11.04536101718726,14.0356688476182,28.0178514522438,20.024984394500787,19.5,19.0,20.0,5.5,8.5,0.5,0.5,4.0,5.0,4.5,14.0,15.0,14.0356688476182,{}
405,502,2.0,44.04543109109048,5.0,9.0,10.04987562112089,10.04987562112089,14.0356688476182,30.01666203960727,21.02379604162864,20.0,19.0,21.0,6.0,10.0,0.0,1.0,3.0,5.0,4.0,15.0,14.0,14.0,{}
406,503,8.0,43.28972164382672,5.0,9.0,10.04987562112089,11.04536101718726,14.0356688476182,36.013886210738214,27.018512172212592,23.0,20.0,25.0,8.5,13.5,2.5,3.5,4.123105625617661,5.0,4.0,16.0,13.0,12.0,{}
407,504,11.04536101718726,44.28317965096906,7.0,9.0,11.04536101718726,11.180339887498947,14.0356688476182,41.04875150354759,32.0624390837628,26.5,23.0,28.0,11.5,15.5,4.5,4.5,4.123105625617661,6.0,5.5,17.0,11.0,10.04987562112089,{}
408,505,12.0,41.77319714841085,7.0,10.0,10.198039027185567,11.180339887498947,14.0356688476182,43.01162633521314,33.015148038438355,27.0,22.0,30.0,12.0,17.0,5.0,4.0,5.0,5.0990195135927845,4.5,18.0,11.0,13.038404810405298,{}
409,506,10.0,42.95346318982906,6.0,9.0,9.219544457292889,10.770329614269007,14.0356688476182,39.01281840626232,30.01666203960727,25.0,20.0,29.0,10.5,14.5,3.5,3.5,4.0,5.0990195135927845,4.5,19.0,10.0,10.44030650891055,{}
410,506,9.0,45.89117562233506,6.0,9.0,11.40175425099138,11.40175425099138,14.0,38.0,29.0,24.5,22.0,31.0,12.5,11.5,0.5,4.5,7.0,6.0,6.0,19.0,12.0,17.11724276862369,{}
411,507,12.0,43.17406628984581,6.0,10.0,9.219544457292889,10.44030650891055,13.0,41.0,31.0,25.0,19.0,29.0,11.0,17.0,5.0,4.0,5.0990195135927845,6.082762530298219,5.0,21.0,11.0,11.40175425099138,{}
412,507,7.0,45.12205669071391,7.0,9.0,11.40175425099138,12.36931687685298,14.0356688476182,37.01351104664349,28.0178514522438,24.5,22.0,32.0,13.0,10.0,1.0,5.0,7.071067811865476,7.071067811865476,6.5,22.0,9.0,15.524174696260024,{}
413,508,12.041594578792296,41.97618372363071,7.0,10.0,9.219544457292889,10.44030650891055,13.038404810405298,42.04759208325728,32.0624390837628,26.0,21.0,30.0,12.5,16.5,4.5,4.5,5.0990195135927845,6.082762530298219,5.0,22.0,13.0,11.180339887498947,{}
414,508,6.082762530298219,42.579337712087536,7.0,10.04987562112089,11.04536101718726,12.16552506059644,14.0356688476182,37.01351104664349,27.0,24.0,24.0,31.0,13.5,9.5,2.5,6.5,7.071067811865476,7.0,6.5,17.0,12.0,18.110770276274835,{}
415,509,9.055385138137416,41.77319714841085,6.0,10.04987562112089,8.246211251235321,9.219544457292889,14.0,39.0,29.017236257093817,24.5,19.0,27.0,9.0,16.0,4.0,1.0,5.0990195135927845,5.0990195135927845,5.0,23.0,14.0,12.36931687685298,{}
416,509,8.0,47.07440918375928,6.0,9.0,12.16552506059644,13.341664064126334,15.0,38.0,29.0,25.0,23.0,33.0,13.0,10.0,1.0,6.0,8.0,7.071067811865476,7.0,18.0,10.0,16.278820596099706,{}
417,510,2.23606797749979,40.79215610874228,6.082762530298219,9.0,9.055385138137416,9.219544457292889,15.0,32.0,23.0,22.0,18.0,26.0,7.0,10.0,0.0,1.0,6.324555320336759,6.0,5.5,22.0,13.0,12.36931687685298,{}
418,510,7.071067811865476,45.70557952810576,6.0,8.0,12.16552506059644,12.36931687685298,15.0,36.013886210738214,28.0178514522438,24.5,23.0,31.0,12.0,9.0,1.0,5.0,7.0,7.0,6.5,17.0,11.0,13.341664064126334,{}
419,511,3.1622776601683795,40.26164427839479,5.0,7.071067811865476,7.615773105863909,8.94427190999916,15.0,30.0,23.021728866442675,21.5,17.0,27.0,7.0,8.0,1.0,1.0,4.123105625617661,5.0,4.5,20.0,11.0,10.44030650891055,{}
420,511,7.071067811865476,44.7213595499958,6.0,8.0,12.16552506059644,12.36931687685298,16.0312195418814,37.05401462729781,29.068883707497267,25.5,25.0,33.0,13.0,8.0,2.0,6.0,6.0,7.071067811865476,6.5,18.0,12.0,17.0,{}
421,512,5.0,37.8549864614954,5.0,7.0,8.246211251235321,8.246211251235321,15.0,32.0,25.0,22.5,18.0,26.0,7.0,10.0,1.0,1.0,5.0990195135927845,5.0990195135927845,4.5,21.0,11.0,12.36931687685298,{}
422,513,2.0,42.7551166528639,6.0,8.06225774829855,9.219544457292889,9.219544457292889,14.0,30.01666203960727,22.0,21.0,16.0,24.0,6.0,10.0,1.0,1.0,4.123105625617661,4.123105625617661,4.0,22.0,12.0,10.770329614269007,{}
423,514,1.0,42.579337712087536,5.0,8.0,8.246211251235321,9.219544457292889,13.0,27.0,19.0,18.5,16.0,23.0,6.5,7.5,1.5,0.5,4.123105625617661,4.123105625617661,3.5,21.0,12.0,12.36931687685298,{}
424,515,3.0,41.593268686170845,5.0990195135927845,8.0,9.055385138137416,10.198039027185567,13.0,29.017236257093817,21.02379604162864,19.5,16.0,23.0,6.5,9.5,0.5,1.5,4.123105625617661,4.123105625617661,3.5,17.0,11.0,11.04536101718726,{}
425,516,4.0,44.40720662234904,5.0,8.0,10.04987562112089,11.180339887498947,13.0,30.0,22.0,20.0,18.0,24.0,8.0,9.0,1.0,3.0,4.0,5.0990195135927845,4.5,15.0,10.0,11.0,{}
426,517,4.0,44.40720662234904,6.0,9.055385138137416,10.04987562112089,11.180339887498947,12.0,31.016124838541646,22.0,20.0,17.0,23.0,8.0,11.0,1.0,2.0,4.0,4.0,4.0,19.0,12.0,11.180339887498947,{}
427,518,6.0,45.39823785126467,5.0,8.06225774829855,10.198039027185567,12.16552506059644,12.0,31.016124838541646,23.0,20.0,17.0,23.0,8.0,11.0,1.0,2.0,4.123105625617661,5.0990195135927845,4.5,16.0,11.0,11.180339887498947,{}
428,519,6.0,47.265209192385896,5.0,8.06225774829855,11.04536101718726,12.36931687685298,13.038404810405298,32.0,24.020824298928627,21.0,18.0,23.0,7.5,11.5,1.5,2.5,4.0,4.123105625617661,3.5,15.0,10.0,9.219544457292889,{}
429,520,5.0,47.16990566028302,6.0,9.0,10.04987562112089,12.16552506059644,12.041594578792296,32.01562118716424,23.021728866442675,20.5,18.0,22.0,8.0,12.0,1.0,2.0,3.1622776601683795,4.123105625617661,3.5,15.0,12.0,12.041594578792296,{}
430,521,5.0,46.17358552246078,4.0,7.0,10.04987562112089,11.180339887498947,13.0,29.0,22.0,19.5,18.0,22.0,7.0,9.0,1.0,2.0,4.123105625617661,5.0990195135927845,5.0,15.0,13.0,12.0,{}
431,522,6.0,46.17358552246078,4.0,6.082762530298219,12.041594578792296,12.16552506059644,12.0,28.0178514522438,22.0,19.0,17.0,21.0,7.0,9.0,1.0,2.0,4.123105625617661,5.0,4.5,14.0,12.0,10.0,{}
432,523,4.0,46.09772228646444,5.0,8.06225774829855,11.04536101718726,12.041594578792296,13.038404810405298,30.0,22.02271554554524,20.0,19.0,22.0,7.5,9.5,0.5,2.5,5.0990195135927845,6.0,5.5,15.0,13.0,12.0,{}
433,524,6.0,47.09564735726647,5.0,7.071067811865476,11.04536101718726,12.041594578792296,12.0,30.01666203960727,23.0,20.0,19.0,22.0,8.5,9.5,0.5,2.5,4.123105625617661,5.0,5.0,14.0,13.0,12.041594578792296,{}
434,525,5.0,46.09772228646444,5.0,9.0,11.04536101718726,12.041594578792296,13.0,32.0,23.0,20.5,20.0,23.0,8.5,10.5,0.5,3.5,5.0,6.082762530298219,5.5,16.0,14.0,13.0,{}
435,526,5.0990195135927845,45.09988913511872,6.0,9.0,11.04536101718726,12.041594578792296,12.0,32.01562118716424,23.021728866442675,20.5,20.0,23.0,9.5,10.5,0.5,3.5,6.082762530298219,6.082762530298219,5.5,16.0,14.0,14.0356688476182,{}
436,527,1.0,44.181444068749045,6.0,9.055385138137416,10.04987562112089,11.180339887498947,12.0,28.0178514522438,19.0,18.5,18.0,22.0,8.0,8.0,2.0,2.0,6.082762530298219,6.0,6.0,15.0,13.0,14.0,{}
437,528,1.0,44.181444068749045,5.0,8.06225774829855,10.04987562112089,12.041594578792296,13.038404810405298,27.073972741361768,19.026297590440446,18.5,18.0,22.0,7.0,7.0,2.0,1.0,5.0990195135927845,6.0,5.5,16.0,13.0,13.0,{}
438,529,1.0,43.28972164382672,5.0,8.06225774829855,11.04536101718726,12.16552506059644,13.0,27.018512172212592,19.0,18.5,17.0,22.0,6.5,7.5,1.5,1.5,5.0990195135927845,6.082762530298219,5.5,15.0,12.0,12.0,{}
439,530,5.0990195135927845,42.190046219457976,5.0,7.0,10.04987562112089,11.180339887498947,13.0,30.01666203960727,23.021728866442675,20.5,18.0,22.0,7.0,10.0,2.0,2.0,4.123105625617661,5.0990195135927845,5.0,15.0,13.0,13.038404810405298,{}
440,531,2.23606797749979,40.11234224026316,5.0,7.0,9.0,9.055385138137416,13.0,27.018512172212592,20.024984394500787,19.0,18.0,21.0,6.5,7.5,0.5,1.5,5.0990195135927845,5.0990195135927845,5.0,14.0,12.0,14.0356688476182,{}
441,532,1.0,42.190046219457976,6.0,8.0,9.055385138137416,11.04536101718726,14.0356688476182,28.0,20.0,20.0,18.0,22.0,6.0,8.0,1.0,0.0,6.082762530298219,6.0,5.5,14.0,11.0,14.0,{}
442,533,1.0,43.18564576337837,6.0,8.06225774829855,11.04536101718726,11.180339887498947,13.038404810405298,27.018512172212592,19.0,19.0,18.0,22.0,7.0,7.0,3.0,1.0,5.0,5.0,5.0,14.0,11.0,15.0,{}
443,534,1.0,41.19465984809196,6.0,9.055385138137416,10.198039027185567,10.04987562112089,13.0,27.018512172212592,18.0,18.5,17.0,21.0,6.0,8.0,2.0,0.0,6.082762530298219,6.0,6.0,15.0,13.0,15.0,{}
444,535,1.4142135623730951,42.2965719651132,6.0,9.0,10.04987562112089,11.180339887498947,12.0,26.019223662515376,17.029386365926403,17.5,16.0,21.0,6.5,7.5,2.5,0.5,5.0,6.0,5.5,14.0,12.0,14.0356688476182,{}
445,536,1.0,42.2965719651132,5.0,7.0,10.04987562112089,11.04536101718726,13.0,25.019992006393608,18.027756377319943,18.0,16.0,21.0,5.5,6.5,1.5,0.5,4.0,5.0990195135927845,5.0,14.0,13.0,13.0,{}
446,537,1.0,42.190046219457976,5.0,8.0,9.219544457292889,10.04987562112089,12.0,25.019992006393608,17.029386365926403,17.0,16.0,20.0,6.0,7.0,2.0,0.0,5.0990195135927845,6.0,5.5,15.0,12.0,13.0,{}
447,538,1.0,44.28317965096906,6.0,8.0,10.04987562112089,11.180339887498947,12.0,26.019223662515376,18.027756377319943,18.0,16.0,21.0,6.5,7.5,1.5,0.5,5.0990195135927845,6.0,6.0,15.0,12.0,13.038404810405298,{}
448,539,1.0,42.2965719651132,6.0,8.06225774829855,10.04987562112089,11.180339887498947,12.041594578792296,26.019223662515376,18.0,18.0,16.0,21.0,6.5,7.5,1.5,0.5,6.082762530298219,6.0,5.5,15.0,12.0,14.0356688476182,{}
449,540,0.0,43.28972164382672,6.0,8.06225774829855,10.198039027185567,11.04536101718726,12.041594578792296,26.0768096208106,18.027756377319943,18.0,16.0,21.0,6.5,7.5,2.5,0.5,6.082762530298219,6.0,6.0,16.0,13.0,14.0,{}
450,541,1.0,43.18564576337837,6.0,8.06225774829855,10.04987562112089,12.041594578792296,12.0,26.0768096208106,18.027756377319943,18.0,17.0,21.0,7.0,7.0,3.0,1.0,5.0990195135927845,6.0,6.0,14.0,11.0,13.038404810405298,{}
451,542,1.0,43.18564576337837,6.0,8.0,11.04536101718726,12.16552506059644,12.0,26.019223662515376,18.027756377319943,18.0,17.0,21.0,7.0,7.0,3.0,1.0,4.123105625617661,5.0990195135927845,5.0,13.0,10.0,14.0356688476182,{}
452,543,0.0,42.2965719651132,5.0,9.055385138137416,11.180339887498947,12.16552506059644,13.0,27.018512172212592,18.0,18.0,17.0,22.0,6.5,7.5,2.5,0.5,5.0,5.0990195135927845,5.0,14.0,11.0,15.033296378372908,{}
453,544,3.0,41.19465984809196,5.0990195135927845,9.0,10.0,11.04536101718726,13.0,30.01666203960727,21.02379604162864,19.5,18.0,22.0,7.0,10.0,0.0,2.0,6.0,6.0,5.5,15.0,12.0,14.0356688476182,{}
454,545,4.123105625617661,42.1070065428546,6.0,10.0,10.04987562112089,12.16552506059644,13.0,33.015148038438355,23.021728866442675,21.0,20.0,23.0,8.5,11.5,0.5,2.5,6.082762530298219,6.0,5.5,15.0,13.0,13.038404810405298,{}
455,546,7.0,44.181444068749045,6.0,10.04987562112089,11.04536101718726,12.041594578792296,11.0,34.0147027033899,24.0,20.5,19.0,23.0,10.0,13.0,2.0,4.0,6.082762530298219,7.0,6.5,15.0,13.0,15.0,{}
456,547,8.0,43.18564576337837,6.0,10.04987562112089,11.0,12.041594578792296,11.04536101718726,35.0,25.019992006393608,21.0,19.0,23.0,10.0,14.0,3.0,4.0,6.082762530298219,6.0,5.5,15.0,14.0,14.0,{}
457,548,7.0,44.10215414239989,7.0,10.0,10.04987562112089,12.041594578792296,11.0,35.0,25.0,21.5,20.0,23.0,10.5,13.5,1.5,3.5,5.0,6.0,5.5,15.0,14.0,14.0,{}
458,549,8.0,43.10452412450461,6.0,11.0,11.04536101718726,11.04536101718726,11.180339887498947,36.05551275463989,25.079872407968907,21.0,20.0,23.0,10.5,14.5,2.5,3.5,6.082762530298219,7.0,6.5,15.0,14.0,14.0,{}
459,550,8.0,44.10215414239989,5.0,11.0,12.0,12.041594578792296,12.041594578792296,36.013886210738214,25.019992006393608,21.0,20.0,23.0,9.5,14.5,2.5,4.5,6.0,6.0,5.5,15.0,14.0,13.0,{}
460,551,9.0,45.09988913511872,5.0,9.0,11.04536101718726,12.16552506059644,12.041594578792296,35.0142828000232,26.019223662515376,21.5,20.0,23.0,9.5,13.5,2.5,3.5,6.0,7.0,7.0,15.0,14.0,14.0356688476182,{}
461,552,7.071067811865476,44.10215414239989,6.0,10.04987562112089,11.04536101718726,12.041594578792296,12.041594578792296,35.0142828000232,25.079872407968907,21.5,20.0,23.0,9.5,13.5,2.5,3.5,6.082762530298219,6.082762530298219,5.5,14.0,14.0,13.038404810405298,{}
462,553,7.0,44.10215414239989,6.0,11.0,10.04987562112089,12.16552506059644,11.04536101718726,35.0142828000232,24.020824298928627,20.5,19.0,22.0,9.5,14.5,2.5,3.5,6.082762530298219,7.0,6.5,15.0,14.0,15.0,{}
463,554,7.0,43.10452412450461,6.0,10.0,11.0,11.04536101718726,11.04536101718726,34.0147027033899,24.020824298928627,20.5,19.0,22.0,9.5,13.5,1.5,3.5,6.082762530298219,7.0,7.0,14.0,14.0,14.0,{}
464,555,7.0,43.10452412450461,6.0,10.0,10.0,11.04536101718726,11.04536101718726,34.0147027033899,24.020824298928627,20.5,19.0,22.0,9.5,13.5,1.5,3.5,5.0,6.0,6.0,15.0,15.0,16.0312195418814,{}
465,556,7.071067811865476,44.04543109109048,6.0,10.0,11.0,12.041594578792296,11.04536101718726,34.058772731852805,24.08318915758459,20.5,20.0,22.0,10.0,13.0,2.0,4.0,6.0,6.0,5.5,14.0,14.0,15.033296378372908,{}
466,557,5.0,44.10215414239989,6.0,10.0,11.04536101718726,11.04536101718726,12.041594578792296,33.015148038438355,23.021728866442675,20.5,20.0,23.0,9.5,11.5,0.5,3.5,6.0,6.0,5.5,14.0,13.0,14.0356688476182,{}
467,558,4.0,40.11234224026316,5.0,9.0,10.04987562112089,10.04987562112089,12.0,30.0,21.0,19.0,19.0,22.0,8.5,9.5,0.5,3.5,5.0,6.0,5.5,16.0,15.0,16.0312195418814,{}
468,559,1.4142135623730951,39.20459156782532,5.0,8.0,9.0,10.04987562112089,12.041594578792296,26.0,18.0,17.5,17.0,21.0,7.0,7.0,2.0,2.0,5.0,6.0,5.5,15.0,14.0,16.0312195418814,{}
469,560,1.0,39.319206502675,6.0,9.0,10.04987562112089,10.04987562112089,11.0,26.019223662515376,17.029386365926403,17.0,16.0,21.0,7.5,7.5,2.5,1.5,6.082762530298219,6.0,6.0,16.0,16.0,18.0,{}
470,561,1.4142135623730951,40.11234224026316,6.0,10.0,10.04987562112089,10.04987562112089,11.0,28.0178514522438,18.027756377319943,17.5,18.0,21.0,8.5,8.5,2.5,2.5,5.0990195135927845,5.0,5.0,17.0,16.0,20.0,{}
471,562,3.1622776601683795,40.311288741492746,5.0,10.0,10.04987562112089,11.180339887498947,11.0,29.017236257093817,19.026297590440446,17.5,15.0,20.0,6.5,11.5,0.5,1.5,4.0,5.0990195135927845,4.5,16.0,14.0,18.0,{}
472,563,4.0,41.19465984809196,5.0,9.055385138137416,10.04987562112089,12.16552506059644,12.0,30.01666203960727,21.0,19.0,17.0,21.0,7.0,11.0,1.0,2.0,5.0990195135927845,5.0,5.5,16.0,14.0,18.0,{}
473,564,6.0,41.19465984809196,6.0,9.0,11.04536101718726,12.16552506059644,11.04536101718726,32.01562118716424,23.021728866442675,20.0,17.0,21.0,8.0,13.0,2.0,2.0,4.123105625617661,5.0,4.5,16.0,14.0,17.0,{}
474,565,5.0,40.311288741492746,5.0,8.06225774829855,10.04987562112089,10.04987562112089,13.038404810405298,31.0,23.021728866442675,20.5,16.0,21.0,5.5,12.5,2.5,0.5,4.47213595499958,5.0,4.5,19.0,12.0,16.1245154965971,{}
475,566,0.0,39.20459156782532,6.0,9.055385138137416,9.055385138137416,10.198039027185567,13.0,28.0178514522438,19.0,19.0,17.0,21.0,6.0,9.0,1.0,0.0,5.0990195135927845,5.0990195135927845,5.0,17.0,12.0,16.0312195418814,{}
476,567,0.0,39.319206502675,6.0,10.04987562112089,11.04536101718726,11.180339887498947,13.0,29.017236257093817,19.0,19.0,17.0,22.0,6.5,9.5,1.5,0.5,4.123105625617661,5.0,4.5,16.0,13.0,17.029386365926403,{}
477,568,1.0,39.20459156782532,6.0,9.055385138137416,10.04987562112089,11.180339887498947,12.041594578792296,28.0713376952364,19.026297590440446,18.5,18.0,22.0,8.0,8.0,3.0,2.0,5.0990195135927845,6.0,5.5,15.0,13.0,17.0,{}
478,569,2.23606797749979,39.319206502675,5.0,10.04987562112089,10.198039027185567,10.198039027185567,12.0,29.068883707497267,19.026297590440446,18.0,17.0,22.0,7.5,9.5,2.5,1.5,5.0990195135927845,6.0,5.5,15.0,13.0,18.0,{}
479,570,1.0,40.311288741492746,6.0,10.04987562112089,10.198039027185567,11.04536101718726,11.04536101718726,28.0713376952364,18.027756377319943,17.5,17.0,22.0,8.5,8.5,3.5,1.5,6.0,6.0,5.5,15.0,13.0,19.0,{}
480,571,2.23606797749979,37.33630940518894,4.0,7.0,9.219544457292889,9.219544457292889,12.0,25.019992006393608,18.027756377319943,17.0,17.0,22.0,7.5,5.5,3.5,2.5,6.0,6.0,6.0,14.0,13.0,15.0,{}
481,572,1.0,40.11234224026316,6.0,10.04987562112089,10.198039027185567,11.04536101718726,10.0,27.018512172212592,17.0,16.5,18.0,21.0,9.5,7.5,3.5,2.5,6.082762530298219,6.0,5.5,16.0,14.0,19.026297590440446,{}
482,573,1.0,39.05124837953327,6.0,11.04536101718726,10.04987562112089,12.041594578792296,10.0,28.0178514522438,17.0,16.5,18.0,20.0,9.0,9.0,3.0,3.0,6.082762530298219,6.0,6.0,15.0,14.0,18.0,{}
483,574,2.0,38.11823710509184,7.0,10.04987562112089,10.04987562112089,11.180339887498947,10.04987562112089,29.0,19.026297590440446,18.0,18.0,21.0,9.5,9.5,1.5,2.5,6.082762530298219,7.0,6.5,15.0,15.0,16.0,{}
484,575,3.1622776601683795,39.05124837953327,7.0,10.0,10.04987562112089,11.04536101718726,11.04536101718726,31.0,21.0,19.5,19.0,21.0,9.0,11.0,0.0,2.0,7.071067811865476,8.0,7.5,15.0,14.0,18.0,{}
485,576,4.0,40.049968789001575,6.0,9.055385138137416,11.04536101718726,11.04536101718726,11.0,30.01666203960727,21.0,19.0,20.0,22.0,10.0,9.0,1.0,4.0,7.071067811865476,8.0,7.5,15.0,14.0,19.026297590440446,{}
486,577,2.0,42.01190307520001,7.071067811865476,11.0,11.04536101718726,12.0,10.04987562112089,30.0,19.0,18.0,20.0,21.0,10.5,9.5,2.5,3.5,7.071067811865476,8.06225774829855,7.5,15.0,15.0,18.027756377319943,{}
487,578,1.0,39.01281840626232,7.0,9.055385138137416,11.0,11.0,9.0,26.019223662515376,17.0,16.5,19.0,20.0,10.5,6.5,3.5,4.5,8.06225774829855,8.06225774829855,7.5,16.0,15.0,18.0,{}
488,579,2.23606797749979,40.01249804748511,6.0,10.0,11.0,11.0,9.0,27.018512172212592,17.029386365926403,16.0,19.0,20.0,10.5,7.5,3.5,4.5,7.0,8.0,7.5,16.0,15.0,19.026297590440446,{}
489,580,2.0,40.01249804748511,6.0,9.055385138137416,10.0,11.0,10.0,27.018512172212592,18.0,17.0,19.0,20.0,9.5,7.5,2.5,3.5,7.0,8.0,7.5,16.0,14.0,17.029386365926403,{}
490,581,1.0,40.049968789001575,6.082762530298219,10.04987562112089,11.0,11.04536101718726,11.0,28.0713376952364,18.027756377319943,17.5,19.0,21.0,9.0,8.0,3.0,3.0,7.071067811865476,8.0,7.5,16.0,14.0,17.029386365926403,{}
491,582,4.123105625617661,42.04759208325728,5.0990195135927845,8.06225774829855,11.04536101718726,12.041594578792296,12.041594578792296,29.0,21.02379604162864,19.0,20.0,22.0,9.0,8.0,1.0,4.0,7.071067811865476,8.0,7.5,17.0,14.0,16.0312195418814,{}
492,583,7.071067811865476,45.044422518220834,5.0,8.0,12.041594578792296,13.038404810405298,11.0,31.016124838541646,23.021728866442675,19.5,20.0,22.0,10.0,10.0,1.0,5.0,8.0,8.06225774829855,7.5,17.0,14.0,18.027756377319943,{}
493,584,5.0,43.0,5.0,7.0,12.0,12.0,12.0,29.0,22.0,19.5,22.0,22.0,10.0,7.0,1.0,5.0,7.071067811865476,7.0,7.0,17.0,14.0,18.027756377319943,{}
494,585,4.123105625617661,42.0,4.0,5.0990195135927845,10.0,11.0,11.0,24.08318915758459,19.026297590440446,17.0,20.0,20.0,9.0,4.0,2.0,5.0,8.06225774829855,8.0,7.5,18.0,14.0,19.1049731745428,{}
495,586,6.082762530298219,30.0,5.0990195135927845,9.055385138137416,8.06225774829855,8.06225774829855,19.0,39.01281840626232,30.0,27.0,31.0,31.0,12.0,8.0,2.0,6.0,7.071067811865476,7.0,7.0,18.0,14.0,14.317821063276352,{}
496,587,4.123105625617661,39.05124837953327,4.0,6.082762530298219,9.0,9.055385138137416,12.36931687685298,18.68154169226941,12.649110640673518,14.0,12.0,14.0,1.0,5.0,2.0,2.0,7.071067811865476,7.0,7.5,19.0,16.0,16.0312195418814,{}
497,599,8.0,47.042533945356304,5.0990195135927845,9.0,12.0,13.0,16.0312195418814,38.05259518088089,29.068883707497267,25.0,20.0,22.0,5.0,17.0,7.0,1.0,8.06225774829855,7.0,7.5,20.0,15.0,18.027756377319943,{}
498,600,11.04536101718726,48.04164859785725,5.0,10.0,11.0,13.0,16.0312195418814,42.04759208325728,32.0624390837628,26.5,20.0,22.0,5.0,21.0,10.0,1.0,7.071067811865476,8.0,7.5,20.0,16.0,19.026297590440446,{}
499,601,12.0,47.01063709417264,5.0,8.06225774829855,11.0,12.041594578792296,16.1245154965971,41.10960958218893,33.06055050963308,27.0,22.0,23.0,6.5,18.5,8.5,2.5,7.071067811865476,8.0,7.5,21.0,16.0,18.110770276274835,{}
500,609,3.1622776601683795,42.0,3.0,7.0,8.0,9.0,16.278820596099706,29.068883707497267,22.09072203437452,20.5,20.0,20.0,4.0,9.0,2.0,1.0,7.071067811865476,7.0,7.0,20.0,14.0,17.11724276862369,{}
501,610,3.1622776601683795,40.01249804748511,4.123105625617661,7.0,9.0,10.0,14.0,28.0,21.0,19.5,19.0,18.0,4.5,9.5,2.5,1.5,7.0,7.071067811865476,7.0,19.0,16.0,18.027756377319943,{}
502,611,7.0,54.037024344425184,3.1622776601683795,7.071067811865476,14.0356688476182,16.0,10.198039027185567,27.29468812791236,20.223748416156685,16.5,7.0,9.0,2.0,19.0,10.0,5.0,8.246211251235321,7.0,7.0,21.0,16.0,19.026297590440446,{}
503,612,13.038404810405298,52.3450093132096,5.0,7.0,13.152946437965904,15.297058540778355,10.0,35.0142828000232,28.0178514522438,21.5,17.0,23.0,10.0,15.0,6.0,4.0,8.06225774829855,8.06225774829855,8.0,21.0,16.0,23.08679276123039,{}
504,613,16.0312195418814,53.08483775994799,4.123105625617661,8.06225774829855,15.033296378372908,16.0312195418814,12.041594578792296,40.0,32.01562118716424,24.0,20.0,23.0,9.5,18.5,8.5,5.5,9.055385138137416,8.06225774829855,8.0,19.0,15.0,20.024984394500787,{}
505,614,9.055385138137416,52.23983154643591,4.0,8.0,15.132745950421556,15.132745950421556,13.152946437965904,34.132096331752024,26.1725046566048,21.5,19.0,24.0,8.5,12.5,2.5,3.5,8.06225774829855,8.06225774829855,7.5,19.0,16.0,21.02379604162864,{}
506,615,1.4142135623730951,43.04648650006177,5.0990195135927845,8.0,11.04536101718726,13.038404810405298,13.0,27.0,19.0,18.5,20.0,22.0,8.0,6.0,3.0,3.0,7.071067811865476,8.06225774829855,7.5,18.0,15.0,19.026297590440446,{}
507,616,0.0,40.049968789001575,5.0,8.0,10.04987562112089,11.04536101718726,13.0,26.0,18.0,18.0,19.0,21.0,7.0,6.0,3.0,2.0,7.071067811865476,8.0,7.5,18.0,16.0,19.026297590440446,{}
508,617,1.4142135623730951,37.01351104664349,6.0,9.0,10.0,11.04536101718726,12.0,28.0178514522438,19.026297590440446,18.5,20.0,21.0,8.5,7.5,2.5,2.5,7.071067811865476,8.0,7.5,17.0,16.0,19.026297590440446,{}
509,618,1.4142135623730951,35.0,6.0,9.0,10.0,11.0,12.0,28.0178514522438,19.026297590440446,18.5,21.0,21.0,9.0,7.0,3.0,3.0,7.0,8.06225774829855,7.5,16.0,16.0,19.0,{}
510,619,0.0,38.0,6.0,9.055385138137416,10.0,11.0,13.038404810405298,28.0,19.026297590440446,19.0,21.0,21.0,8.0,7.0,2.0,3.0,7.0,8.0,7.5,16.0,16.0,19.0,{}
511,620,0.0,39.0,7.0,9.055385138137416,10.0,11.04536101718726,11.04536101718726,27.0,18.027756377319943,18.0,20.0,20.0,9.0,7.0,3.0,3.0,7.071067811865476,8.06225774829855,8.0,16.0,17.0,19.0,{}
512,621,0.0,40.01249804748511,5.0,9.0,9.0,11.0,13.0,27.0,18.0,18.0,21.0,20.0,7.5,6.5,2.5,2.5,5.0990195135927845,5.0990195135927845,5.5,14.0,16.0,20.0,{}
513,622,0.0,41.04875150354759,6.082762530298219,9.0,10.04987562112089,10.04987562112089,12.0,27.018512172212592,18.027756377319943,18.0,22.0,20.0,9.0,6.0,4.0,4.0,6.082762530298219,5.0990195135927845,5.0,14.0,16.0,20.024984394500787,{}
514,623,1.0,42.04759208325728,6.0,9.0,10.04987562112089,10.0,14.0356688476182,28.0178514522438,19.026297590440446,19.5,23.0,21.0,8.0,6.0,3.0,3.0,5.0,6.0,6.0,14.0,17.0,18.027756377319943,{}
515,624,1.4142135623730951,40.11234224026316,6.0,8.0,9.055385138137416,10.0,12.041594578792296,27.073972741361768,19.1049731745428,18.5,22.0,19.0,8.5,6.5,2.5,2.5,5.0,6.0,6.0,14.0,17.0,19.0,{}
516,625,1.0,42.04759208325728,6.082762530298219,7.0,10.0,10.0,14.0356688476182,26.0768096208106,19.1049731745428,19.5,22.0,20.0,7.0,5.0,3.0,2.0,6.082762530298219,6.0,6.0,14.0,17.0,21.02379604162864,{}
517,626,1.0,41.10960958218893,6.0,8.0,10.04987562112089,10.04987562112089,13.038404810405298,26.019223662515376,18.027756377319943,18.5,22.0,19.0,7.5,5.5,2.5,2.5,6.0,5.0990195135927845,5.0,14.0,18.0,19.1049731745428,{}
518,627,1.0,42.1070065428546,6.082762530298219,8.0,10.04987562112089,10.0,13.0,26.019223662515376,18.027756377319943,18.5,22.0,19.0,7.5,5.5,2.5,2.5,4.0,4.0,4.0,14.0,18.0,21.02379604162864,{}
519,628,1.0,43.04648650006177,5.0,8.0,10.0,11.04536101718726,14.0356688476182,26.019223662515376,18.027756377319943,18.5,22.0,20.0,7.0,5.0,3.0,2.0,5.0,5.0,5.0,14.0,18.0,18.110770276274835,{}
520,629,1.0,43.10452412450461,6.082762530298219,7.0,10.04987562112089,11.0,13.0,25.019992006393608,18.027756377319943,18.5,22.0,19.0,7.5,4.5,2.5,2.5,5.0,5.0,5.0,15.0,18.0,19.026297590440446,{}
521,630,1.0,44.04543109109048,6.0,8.0,9.055385138137416,10.0,11.04536101718726,25.079872407968907,17.11724276862369,17.0,19.0,17.0,7.0,7.0,1.0,2.0,5.0,4.0,4.0,14.0,17.0,18.027756377319943,{}
522,631,1.0,47.01063709417264,5.0990195135927845,8.0,11.0,12.0,12.041594578792296,26.0768096208106,18.110770276274835,17.5,19.0,18.0,6.5,7.5,0.5,1.5,5.0990195135927845,5.0,5.0,13.0,16.0,18.027756377319943,{}
523,632,1.0,44.01136216933077,6.0,8.0,11.0,11.0,13.038404810405298,28.0178514522438,20.024984394500787,19.5,21.0,20.0,7.5,7.5,1.5,1.5,5.0,5.0,5.0,15.0,16.0,18.0,{}
524,633,0.0,43.0,6.0,8.06225774829855,10.04987562112089,11.0,13.152946437965904,27.018512172212592,19.1049731745428,19.0,20.0,20.0,7.0,7.0,2.0,2.0,4.123105625617661,5.0,5.0,14.0,17.0,18.0,{}
525,634,1.0,46.01086828130936,6.0,8.06225774829855,11.0,11.04536101718726,13.152946437965904,26.019223662515376,18.110770276274835,18.5,20.0,19.0,6.5,6.5,2.5,1.5,5.0,5.0,5.0,13.0,16.0,19.0,{}
526,635,0.0,45.0111097397076,6.0,8.0,10.04987562112089,11.0,13.038404810405298,27.018512172212592,19.026297590440446,19.0,20.0,19.0,6.5,7.5,1.5,1.5,5.0990195135927845,5.0,5.5,14.0,16.0,19.0,{}
527,636,1.4142135623730951,47.01063709417264,6.0,8.06225774829855,11.0,11.04536101718726,13.038404810405298,28.0178514522438,20.09975124224178,19.5,20.0,19.0,6.5,8.5,0.5,0.5,4.123105625617661,4.0,4.0,14.0,17.0,19.0,{}
528,637,1.0,48.010415536631214,6.0,8.0,12.0,13.0,13.152946437965904,28.0713376952364,20.09975124224178,19.5,19.0,18.0,5.5,9.5,0.5,0.5,5.0990195135927845,5.0,5.0,14.0,16.0,20.0,{}
529,638,1.0,48.04164859785725,6.082762530298219,9.0,12.041594578792296,13.038404810405298,12.041594578792296,28.0713376952364,19.1049731745428,18.5,19.0,17.0,6.0,10.0,1.0,1.0,4.0,4.123105625617661,4.0,15.0,17.0,20.0,{}
530,639,4.123105625617661,49.09175083453431,6.0,9.055385138137416,12.041594578792296,13.038404810405298,11.40175425099138,30.14962686336267,21.37755832643195,19.0,20.0,17.0,7.5,11.5,2.5,2.5,4.0,4.0,4.0,14.0,17.0,22.02271554554524,{}
531,640,6.0,50.039984012787215,5.0,8.0,12.0,13.0,12.36931687685298,31.14482300479488,23.194827009486403,20.0,19.0,17.0,6.0,13.0,4.0,1.0,4.0,4.0,4.0,15.0,18.0,20.024984394500787,{}
532,641,6.0,50.039984012787215,5.0,9.0,12.0,13.0,12.36931687685298,32.14031735997639,23.194827009486403,20.0,20.0,18.0,7.0,13.0,4.0,2.0,4.0,4.0,4.0,14.0,17.0,20.0,{}
533,642,3.0,47.042533945356304,5.0990195135927845,8.0,11.04536101718726,13.038404810405298,12.16552506059644,28.16025568065745,20.223748416156685,18.5,20.0,18.0,7.0,9.0,1.0,3.0,4.0,4.0,4.0,15.0,18.0,22.02271554554524,{}
534,643,2.23606797749979,48.04164859785725,5.0,8.0,11.04536101718726,13.0,12.16552506059644,27.16615541441225,19.235384061671343,18.0,19.0,17.0,6.0,9.0,1.0,2.0,4.0,4.0,4.0,14.0,17.0,19.0,{}
535,644,3.0,49.04079934095692,5.0,9.0,12.0,13.0,11.40175425099138,28.16025568065745,19.235384061671343,17.5,19.0,17.0,7.0,10.0,1.0,2.0,4.123105625617661,4.0,4.0,14.0,17.0,20.024984394500787,{}
536,645,3.0,49.01020301937138,5.0,8.0,12.041594578792296,14.0,12.36931687685298,28.16025568065745,20.223748416156685,18.5,19.0,18.0,6.5,9.5,0.5,2.5,4.0,5.0,5.0,14.0,17.0,21.0,{}
537,646,4.0,49.04079934095692,5.0,9.0,12.041594578792296,13.038404810405298,12.16552506059644,30.066592756745816,21.095023109728988,19.0,20.0,18.0,7.0,11.0,2.0,3.0,4.0,4.0,4.5,15.0,18.0,19.026297590440446,{}
538,647,9.0,49.01020301937138,5.0,9.0,12.0,13.038404810405298,12.16552506059644,35.05709628591621,26.0768096208106,21.5,20.0,19.0,7.5,15.5,5.5,2.5,4.0,4.0,4.5,14.0,17.0,21.0,{}
539,648,15.0,51.03920062069938,4.0,8.0,13.0,15.033296378372908,13.341664064126334,40.11234224026316,32.14031735997639,24.5,23.0,21.0,9.0,18.0,9.0,5.0,5.0,4.0,4.0,14.0,16.0,22.02271554554524,{}
540,649,16.0312195418814,50.08991914547278,5.0,9.0,13.0,14.0356688476182,11.180339887498947,41.10960958218893,32.14031735997639,24.0,23.0,20.0,10.5,19.5,9.5,5.5,4.123105625617661,4.0,4.0,14.0,17.0,19.0,{}
541,650,15.033296378372908,50.039984012787215,5.0,9.0,13.038404810405298,14.0,12.16552506059644,41.10960958218893,32.14031735997639,24.5,23.0,21.0,10.0,19.0,10.0,6.0,4.0,4.0,4.0,12.0,15.0,19.026297590440446,{}
542,651,16.0,51.03920062069938,4.0,9.0,13.0,15.0,13.152946437965904,42.04759208325728,33.06055050963308,25.0,24.0,22.0,10.0,19.0,10.0,6.0,4.0,4.0,4.0,13.0,16.0,17.029386365926403,{}
543,652,16.0,50.08991914547278,5.0,9.0,13.038404810405298,14.0356688476182,12.36931687685298,42.1070065428546,33.13608305156178,25.0,25.0,22.0,11.5,18.5,8.5,7.5,3.0,4.0,4.0,13.0,16.0,17.0,{}
544,653,16.0,50.08991914547278,4.0,9.0,13.0,15.033296378372908,12.16552506059644,41.04875150354759,32.0624390837628,24.0,24.0,21.0,10.5,18.5,9.5,6.5,4.0,4.0,4.0,11.0,16.0,18.0,{}
545,654,14.0356688476182,49.04079934095692,4.0,10.04987562112089,13.0,15.0,12.36931687685298,40.11234224026316,30.26549190084312,23.0,23.0,21.0,10.0,18.0,8.0,6.0,3.0,3.0,3.0,12.0,15.0,19.0,{}
546,655,14.0356688476182,48.04164859785725,5.0,9.0,13.0,14.0,11.180339887498947,39.11521443121589,30.14962686336267,23.0,23.0,21.0,11.0,17.0,7.0,6.0,3.0,3.0,3.0,12.0,16.0,18.027756377319943,{}
547,656,14.0,50.039984012787215,4.0,9.0,14.0,15.0,12.36931687685298,39.11521443121589,30.14962686336267,23.0,23.0,21.0,10.0,17.0,8.0,6.0,4.0,3.0,3.5,12.0,15.0,17.0,{}
548,657,10.0,48.010415536631214,5.0,8.0,13.038404810405298,14.0356688476182,12.16552506059644,35.05709628591621,27.073972741361768,22.0,23.0,22.0,10.5,12.5,3.5,6.5,4.0,4.0,4.0,13.0,16.0,17.0,{}
549,658,7.0,46.01086828130936,6.0,10.0,13.038404810405298,13.038404810405298,11.40175425099138,34.132096331752024,24.186773244895647,20.5,22.0,21.0,10.5,12.5,1.5,5.5,5.0990195135927845,6.0,6.0,17.0,15.0,18.110770276274835,{}
550,659,6.082762530298219,45.044422518220834,6.0,10.0,13.0,13.038404810405298,10.198039027185567,32.14031735997639,22.20360331117452,19.0,22.0,20.0,11.0,11.0,1.0,5.0,6.0,5.0,5.0,15.0,16.0,17.0,{}
551,660,6.0,45.0111097397076,6.0,9.0,12.041594578792296,13.0,10.44030650891055,31.14482300479488,22.20360331117452,19.0,21.0,20.0,10.5,10.5,1.5,5.5,5.0,6.0,6.0,14.0,15.0,18.0,{}
552,661,7.0,44.04543109109048,5.0,9.0,12.0,13.0,11.180339887498947,32.0624390837628,23.08679276123039,19.5,22.0,20.0,10.0,11.0,1.0,5.0,4.0,3.0,3.0,13.0,15.0,17.029386365926403,{}
553,662,5.0990195135927845,44.04543109109048,6.082762530298219,10.0,13.038404810405298,14.0356688476182,10.44030650891055,31.14482300479488,21.213203435596427,18.5,22.0,20.0,11.0,10.0,0.0,6.0,4.0,3.0,3.5,13.0,16.0,18.027756377319943,{}
554,663,5.0990195135927845,43.04648650006177,6.0,9.055385138137416,12.0,13.0,10.198039027185567,30.066592756745816,21.213203435596427,18.5,22.0,20.0,11.0,9.0,0.0,5.0,4.0,4.0,4.0,13.0,16.0,17.029386365926403,{}
555,664,6.082762530298219,44.04543109109048,6.0,9.055385138137416,12.041594578792296,13.0,9.055385138137416,30.01666203960727,21.095023109728988,18.0,21.0,19.0,11.0,10.0,1.0,5.0,4.0,4.0,3.5,13.0,15.0,18.0,{}
556,665,5.0,44.04543109109048,6.0,10.0,12.0,13.0,10.198039027185567,31.064449134018133,21.095023109728988,18.5,22.0,20.0,11.0,10.0,0.0,5.0,4.0,4.123105625617661,4.0,13.0,16.0,19.026297590440446,{}
557,666,6.0,43.04648650006177,6.082762530298219,9.0,11.04536101718726,12.041594578792296,10.04987562112089,31.064449134018133,22.09072203437452,19.0,22.0,20.0,11.0,10.0,1.0,6.0,4.0,4.0,4.0,13.0,16.0,18.027756377319943,{}
558,667,6.082762530298219,42.01190307520001,6.0,9.055385138137416,10.0,11.0,9.219544457292889,30.066592756745816,21.213203435596427,18.0,20.0,19.0,10.5,10.5,0.5,4.5,6.0,6.0,6.0,16.0,15.0,17.0,{}
559,668,6.082762530298219,44.01136216933077,6.0,10.0,11.0,12.0,9.219544457292889,31.14482300479488,21.213203435596427,18.0,21.0,20.0,11.5,10.5,0.5,5.5,6.082762530298219,5.0,5.0,15.0,15.0,16.0,{}
560,669,4.123105625617661,43.01162633521314,6.0,9.0,11.04536101718726,12.041594578792296,10.198039027185567,29.154759474226505,20.223748416156685,18.0,21.0,20.0,10.5,8.5,0.5,5.5,5.0,5.0,5.0,15.0,15.0,17.029386365926403,{}
561,670,6.082762530298219,43.0,5.0,9.055385138137416,11.0,13.0,10.198039027185567,30.066592756745816,21.213203435596427,18.0,20.0,20.0,10.0,10.0,0.0,5.0,5.0,5.0,5.0,16.0,16.0,16.0312195418814,{}
562,671,4.123105625617661,37.01351104664349,6.0,9.055385138137416,9.0,10.0,10.0,29.0,20.024984394500787,18.0,21.0,22.0,11.5,7.5,1.5,5.5,4.0,5.0990195135927845,5.0,14.0,17.0,17.0,{}
563,672,4.123105625617661,41.01219330881976,5.0,9.0,10.04987562112089,11.0,11.180339887498947,29.154759474226505,20.223748416156685,18.0,20.0,19.0,8.5,9.5,0.5,4.5,4.0,5.0990195135927845,5.0,13.0,17.0,18.027756377319943,{}
564,673,4.0,39.01281840626232,6.0,9.0,10.0,11.0,9.219544457292889,28.0713376952364,19.1049731745428,17.0,20.0,19.0,10.5,8.5,1.5,4.5,4.0,5.0,5.0,14.0,17.0,18.0,{}
565,674,2.0,37.01351104664349,6.0,10.0,9.0,10.04987562112089,11.0,29.0,19.0,18.0,23.0,24.0,12.5,5.5,4.5,6.5,5.0,5.0,5.0,14.0,16.0,18.0,{}
566,675,1.0,34.058772731852805,7.0,9.055385138137416,8.06225774829855,9.055385138137416,13.0,30.01666203960727,21.0,20.5,24.0,26.0,12.0,5.0,5.0,5.0,6.0,6.0,6.0,14.0,16.0,16.0312195418814,{}
567,676,1.0,41.01219330881976,5.0,9.0,10.0,11.0,12.0,27.0,18.0,17.5,21.0,20.0,8.5,6.5,2.5,3.5,5.0,5.0990195135927845,5.0,14.0,16.0,17.0,{}
568,677,4.0,43.04648650006177,6.0,9.0,10.0,11.0,13.038404810405298,32.01562118716424,23.021728866442675,21.0,23.0,21.0,9.0,10.0,1.0,3.0,5.0990195135927845,5.0,5.0,14.0,15.0,17.029386365926403,{}
569,678,6.0,43.10452412450461,6.0,9.055385138137416,10.04987562112089,12.041594578792296,11.04536101718726,32.0,23.021728866442675,20.0,23.0,20.0,10.5,10.5,2.5,5.5,3.0,4.0,3.5,15.0,16.0,18.0,{}
570,679,4.0,43.04648650006177,6.0,8.0,11.04536101718726,12.041594578792296,10.198039027185567,28.0713376952364,20.09975124224178,18.0,20.0,18.0,9.0,9.0,1.0,4.0,5.0,4.123105625617661,4.0,15.0,15.0,17.029386365926403,{}
571,680,4.0,45.0111097397076,5.0,7.0,12.0,13.0,10.04987562112089,26.019223662515376,19.026297590440446,17.0,19.0,18.0,8.5,7.5,0.5,3.5,4.0,3.0,3.0,13.0,16.0,18.027756377319943,{}
572,681,3.0,45.044422518220834,6.0,7.0,11.04536101718726,13.0,10.04987562112089,26.019223662515376,19.026297590440446,17.5,20.0,18.0,9.0,7.0,1.0,4.0,4.0,4.0,4.0,13.0,15.0,16.0,{}
573,682,5.0,44.10215414239989,6.0,9.0,12.041594578792296,12.041594578792296,11.180339887498947,31.064449134018133,22.09072203437452,19.5,23.0,20.0,10.5,9.5,0.5,5.5,3.0,4.0,4.0,13.0,18.0,19.0,{}
574,683,1.0,43.04648650006177,6.0,8.0,10.04987562112089,11.0,12.16552506059644,27.073972741361768,19.1049731745428,18.5,21.0,19.0,8.0,7.0,2.0,3.0,4.0,4.0,4.0,13.0,17.0,18.027756377319943,{}
575,684,0.0,43.04648650006177,5.0,9.0,10.0,11.0,12.16552506059644,26.0768096208106,17.11724276862369,17.0,21.0,19.0,8.0,6.0,3.0,3.0,3.1622776601683795,4.123105625617661,4.0,12.0,17.0,19.026297590440446,{}
576,685,0.0,44.10215414239989,5.0,7.0,11.0,12.0,12.16552506059644,24.08318915758459,17.11724276862369,17.0,20.0,17.0,6.5,5.5,2.5,2.5,5.0,5.0,5.0,13.0,16.0,17.0,{}
577,686,2.0,46.09772228646444,6.082762530298219,9.0,12.0,13.038404810405298,12.041594578792296,29.068883707497267,20.09975124224178,19.0,21.0,18.0,7.5,9.5,0.5,2.5,5.0,5.0,5.0,12.0,17.0,18.0,{}
578,687,4.123105625617661,48.16637831516918,5.0,8.0,12.041594578792296,13.038404810405298,12.16552506059644,29.154759474226505,21.213203435596427,19.0,22.0,18.0,8.0,9.0,1.0,3.0,4.0,5.0,5.0,12.0,17.0,18.027756377319943,{}
579,688,1.4142135623730951,46.04345773288535,5.0990195135927845,7.0,12.0,12.0,12.16552506059644,25.317977802344327,18.43908891458577,17.5,20.0,18.0,7.0,6.0,1.0,3.0,4.0,4.123105625617661,4.5,12.0,17.0,18.110770276274835,{}
580,689,1.0,45.09988913511872,5.0990195135927845,7.071067811865476,10.04987562112089,11.0,12.16552506059644,24.515301344262525,17.46424919657298,17.0,19.0,16.0,5.5,6.5,0.5,1.5,4.123105625617661,4.0,3.5,13.0,19.0,18.027756377319943,{}
581,690,3.1622776601683795,46.04345773288535,5.0,7.071067811865476,10.04987562112089,11.04536101718726,13.341664064126334,22.56102834535696,15.524174696260024,16.5,18.0,16.0,4.0,5.0,2.0,0.0,5.0,5.0,5.0,13.0,17.0,17.029386365926403,{}
582,691,4.123105625617661,46.09772228646444,5.0,7.0,11.0,11.0,13.341664064126334,21.37755832643195,14.560219778561036,16.0,19.0,16.0,4.5,3.5,3.5,0.5,5.0,5.0990195135927845,5.0,12.0,16.0,16.1245154965971,{}
583,692,3.1622776601683795,42.190046219457976,5.0990195135927845,9.0,10.0,11.04536101718726,13.152946437965904,30.26549190084312,21.37755832643195,19.5,23.0,19.0,8.0,9.0,0.0,3.0,5.0,4.0,4.0,12.0,18.0,18.110770276274835,{}
584,693,2.0,41.19465984809196,7.071067811865476,10.0,10.04987562112089,11.04536101718726,12.16552506059644,31.14482300479488,21.213203435596427,20.0,23.0,19.0,9.0,10.0,1.0,3.0,6.082762530298219,6.0,6.0,13.0,19.0,18.027756377319943,{}
585,694,1.4142135623730951,41.10960958218893,7.0,10.0,10.04987562112089,10.04987562112089,11.180339887498947,29.154759474226505,19.235384061671343,18.5,21.0,18.0,8.5,9.5,0.5,2.5,6.0,6.082762530298219,6.5,12.0,18.0,20.223748416156685,{}
586,695,2.0,39.11521443121589,6.082762530298219,9.0,9.0,11.0,10.04987562112089,27.073972741361768,18.110770276274835,17.0,20.0,17.0,8.5,8.5,0.5,2.5,6.0,7.071067811865476,6.5,12.0,18.0,19.1049731745428,{}
587,696,1.0,40.19950248448356,7.0,11.04536101718726,9.055385138137416,10.04987562112089,10.04987562112089,29.068883707497267,18.027756377319943,17.5,21.0,17.0,9.0,10.0,1.0,3.0,6.0,7.071067811865476,6.5,12.0,18.0,20.09975124224178,{}
588,697,1.0,41.04875150354759,6.082762530298219,10.0,10.0,10.04987562112089,10.04987562112089,26.019223662515376,16.0312195418814,16.0,19.0,17.0,8.0,8.0,2.0,2.0,6.082762530298219,6.0,6.0,12.0,19.0,21.213203435596427,{}
589,698,1.0,41.10960958218893,6.082762530298219,10.04987562112089,10.0,11.04536101718726,10.04987562112089,26.0768096208106,16.0312195418814,16.0,20.0,17.0,8.5,7.5,2.5,2.5,7.0,6.082762530298219,6.0,12.0,18.0,21.095023109728988,{}
590,699,0.0,42.1070065428546,6.082762530298219,10.0,10.04987562112089,11.04536101718726,10.0,26.019223662515376,16.0312195418814,16.0,20.0,17.0,8.5,7.5,2.5,3.5,6.0,7.071067811865476,6.5,12.0,19.0,21.095023109728988,{}
591,700,0.0,42.190046219457976,6.082762530298219,10.0,10.04987562112089,11.04536101718726,9.055385138137416,25.079872407968907,15.132745950421556,15.0,20.0,16.0,9.0,7.0,3.0,4.0,6.082762530298219,7.071067811865476,6.0,13.0,19.0,19.1049731745428,{}
592,701,0.0,45.09988913511872,6.0,10.04987562112089,10.04987562112089,11.04536101718726,10.198039027185567,26.1725046566048,16.1245154965971,16.0,20.0,17.0,8.5,7.5,2.5,3.5,6.0,6.082762530298219,6.0,12.0,19.0,20.09975124224178,{}
593,702,0.0,42.1070065428546,6.082762530298219,10.0,10.04987562112089,11.04536101718726,9.055385138137416,25.079872407968907,15.132745950421556,15.0,19.0,16.0,8.5,7.5,2.5,3.5,6.0,6.082762530298219,5.5,13.0,19.0,20.09975124224178,{}
594,703,2.0,44.28317965096906,5.0990195135927845,9.055385138137416,10.04987562112089,12.041594578792296,10.04987562112089,26.1725046566048,17.11724276862369,16.0,21.0,16.0,8.5,7.5,2.5,3.5,7.0,7.071067811865476,6.5,12.0,18.0,20.09975124224178,{}
595,704,1.0,44.181444068749045,5.0990195135927845,10.0,10.04987562112089,12.041594578792296,10.04987562112089,26.0768096208106,16.1245154965971,15.5,20.0,16.0,8.0,8.0,2.0,4.0,6.0,7.071067811865476,6.5,12.0,18.0,20.09975124224178,{}
596,705,1.0,43.18564576337837,6.0,9.055385138137416,10.04987562112089,12.041594578792296,9.055385138137416,25.079872407968907,16.0312195418814,15.5,20.0,16.0,9.0,7.0,2.0,3.0,6.0,6.082762530298219,6.0,11.0,19.0,19.235384061671343,{}
597,706,0.0,44.04543109109048,6.0,10.0,10.04987562112089,11.04536101718726,11.180339887498947,27.073972741361768,17.11724276862369,17.0,21.0,19.0,9.0,7.0,3.0,4.0,7.0,7.071067811865476,6.5,11.0,17.0,18.110770276274835,{}
598,707,1.0,45.17742799230607,6.0,10.0,11.04536101718726,11.04536101718726,10.04987562112089,26.0768096208106,16.1245154965971,16.0,22.0,18.0,10.0,6.0,3.0,5.0,7.071067811865476,7.071067811865476,7.0,12.0,18.0,19.235384061671343,{}
599,708,0.0,45.09988913511872,6.0,10.04987562112089,11.0,12.041594578792296,10.04987562112089,26.0768096208106,16.0312195418814,16.0,21.0,18.0,9.5,6.5,3.5,3.5,6.082762530298219,7.071067811865476,7.0,13.0,19.0,19.1049731745428,{}
600,709,0.0,44.10215414239989,6.082762530298219,10.0,10.0,12.041594578792296,11.0,27.018512172212592,17.029386365926403,17.0,22.0,19.0,9.5,6.5,3.5,3.5,6.0,7.071067811865476,7.0,13.0,19.0,21.095023109728988,{}
601,710,0.0,45.09988913511872,6.0,10.0,11.0,11.04536101718726,10.04987562112089,26.019223662515376,16.0312195418814,16.0,21.0,18.0,9.5,6.5,3.5,3.5,6.082762530298219,7.071067811865476,7.0,12.0,19.0,18.110770276274835,{}
