,video_id,frame_seq,gap,time_seconds,m1,m3,m4,m5,m6,m7,m8,m9,m10,m11,m12,m13,m14,m15,m16,m17,e1,e2,e3,b1,b2,b3
0,65,97,1,3.8800000000000026,3.0,44.04543109109048,5.0,8.0,11.0,12.0,12.0,28.0,20.0,18.5,16.0,18.0,5.0,11.0,2.0,1.0,5.0990195135927845,5.0990195135927845,5.5,17.0,15.0,15.0
1,65,98,0,3.9200000000000026,4.0,44.04543109109048,5.0,7.0,10.04987562112089,11.045361017187261,12.0,28.0,21.0,19.0,17.0,19.0,6.0,10.0,2.0,1.0,5.0,6.0,5.5,16.0,14.0,16.0
2,65,99,0,3.960000000000002,3.0,42.04759208325728,5.0,8.0,11.045361017187261,12.041594578792296,12.041594578792296,28.0178514522438,20.024984394500787,18.5,19.0,21.0,8.0,8.0,1.0,3.0,5.0990195135927845,5.0990195135927845,5.5,16.0,13.0,16.0
3,65,100,0,4.000000000000003,1.0,40.01249804748511,6.0,9.0,10.0,12.041594578792296,12.041594578792296,28.0178514522438,19.026297590440446,18.5,20.0,21.0,8.5,7.5,2.5,3.5,6.082762530298219,6.0,5.5,16.0,13.0,15.0
4,65,101,0,4.040000000000003,5.0,40.049968789001575,5.0,9.0,11.0,12.0,11.045361017187261,30.01666203960727,21.02379604162864,18.5,21.0,19.0,9.0,10.0,0.0,4.0,5.0,5.0990195135927845,5.0,12.0,13.0,15.132745950421556
5,65,102,0,4.080000000000003,5.0990195135927845,39.05124837953327,5.0,10.04987562112089,12.0,13.038404810405298,12.0,32.0,22.02271554554524,19.5,22.0,20.0,9.0,11.0,1.0,4.0,3.0,3.0,3.0,12.0,15.0,15.132745950421556
6,65,103,0,4.120000000000003,5.0,41.048751503547585,5.0,9.0,13.0,13.038404810405298,11.0,30.0,21.0,18.5,21.0,19.0,9.0,10.0,1.0,4.0,5.0,5.0990195135927845,4.5,13.0,15.0,14.035668847618199
7,65,104,0,4.160000000000003,3.0,41.012193308819754,6.0,9.0,12.0,13.0,11.0,29.0,20.0,18.5,21.0,20.0,9.5,8.5,0.5,3.5,5.0,4.0,4.0,12.0,14.0,14.035668847618199
8,65,105,0,4.200000000000003,4.123105625617661,41.012193308819754,5.0,9.055385138137417,12.0,13.0,11.0,29.0,20.024984394500787,18.0,20.0,19.0,8.5,9.5,0.5,3.5,5.0,5.0,5.0,13.0,15.0,14.035668847618199
9,65,106,0,4.240000000000003,4.0,40.0,6.0,10.0,12.041594578792296,13.0,11.0,31.0,21.0,19.0,21.0,21.0,10.0,10.0,1.0,4.0,6.0,6.0,6.0,13.0,14.0,14.035668847618199
10,65,107,0,4.280000000000003,2.0,41.012193308819754,6.0,10.04987562112089,12.041594578792296,13.0,10.04987562112089,28.071337695236398,18.027756377319946,17.0,19.0,20.0,9.5,8.5,2.5,3.5,6.0,6.0,5.5,13.0,14.0,15.033296378372908
11,65,108,0,4.320000000000003,5.0990195135927845,41.012193308819754,5.0,9.055385138137417,12.0,14.035668847618199,10.0,29.0,20.024984394500787,17.5,19.0,20.0,9.5,9.5,0.5,4.5,4.0,4.0,4.5,12.0,13.0,15.033296378372908
12,65,109,0,4.360000000000003,5.0,38.01315561749642,5.0,9.0,12.0,13.038404810405298,10.0,29.0,20.0,17.5,19.0,20.0,9.5,9.5,0.5,4.5,5.0990195135927845,5.0990195135927845,4.5,14.0,14.0,15.033296378372908
13,65,110,0,4.400000000000003,5.0,39.01281840626232,6.0,8.06225774829855,12.0,13.0,10.0,29.017236257093817,21.0,18.5,20.0,19.0,9.5,9.5,0.5,4.5,3.0,4.0,3.5,14.0,14.0,14.0
14,65,111,0,4.440000000000003,3.0,42.0,5.0,9.0,13.038404810405298,14.0,11.0,28.0,19.0,17.5,19.0,19.0,8.0,9.0,1.0,3.0,4.0,5.0990195135927845,4.5,12.0,14.0,13.038404810405298
15,65,112,0,4.480000000000003,4.0,42.01190307520001,5.0,9.0,12.041594578792296,13.038404810405298,11.045361017187261,29.017236257093817,20.024984394500787,18.0,19.0,18.0,7.5,10.5,0.5,3.5,5.0990195135927845,5.0990195135927845,4.5,12.0,14.0,14.142135623730951
16,65,113,0,4.520000000000003,4.0,43.01162633521314,6.0,9.0,12.0,14.035668847618199,10.0,29.0,20.0,18.0,19.0,18.0,8.5,10.5,0.5,3.5,5.0,6.0,5.5,12.0,14.0,14.035668847618199
17,65,114,0,4.560000000000003,5.0,43.01162633521314,5.0,8.06225774829855,12.0,13.0,11.0,29.017236257093817,21.0,18.5,19.0,18.0,7.5,10.5,1.5,2.5,5.0,5.0,5.0,13.0,14.0,14.035668847618199
18,65,115,0,4.600000000000003,5.0,44.0,5.0,9.0,12.0,12.0,12.041594578792296,31.016124838541646,22.02271554554524,19.5,19.0,19.0,7.0,12.0,2.0,3.0,6.0,7.0710678118654755,6.5,12.0,14.0,16.0312195418814
19,65,116,0,4.640000000000003,6.0,44.0,4.0,7.0710678118654755,12.0,13.0,12.041594578792296,29.0,22.02271554554524,19.0,18.0,18.0,6.0,11.0,3.0,2.0,4.0,5.0,4.5,14.0,15.0,13.038404810405298
20,65,117,0,4.680000000000003,1.0,44.0,5.0,8.0,12.0,12.0,11.0,25.0,17.0,16.5,17.0,17.0,6.0,8.0,1.0,1.0,5.0,5.0,5.0,14.0,15.0,14.035668847618199
21,65,118,0,4.720000000000003,1.0,44.0,5.0,8.0,11.0,12.0,11.0,25.0,17.0,16.5,17.0,17.0,6.0,8.0,1.0,1.0,3.1622776601683795,4.0,3.5,13.0,14.0,13.152946437965905
22,65,119,0,4.760000000000003,1.0,43.0,5.0,9.0,12.0,13.0,11.0,26.0,17.0,16.5,17.0,17.0,6.0,9.0,0.0,1.0,3.0,3.1622776601683795,3.0,14.0,14.0,15.033296378372908
23,65,120,0,4.800000000000003,3.0,42.01190307520001,5.0,8.0,11.045361017187261,12.0,11.0,27.0,19.0,17.5,18.0,17.0,6.5,9.5,0.5,2.5,4.0,5.0,4.5,13.0,15.0,15.0
24,65,121,0,4.840000000000003,4.0,43.01162633521314,5.0,9.0,13.0,13.0,11.0,29.0,20.0,18.0,18.0,17.0,6.5,11.5,2.5,1.5,5.0,6.0,5.0,12.0,15.0,14.142135623730951
25,65,122,0,4.8800000000000034,4.0,43.0,5.0,10.04987562112089,12.0,13.038404810405298,11.045361017187261,30.0,20.024984394500787,18.0,18.0,18.0,7.0,12.0,2.0,2.0,4.0,5.0990195135927845,4.5,13.0,15.0,15.033296378372908
26,65,123,0,4.920000000000004,2.0,43.0,6.0,11.0,11.0,13.0,11.045361017187261,30.01666203960727,19.026297590440446,18.0,18.0,18.0,7.0,12.0,1.0,2.0,5.0,6.0,5.5,13.0,15.0,15.033296378372908
27,65,124,0,4.960000000000004,1.0,42.0,6.0,10.0,13.0,13.038404810405298,11.0,28.0,18.0,17.5,18.0,18.0,7.0,10.0,0.0,1.0,5.0,5.0990195135927845,4.5,13.0,15.0,14.035668847618199
28,65,125,0,5.000000000000004,2.0,42.0,6.0,10.0,12.0,13.038404810405298,11.0,29.0,19.0,18.0,18.0,18.0,7.0,11.0,0.0,1.0,4.0,5.0990195135927845,5.0,12.0,14.0,14.035668847618199
29,65,126,0,5.040000000000004,2.0,40.01249804748511,6.082762530298219,10.0,12.0,13.038404810405298,10.04987562112089,28.0,18.0,17.0,17.0,18.0,7.5,10.5,0.5,1.5,4.123105625617661,4.0,3.5,13.0,13.0,15.0
30,65,127,0,5.080000000000004,2.0,42.0,6.0,11.0,13.0,13.0,10.0,29.0,18.0,17.0,18.0,18.0,8.0,11.0,1.0,2.0,4.0,5.0,5.0,13.0,13.0,14.035668847618199
31,65,128,0,5.120000000000004,3.0,43.0,6.082762530298219,10.0,12.0,14.035668847618199,11.045361017187261,30.0,20.0,18.5,19.0,19.0,8.0,11.0,0.0,2.0,4.123105625617661,4.0,3.5,13.0,13.0,15.033296378372908
32,65,129,0,5.160000000000004,3.0,42.01190307520001,6.082762530298219,10.0,13.0,14.035668847618199,10.04987562112089,29.0,19.0,17.5,17.0,18.0,7.5,11.5,0.5,1.5,4.0,5.0,4.5,12.0,13.0,14.035668847618199
33,65,130,0,5.200000000000004,1.4142135623730951,40.0,6.0,8.0,11.0,12.0,10.0,25.019992006393608,17.029386365926403,16.5,17.0,17.0,7.0,8.0,1.0,2.0,5.0,5.0,5.0,13.0,13.0,15.033296378372908
34,65,131,0,5.240000000000004,2.0,41.0,5.0,8.06225774829855,11.0,12.0,10.0,25.019992006393608,17.0,16.0,17.0,17.0,7.0,8.0,1.0,2.0,4.0,5.0,5.0,12.0,13.0,15.0
35,65,132,0,5.280000000000004,3.0,42.0,6.082762530298219,9.0,12.0,13.0,10.04987562112089,28.0,19.0,17.5,17.0,17.0,7.0,11.0,1.0,2.0,5.0,5.0990195135927845,4.5,13.0,14.0,15.033296378372908
36,65,133,0,5.320000000000004,4.0,42.0,5.0,9.0,13.0,14.035668847618199,11.045361017187261,29.017236257093817,20.024984394500787,18.0,18.0,18.0,7.0,11.0,1.0,2.0,4.0,5.0990195135927845,5.0,13.0,13.0,16.0312195418814
37,65,134,0,5.360000000000004,5.0,42.0,5.0,10.04987562112089,12.0,13.0,11.045361017187261,31.0,21.02379604162864,18.5,18.0,18.0,7.0,13.0,2.0,2.0,5.0,5.0990195135927845,5.0,13.0,13.0,15.0
38,65,135,0,5.400000000000004,6.0,43.0,5.0,10.04987562112089,12.0,13.0,11.180339887498949,32.01562118716424,22.090722034374522,19.0,19.0,19.0,8.0,13.0,2.0,3.0,5.0,5.0990195135927845,5.0,13.0,14.0,14.035668847618199
39,65,136,0,5.440000000000004,8.0,44.0,5.0,11.045361017187261,13.0,14.035668847618199,10.198039027185569,34.0147027033899,23.08679276123039,19.0,18.0,18.0,8.0,16.0,4.0,3.0,5.0990195135927845,5.0,4.5,14.0,14.0,15.033296378372908
40,65,137,0,5.480000000000004,7.0,42.01190307520001,5.0,9.055385138137417,12.0,13.038404810405298,10.198039027185569,31.016124838541646,22.090722034374522,18.5,18.0,19.0,8.5,12.5,2.5,3.5,5.0990195135927845,4.0,4.0,13.0,14.0,15.033296378372908
41,65,138,0,5.520000000000004,4.123105625617661,43.01162633521314,6.0,9.0,12.041594578792296,13.038404810405298,10.198039027185569,29.017236257093817,20.024984394500787,18.0,17.0,18.0,7.5,11.5,1.5,1.5,4.0,4.123105625617661,4.0,12.0,12.0,16.0312195418814
42,65,139,0,5.560000000000004,2.0,42.0,6.0,8.0,12.0,12.041594578792296,10.04987562112089,26.019223662515376,18.027756377319946,17.0,17.0,17.0,7.0,9.0,0.0,2.0,4.0,4.0,4.0,13.0,13.0,14.035668847618199
43,65,140,0,5.600000000000004,2.0,43.01162633521314,5.0,9.0,13.0,13.038404810405298,10.04987562112089,26.019223662515376,17.029386365926403,16.0,16.0,17.0,6.5,9.5,0.5,1.5,4.123105625617661,4.0,4.0,13.0,13.0,15.033296378372908
44,65,141,0,5.640000000000004,2.23606797749979,43.01162633521314,5.0,9.0,12.0,13.038404810405298,11.045361017187261,27.0,18.0,17.0,17.0,18.0,6.5,9.5,0.5,1.5,5.0,5.0990195135927845,5.0,13.0,13.0,15.0
45,65,142,0,5.680000000000004,3.0,42.01190307520001,5.0,9.055385138137417,12.0,12.041594578792296,11.045361017187261,28.0,19.026297590440446,17.5,17.0,18.0,6.5,10.5,0.5,1.5,5.0,6.082762530298219,5.0,13.0,13.0,16.0312195418814
46,65,143,0,5.720000000000004,3.0,42.0,5.0,8.0,11.0,12.0,11.045361017187261,27.018512172212592,19.026297590440446,17.5,18.0,18.0,7.0,9.0,0.0,2.0,5.0,5.0990195135927845,5.0,12.0,12.0,16.0
47,65,144,0,5.760000000000004,3.0,43.0,6.0,9.055385138137417,12.0,13.0,10.04987562112089,28.0,19.026297590440446,17.5,17.0,17.0,7.0,11.0,1.0,2.0,4.0,5.0990195135927845,5.0,12.0,12.0,15.033296378372908
48,65,145,0,5.800000000000004,2.0,42.04759208325728,6.0,10.04987562112089,12.0,13.038404810405298,10.04987562112089,28.0,18.027756377319946,17.0,16.0,18.0,7.0,11.0,0.0,2.0,4.0,4.0,4.0,12.0,12.0,14.035668847618199
49,65,146,0,5.840000000000004,4.123105625617661,39.01281840626232,5.0,9.0,11.0,12.041594578792296,12.041594578792296,30.0,21.0,19.0,18.0,19.0,6.5,11.5,1.5,1.5,4.123105625617661,4.123105625617661,4.0,12.0,13.0,13.0
50,65,147,0,5.880000000000004,1.0,37.013511046643494,6.0,11.045361017187261,11.045361017187261,12.165525060596439,11.045361017187261,29.0,18.027756377319946,17.5,18.0,19.0,7.5,10.5,1.5,1.5,5.0,5.0990195135927845,4.5,13.0,14.0,15.0
51,65,148,0,5.920000000000004,1.0,38.05259518088089,7.0,10.04987562112089,10.04987562112089,11.045361017187261,11.045361017187261,29.0,19.026297590440446,18.5,18.0,20.0,8.0,10.0,1.0,1.0,5.0,6.082762530298219,5.5,12.0,14.0,15.0
52,65,149,0,5.960000000000004,2.0,36.05551275463989,6.0,10.04987562112089,11.0,12.041594578792296,11.0,29.017236257093817,19.0,18.0,18.0,20.0,8.0,10.0,1.0,2.0,4.0,5.0,4.5,13.0,13.0,14.035668847618199
53,65,150,0,6.000000000000004,4.0,39.01281840626232,6.0,10.04987562112089,12.0,13.038404810405298,11.045361017187261,31.0,21.02379604162864,19.0,19.0,20.0,8.5,11.5,0.5,3.5,4.123105625617661,4.123105625617661,4.0,13.0,13.0,15.0
54,65,151,0,6.0400000000000045,6.082762530298219,39.05124837953327,6.0,11.0,11.045361017187261,12.0,10.04987562112089,33.0,22.0,19.0,18.0,20.0,9.0,14.0,2.0,3.0,5.0,5.0,4.5,14.0,13.0,14.0
55,65,152,0,6.0800000000000045,5.0,40.049968789001575,4.0,8.06225774829855,11.0,13.038404810405298,11.045361017187261,28.0,20.024984394500787,17.5,17.0,19.0,7.0,10.0,1.0,3.0,5.0990195135927845,5.0990195135927845,5.0,13.0,12.0,14.0
56,65,153,0,6.1200000000000045,2.0,39.05124837953327,5.0,9.055385138137417,10.0,11.0,10.04987562112089,26.0,17.029386365926403,16.0,16.0,18.0,7.0,9.0,1.0,2.0,3.0,4.0,3.5,12.0,12.0,14.0
57,65,154,0,6.160000000000005,2.0,42.01190307520001,5.0990195135927845,8.0,12.0,12.041594578792296,10.04987562112089,25.0,17.0,16.0,16.0,17.0,6.5,8.5,0.5,1.5,3.0,4.123105625617661,4.0,12.0,13.0,15.0
58,65,155,0,6.200000000000005,1.0,42.01190307520001,6.0,8.0,12.0,12.0,10.04987562112089,25.019992006393608,17.029386365926403,16.5,16.0,17.0,6.5,8.5,0.5,1.5,4.123105625617661,4.0,4.0,13.0,13.0,15.0
59,65,156,0,6.240000000000005,5.0,43.01162633521314,5.0,9.0,12.0,13.038404810405298,11.045361017187261,30.01666203960727,21.02379604162864,18.5,17.0,18.0,6.5,12.5,2.5,2.5,4.0,4.0,4.0,13.0,12.0,13.038404810405298
60,65,157,0,6.280000000000005,6.0,44.0,5.0,9.055385138137417,13.038404810405298,14.035668847618199,11.180339887498949,31.016124838541646,22.090722034374522,19.0,18.0,18.0,7.0,13.0,3.0,2.0,4.123105625617661,4.123105625617661,4.0,13.0,13.0,12.041594578792296
61,65,158,0,6.320000000000005,6.0,43.0,6.0,10.0,12.0,14.035668847618199,10.04987562112089,32.01562118716424,22.02271554554524,19.0,18.0,18.0,8.0,14.0,3.0,3.0,4.0,5.0,4.5,13.0,13.0,14.035668847618199
62,65,159,0,6.360000000000005,5.0,42.01190307520001,5.0,8.06225774829855,12.041594578792296,12.041594578792296,11.180339887498949,29.017236257093817,21.095023109728988,18.5,18.0,19.0,7.5,10.5,1.5,2.5,4.123105625617661,5.0990195135927845,5.0,12.0,12.0,14.035668847618199
63,65,160,0,6.400000000000005,1.0,43.0,6.0,7.0,11.0,12.0,11.045361017187261,25.019992006393608,18.027756377319946,17.5,17.0,17.0,6.0,8.0,0.0,1.0,4.0,5.0990195135927845,5.0,12.0,14.0,14.035668847618199
64,65,161,0,6.440000000000005,1.0,41.012193308819754,6.0,9.0,11.0,11.0,11.0,27.0,18.0,17.5,17.0,16.0,5.5,10.5,0.5,0.5,4.0,5.0,5.0,13.0,13.0,14.035668847618199
65,65,162,0,6.480000000000005,3.0,44.01136216933077,5.0,8.0,12.041594578792296,12.041594578792296,13.152946437965905,29.068883707497267,21.095023109728988,19.5,17.0,18.0,4.5,11.5,2.5,0.5,4.0,4.0,4.0,12.0,12.0,15.033296378372908
66,65,163,0,6.520000000000005,1.0,43.01162633521314,5.0,7.0,11.045361017187261,12.0,13.038404810405298,26.019223662515376,19.026297590440446,18.5,17.0,18.0,4.5,8.5,0.5,0.5,5.0990195135927845,5.0,4.5,13.0,14.0,15.033296378372908
67,65,164,0,6.560000000000005,1.0,42.01190307520001,5.0,9.0,10.0,11.045361017187261,13.038404810405298,28.0178514522438,19.026297590440446,18.5,17.0,18.0,4.5,10.5,0.5,0.5,4.0,5.0,4.5,13.0,12.0,14.035668847618199
68,65,165,0,6.600000000000005,4.123105625617661,44.01136216933077,5.0,7.0710678118654755,10.0,12.041594578792296,12.041594578792296,28.0178514522438,21.095023109728988,19.0,17.0,18.0,5.5,10.5,2.5,0.5,4.0,5.0990195135927845,4.5,14.0,13.0,14.035668847618199
69,65,166,0,6.640000000000005,3.0,44.01136216933077,6.0,9.0,11.0,11.045361017187261,12.041594578792296,30.01666203960727,21.02379604162864,19.5,17.0,18.0,5.5,12.5,2.5,0.5,3.0,3.0,3.0,14.0,14.0,15.033296378372908
70,65,167,0,6.680000000000005,2.0,44.04543109109048,6.082762530298219,9.0,10.0,11.045361017187261,11.180339887498949,28.0178514522438,19.026297590440446,18.0,16.0,18.0,6.0,11.0,1.0,0.0,4.0,4.0,4.0,14.0,13.0,14.035668847618199
71,65,168,0,6.720000000000005,4.123105625617661,45.044422518220834,6.082762530298219,9.055385138137417,12.0,12.0,11.180339887498949,30.01666203960727,21.095023109728988,19.0,17.0,19.0,7.0,12.0,2.0,1.0,4.123105625617661,5.0,4.5,15.0,14.0,13.038404810405298
72,65,169,0,6.760000000000005,5.0,44.04543109109048,5.0,8.06225774829855,11.045361017187261,13.038404810405298,12.165525060596439,30.01666203960727,22.090722034374522,19.5,17.0,19.0,6.0,12.0,3.0,1.0,3.0,4.123105625617661,3.5,14.0,12.0,14.0
73,65,170,0,6.800000000000005,6.0,45.09988913511872,5.0,8.0,11.045361017187261,12.041594578792296,12.041594578792296,31.016124838541646,23.021728866442675,20.0,17.0,20.0,6.5,12.5,2.5,0.5,3.0,4.0,4.0,14.0,12.0,14.035668847618199
74,65,171,0,6.840000000000005,5.0990195135927845,46.04345773288535,5.0,9.055385138137417,12.041594578792296,12.041594578792296,12.041594578792296,31.016124838541646,22.090722034374522,19.5,17.0,19.0,6.0,13.0,3.0,1.0,4.123105625617661,4.0,3.5,14.0,12.0,13.038404810405298
75,65,172,0,6.880000000000005,6.082762530298219,47.042533945356304,5.0,9.055385138137417,12.041594578792296,13.038404810405298,11.180339887498949,31.064449134018133,22.20360331117452,19.0,17.0,19.0,7.0,13.0,3.0,2.0,3.1622776601683795,3.1622776601683795,3.0,14.0,12.0,12.0
76,65,173,0,6.920000000000005,6.082762530298219,45.09988913511872,5.0990195135927845,9.055385138137417,11.045361017187261,12.165525060596439,11.40175425099138,31.064449134018133,22.20360331117452,19.0,16.0,19.0,6.5,13.5,3.5,0.5,4.123105625617661,4.0,4.0,13.0,11.0,12.0
77,65,174,0,6.960000000000005,6.0,45.09988913511872,5.0,8.0,12.0,13.038404810405298,11.180339887498949,30.066592756745816,22.090722034374522,19.0,16.0,19.0,6.5,12.5,2.5,1.5,3.0,3.0,3.0,15.0,13.0,13.038404810405298
78,65,175,0,7.000000000000005,7.0710678118654755,44.10215414239989,5.0990195135927845,8.0,12.041594578792296,13.038404810405298,11.180339887498949,31.064449134018133,23.08679276123039,19.5,16.0,19.0,6.5,13.5,4.5,1.5,3.0,4.0,3.5,14.0,12.0,13.0
79,65,176,0,7.040000000000005,7.0,45.09988913511872,4.0,7.0,11.045361017187261,13.152946437965905,12.165525060596439,30.066592756745816,23.08679276123039,19.5,16.0,19.0,5.5,12.5,3.5,0.5,3.1622776601683795,3.0,3.0,14.0,11.0,12.0
80,65,177,0,7.080000000000005,6.082762530298219,44.04543109109048,5.0,7.0710678118654755,11.045361017187261,12.041594578792296,12.165525060596439,30.066592756745816,23.194827009486403,20.0,17.0,19.0,6.0,12.0,3.0,1.0,3.1622776601683795,3.0,2.5,14.0,12.0,13.038404810405298
81,65,178,0,7.120000000000005,6.082762530298219,45.044422518220834,5.0,8.06225774829855,11.0,12.041594578792296,11.180339887498949,30.066592756745816,22.20360331117452,19.0,17.0,19.0,7.0,12.0,2.0,2.0,4.0,4.0,4.0,14.0,12.0,12.0
82,65,179,0,7.1600000000000055,6.082762530298219,46.17358552246078,5.0990195135927845,8.0,12.041594578792296,13.038404810405298,12.165525060596439,31.064449134018133,23.08679276123039,20.0,17.0,21.0,7.0,12.0,2.0,2.0,3.1622776601683795,4.123105625617661,3.5,14.0,12.0,12.0
83,65,180,0,7.2000000000000055,5.0990195135927845,45.09988913511872,5.0,9.055385138137417,12.041594578792296,13.152946437965905,12.165525060596439,31.064449134018133,22.20360331117452,19.5,17.0,20.0,6.5,12.5,2.5,1.5,4.123105625617661,5.0,4.5,14.0,12.0,13.0
84,65,181,0,7.240000000000005,6.082762530298219,44.10215414239989,5.0,8.0,12.041594578792296,13.038404810405298,12.165525060596439,31.144823004794873,23.194827009486403,20.0,17.0,20.0,6.5,12.5,2.5,1.5,3.1622776601683795,4.0,3.5,14.0,12.0,13.0
85,65,182,0,7.280000000000006,8.0,45.044422518220834,5.0,9.0,12.041594578792296,13.038404810405298,12.165525060596439,34.058772731852805,25.079872407968907,21.0,18.0,20.0,7.0,15.0,5.0,2.0,3.0,3.0,3.0,14.0,13.0,13.038404810405298
86,65,183,0,7.320000000000006,9.055385138137417,45.044422518220834,6.0,9.0,12.041594578792296,13.038404810405298,11.180339887498949,35.12833614050059,26.1725046566048,21.5,19.0,21.0,9.0,15.0,5.0,3.0,4.0,5.0990195135927845,4.5,14.0,13.0,12.041594578792296
87,65,184,0,7.360000000000006,10.04987562112089,45.09988913511872,6.082762530298219,9.055385138137417,12.041594578792296,14.035668847618199,11.40175425099138,36.05551275463989,27.16615541441225,22.0,18.0,21.0,8.5,16.5,6.5,2.5,4.0,4.0,3.5,13.0,12.0,13.038404810405298
88,65,185,0,7.400000000000006,10.0,45.044422518220834,6.0,9.0,11.045361017187261,13.152946437965905,11.40175425099138,36.124783736376884,27.16615541441225,22.0,19.0,21.0,9.0,16.0,5.0,3.0,4.0,4.0,4.0,14.0,12.0,13.038404810405298
89,65,186,0,7.440000000000006,10.0,45.044422518220834,5.0,10.0,11.0,13.152946437965905,11.180339887498949,36.05551275463989,26.076809620810597,21.0,18.0,20.0,8.0,17.0,5.0,3.0,4.0,4.0,3.5,13.0,12.0,14.0
90,65,187,0,7.480000000000006,10.0,44.04543109109048,5.0,10.0,12.0,13.152946437965905,11.180339887498949,36.05551275463989,26.076809620810597,21.0,18.0,20.0,8.0,17.0,6.0,3.0,4.0,4.0,3.5,13.0,12.0,14.035668847618199
91,65,188,0,7.520000000000006,9.0,45.044422518220834,5.0,8.0,12.041594578792296,13.038404810405298,12.165525060596439,34.058772731852805,26.076809620810597,21.5,18.0,20.0,7.0,15.0,5.0,2.0,4.0,4.123105625617661,3.5,14.0,12.0,14.035668847618199
92,65,189,0,7.560000000000006,8.06225774829855,45.09988913511872,6.082762530298219,9.0,12.041594578792296,13.038404810405298,11.180339887498949,34.058772731852805,25.079872407968907,21.0,17.0,20.0,7.5,15.5,4.5,1.5,4.0,4.123105625617661,3.5,14.0,13.0,15.0
93,65,190,0,7.600000000000006,8.0,45.09988913511872,5.0,9.0,11.045361017187261,13.152946437965905,12.165525060596439,34.058772731852805,25.079872407968907,21.0,17.0,20.0,6.5,15.5,5.5,1.5,4.0,4.0,3.5,13.0,12.0,14.035668847618199
94,65,191,0,7.640000000000006,7.0,44.10215414239989,5.0,9.055385138137417,11.045361017187261,12.041594578792296,12.165525060596439,33.015148038438355,24.08318915758459,20.5,18.0,21.0,7.5,13.5,3.5,2.5,3.0,4.0,3.5,14.0,12.0,13.038404810405298
95,65,192,0,7.680000000000006,8.0,44.10215414239989,5.0,9.055385138137417,11.0,12.041594578792296,11.180339887498949,33.015148038438355,24.08318915758459,20.0,17.0,20.0,7.5,14.5,4.5,2.5,4.0,3.0,3.5,14.0,12.0,14.0
96,65,193,0,7.720000000000006,7.0,45.09988913511872,5.0,9.0,12.041594578792296,13.152946437965905,12.165525060596439,33.06055050963308,24.08318915758459,20.5,17.0,20.0,6.5,14.5,3.5,1.5,4.0,4.0,3.5,14.0,11.0,12.0
97,65,194,0,7.760000000000006,6.082762530298219,46.09772228646444,6.0,10.04987562112089,12.041594578792296,13.152946437965905,11.180339887498949,33.06055050963308,23.194827009486403,20.0,17.0,20.0,7.5,14.5,3.5,1.5,4.123105625617661,4.123105625617661,3.5,14.0,12.0,12.041594578792296
98,65,195,0,7.800000000000006,8.0,44.10215414239989,5.0,8.06225774829855,11.045361017187261,12.041594578792296,12.165525060596439,33.015148038438355,25.079872407968907,21.0,17.0,20.0,6.5,14.5,4.5,1.5,4.0,4.0,3.5,14.0,11.0,13.038404810405298
99,65,196,0,7.840000000000006,8.0,45.09988913511872,6.0,8.0,11.045361017187261,13.038404810405298,11.40175425099138,33.13608305156178,25.179356624028344,21.0,17.0,20.0,7.5,14.5,4.5,1.5,4.123105625617661,4.0,3.5,14.0,12.0,14.0
100,65,197,0,7.880000000000006,8.0,44.10215414239989,6.0,9.055385138137417,11.045361017187261,13.152946437965905,11.180339887498949,34.0147027033899,25.079872407968907,21.0,17.0,20.0,7.5,15.5,4.5,1.5,3.0,4.0,3.5,14.0,12.0,13.0
101,65,198,0,7.920000000000006,8.0,45.09988913511872,5.0,8.0,12.0,13.152946437965905,12.165525060596439,33.06055050963308,25.079872407968907,21.0,17.0,20.0,6.5,14.5,4.5,1.5,4.123105625617661,4.0,4.0,14.0,12.0,14.0
102,65,199,0,7.960000000000006,8.0,44.10215414239989,5.0,9.0,12.0,13.038404810405298,11.180339887498949,33.06055050963308,24.08318915758459,20.0,16.0,19.0,6.5,15.5,5.5,1.5,3.0,4.0,4.0,14.0,12.0,14.0
103,65,200,0,8.000000000000005,7.0,44.04543109109048,5.0,10.0,11.180339887498949,13.038404810405298,12.165525060596439,34.058772731852805,24.08318915758459,20.5,17.0,19.0,6.0,16.0,5.0,0.0,5.0990195135927845,5.0,4.5,18.0,13.0,14.0
104,65,201,0,8.040000000000004,8.0,45.09988913511872,5.0,10.0,12.041594578792296,13.152946437965905,11.180339887498949,34.058772731852805,24.08318915758459,20.0,16.0,19.0,6.5,16.5,4.5,1.5,5.0,4.0,3.5,19.0,13.0,13.038404810405298
105,65,202,0,8.080000000000004,8.06225774829855,44.181444068749045,5.0,10.04987562112089,12.041594578792296,13.152946437965905,11.180339887498949,34.058772731852805,24.186773244895647,20.0,16.0,20.0,7.0,16.0,4.0,1.0,4.123105625617661,4.0,4.0,15.0,12.0,13.0
106,65,203,0,8.120000000000003,8.0,44.10215414239989,5.0,9.055385138137417,12.041594578792296,12.041594578792296,11.180339887498949,33.015148038438355,24.08318915758459,20.0,16.0,19.0,6.5,15.5,4.5,1.5,3.1622776601683795,4.123105625617661,3.5,14.0,11.0,12.041594578792296
107,65,204,0,8.160000000000002,8.0,44.10215414239989,5.0,10.0,11.180339887498949,13.152946437965905,11.180339887498949,34.058772731852805,24.08318915758459,20.0,16.0,19.0,6.5,16.5,4.5,0.5,5.0990195135927845,4.0,3.5,18.0,13.0,15.132745950421556
108,65,205,0,8.200000000000001,5.0,43.104524124504614,6.0,9.055385138137417,11.045361017187261,12.165525060596439,10.198039027185569,30.01666203960727,21.095023109728988,18.5,16.0,19.0,7.5,12.5,2.5,1.5,4.0,4.123105625617661,3.5,15.0,12.0,13.038404810405298
109,65,206,0,8.24,2.0,40.11234224026316,5.0,8.06225774829855,11.045361017187261,11.180339887498949,12.165525060596439,27.018512172212592,19.1049731745428,18.0,15.0,18.0,4.5,10.5,0.5,0.5,4.123105625617661,5.0,4.5,15.0,12.0,15.0
110,65,207,0,8.28,1.0,42.04759208325728,4.0,8.0,11.045361017187261,11.045361017187261,12.041594578792296,25.019992006393608,17.029386365926403,16.5,15.0,17.0,4.0,9.0,0.0,0.0,4.123105625617661,5.0990195135927845,4.5,13.0,11.0,12.0
111,65,208,0,8.319999999999999,2.0,42.01190307520001,4.0,8.06225774829855,11.0,12.041594578792296,11.045361017187261,25.0,17.029386365926403,16.0,14.0,15.0,3.5,10.5,1.5,0.5,4.0,5.0,4.5,15.0,13.0,14.0
112,65,209,0,8.359999999999998,5.0,43.01162633521314,4.123105625617661,8.06225774829855,11.0,12.0,12.165525060596439,29.068883707497267,21.213203435596427,18.5,16.0,17.0,4.5,12.5,3.5,0.5,4.123105625617661,5.0,4.5,14.0,13.0,13.038404810405298
113,65,210,0,8.399999999999997,5.0990195135927845,43.01162633521314,5.0,8.0,11.0,12.041594578792296,10.04987562112089,28.071337695236398,20.09975124224178,17.5,15.0,16.0,5.5,12.5,3.5,0.5,4.123105625617661,5.0,4.5,14.0,12.0,14.035668847618199
114,65,211,0,8.439999999999996,4.123105625617661,45.0,5.0,8.0,11.045361017187261,12.041594578792296,11.180339887498949,28.160255680657446,20.223748416156685,18.0,16.0,16.0,5.0,12.0,3.0,0.0,4.0,5.0990195135927845,4.0,14.0,13.0,14.035668847618199
115,65,212,0,8.479999999999995,4.123105625617661,44.01136216933077,5.0,8.0,11.0,12.041594578792296,11.180339887498949,28.160255680657446,20.223748416156685,18.0,16.0,17.0,5.5,11.5,2.5,0.5,4.123105625617661,5.0,4.0,14.0,12.0,13.0
116,65,213,0,8.519999999999994,5.0,44.01136216933077,5.0,7.0,11.045361017187261,11.045361017187261,10.198039027185569,27.073972741361768,20.09975124224178,17.5,15.0,16.0,5.5,11.5,2.5,0.5,4.123105625617661,4.0,3.5,14.0,13.0,13.0
117,65,214,0,8.559999999999993,3.1622776601683795,41.012193308819754,5.0,8.06225774829855,10.0,12.0,11.045361017187261,27.018512172212592,19.1049731745428,17.5,16.0,17.0,5.5,10.5,1.5,0.5,4.0,4.0,3.5,15.0,13.0,13.0
118,65,215,0,8.599999999999993,4.0,42.01190307520001,5.0,8.06225774829855,11.0,12.041594578792296,10.198039027185569,27.018512172212592,19.1049731745428,17.0,16.0,17.0,6.5,10.5,1.5,1.5,4.0,3.0,3.0,12.0,12.0,12.0
119,65,216,0,8.639999999999992,4.0,42.04759208325728,5.0,9.055385138137417,11.0,12.041594578792296,10.04987562112089,28.0,19.026297590440446,17.0,16.0,18.0,7.0,11.0,1.0,2.0,5.0,4.0,4.0,14.0,12.0,13.0
120,65,217,0,8.67999999999999,5.0,42.01190307520001,6.0,9.0,12.0,13.038404810405298,11.045361017187261,31.016124838541646,22.02271554554524,19.5,19.0,20.0,8.5,11.5,1.5,2.5,5.0990195135927845,4.0,4.0,13.0,14.0,14.0
121,65,218,0,8.71999999999999,7.0,41.0,5.0,10.0,11.0,12.0,11.045361017187261,33.015148038438355,23.021728866442675,19.5,20.0,20.0,9.0,13.0,2.0,4.0,6.0,5.0,5.0,13.0,13.0,15.033296378372908
122,65,219,0,8.75999999999999,9.0,41.012193308819754,6.0,9.0,12.041594578792296,13.038404810405298,11.045361017187261,35.014282800023196,26.019223662515376,21.5,21.0,22.0,10.5,13.5,3.5,4.5,5.0990195135927845,5.0,5.0,14.0,13.0,15.033296378372908
123,65,220,0,8.799999999999988,10.0,42.01190307520001,6.0,10.0,11.0,12.041594578792296,11.045361017187261,37.013511046643494,27.018512172212592,22.0,22.0,23.0,11.5,14.5,3.5,5.5,5.0,6.082762530298219,5.5,13.0,14.0,17.029386365926403
124,65,221,0,8.839999999999987,11.0,41.012193308819754,6.0,10.04987562112089,12.041594578792296,13.038404810405298,11.180339887498949,38.01315561749642,28.071337695236398,22.5,22.0,23.0,11.5,15.5,4.5,5.5,5.0,6.0,6.0,13.0,14.0,15.033296378372908
125,65,222,0,8.879999999999987,11.045361017187261,41.048751503547585,6.0,10.04987562112089,12.0,13.0,11.045361017187261,38.01315561749642,28.071337695236398,22.5,22.0,24.0,12.0,15.0,4.0,6.0,6.082762530298219,6.0,6.0,13.0,14.0,15.033296378372908
126,65,223,0,8.919999999999986,9.0,41.012193308819754,7.0,11.045361017187261,12.041594578792296,13.0,10.04987562112089,37.0,26.019223662515376,21.5,22.0,23.0,12.5,14.5,2.5,5.5,6.0,6.0,6.0,14.0,15.0,16.0312195418814
127,65,224,0,8.959999999999985,6.0,42.01190307520001,7.0,11.045361017187261,12.0,13.0,10.04987562112089,34.0,23.021728866442675,20.0,21.0,22.0,11.5,12.5,0.5,4.5,6.0,6.082762530298219,6.0,14.0,14.0,16.0312195418814
128,65,225,0,8.999999999999984,6.0,43.01162633521314,6.082762530298219,9.0,12.0,12.0,11.045361017187261,32.0,23.0,20.0,21.0,22.0,10.5,10.5,0.5,4.5,6.0,6.0,6.0,13.0,13.0,16.0312195418814
129,65,226,0,9.039999999999983,6.0,43.01162633521314,6.082762530298219,10.04987562112089,11.0,12.0,10.04987562112089,32.01562118716424,22.0,19.0,20.0,21.0,10.5,11.5,0.5,4.5,6.0,6.082762530298219,6.0,13.0,14.0,14.035668847618199
130,65,227,0,9.079999999999982,2.0,42.01190307520001,7.0,10.04987562112089,12.0,13.038404810405298,12.041594578792296,31.0,21.02379604162864,20.0,20.0,21.0,8.5,10.5,0.5,2.5,6.082762530298219,7.0,7.0,14.0,15.0,13.038404810405298
131,65,228,0,9.11999999999998,1.0,40.01249804748511,6.0,9.0,10.0,11.045361017187261,13.152946437965905,28.0178514522438,19.026297590440446,19.0,19.0,20.0,6.5,8.5,1.5,1.5,6.0,6.082762530298219,6.0,13.0,14.0,14.035668847618199
132,65,229,0,9.15999999999998,1.0,41.0,6.0,9.0,10.04987562112089,11.0,13.038404810405298,28.0,19.0,19.0,20.0,20.0,7.0,8.0,2.0,1.0,6.0,7.0710678118654755,7.0,12.0,13.0,14.035668847618199
133,65,230,0,9.19999999999998,0.0,41.012193308819754,6.0,9.055385138137417,10.0,11.0,13.038404810405298,28.0,19.026297590440446,19.0,19.0,20.0,6.5,8.5,1.5,1.5,5.0,6.0,6.0,12.0,14.0,13.038404810405298
134,65,231,0,9.23999999999998,1.0,43.01162633521314,6.0,9.055385138137417,11.045361017187261,12.041594578792296,13.038404810405298,29.0,20.024984394500787,19.5,19.0,20.0,6.5,9.5,0.5,0.5,6.0,7.0710678118654755,7.0,13.0,13.0,14.035668847618199
135,65,232,0,9.279999999999978,2.0,41.048751503547585,6.0,9.055385138137417,10.04987562112089,11.045361017187261,11.045361017187261,28.0,19.026297590440446,18.0,18.0,20.0,8.0,9.0,2.0,2.0,6.0,6.082762530298219,6.0,13.0,14.0,13.038404810405298
136,65,233,0,9.319999999999975,1.0,41.048751503547585,6.0,10.04987562112089,10.04987562112089,11.0,11.045361017187261,28.0,18.027756377319946,17.5,18.0,20.0,8.0,9.0,2.0,2.0,6.0,6.0,6.0,13.0,14.0,14.0
137,65,234,0,9.359999999999976,1.0,41.012193308819754,6.0,10.0,10.0,12.041594578792296,11.0,28.0,18.0,17.5,19.0,20.0,8.5,8.5,2.5,2.5,6.082762530298219,7.0,7.0,13.0,14.0,14.0
138,65,235,0,9.399999999999975,1.4142135623730951,40.049968789001575,6.0,9.0,10.04987562112089,11.045361017187261,11.045361017187261,27.0,18.0,17.5,18.0,20.0,8.0,8.0,3.0,2.0,6.082762530298219,7.0,6.5,13.0,14.0,14.0
139,65,236,0,9.439999999999976,0.0,41.0,5.0,9.0,10.0,11.045361017187261,12.0,26.0,17.0,17.0,19.0,19.0,7.0,7.0,2.0,2.0,6.082762530298219,7.0710678118654755,6.5,13.0,13.0,13.0
140,65,237,0,9.479999999999974,3.0,41.0,5.0,10.0,11.0,12.0,12.0,30.0,20.0,18.5,20.0,20.0,8.0,10.0,0.0,3.0,6.082762530298219,6.082762530298219,6.0,13.0,14.0,15.0
141,65,238,0,9.519999999999971,5.0,42.0,6.0,9.0,10.04987562112089,12.0,11.045361017187261,31.016124838541646,22.02271554554524,19.5,20.0,20.0,9.0,11.0,1.0,3.0,7.0,7.0710678118654755,7.0,12.0,13.0,13.038404810405298
142,65,239,0,9.559999999999972,4.0,42.01190307520001,5.0,7.0710678118654755,11.0,12.0,12.041594578792296,28.0,21.02379604162864,19.0,19.0,20.0,7.5,8.5,0.5,2.5,7.0,7.0710678118654755,7.0,14.0,14.0,14.035668847618199
143,65,240,0,9.599999999999971,1.0,45.0,5.0,8.06225774829855,11.045361017187261,12.041594578792296,12.041594578792296,26.0,18.027756377319946,17.5,18.0,18.0,6.0,8.0,1.0,1.0,7.0,6.082762530298219,6.0,13.0,14.0,15.033296378372908
144,65,241,0,9.63999999999997,3.0,44.0,6.0,8.06225774829855,11.0,12.0,11.045361017187261,28.0,20.024984394500787,18.5,18.0,18.0,7.0,10.0,1.0,2.0,6.082762530298219,6.082762530298219,6.0,13.0,13.0,14.035668847618199
145,65,242,0,9.67999999999997,4.123105625617661,48.0,5.0,8.06225774829855,12.041594578792296,13.038404810405298,13.152946437965905,30.066592756745816,22.20360331117452,20.0,17.0,17.0,4.0,13.0,4.0,1.0,6.0,6.082762530298219,5.5,13.0,13.0,13.038404810405298
146,65,243,0,9.719999999999969,1.0,48.010415536631214,5.0,7.0,11.0,11.045361017187261,12.165525060596439,25.079872407968907,18.110770276274835,17.5,15.0,16.0,3.5,9.5,1.5,1.5,5.0990195135927845,6.082762530298219,5.5,15.0,13.0,16.0312195418814
147,65,244,0,9.759999999999968,2.0,49.040799340956916,4.0,7.0,11.045361017187261,13.038404810405298,13.341664064126334,26.1725046566048,19.235384061671343,18.0,14.0,16.0,2.0,11.0,3.0,2.0,4.123105625617661,5.0990195135927845,5.0,15.0,12.0,14.0
148,65,245,0,9.799999999999969,5.0990195135927845,47.01063709417264,5.0,8.0,11.045361017187261,12.041594578792296,12.165525060596439,30.14962686336267,22.20360331117452,19.5,16.0,17.0,4.5,13.5,4.5,0.5,5.0990195135927845,6.082762530298219,5.5,14.0,12.0,16.0
149,65,246,0,9.839999999999966,7.0,44.10215414239989,6.0,10.0,11.045361017187261,12.165525060596439,12.36931687685298,35.12833614050059,25.179356624028344,21.5,17.0,20.0,6.5,16.5,4.5,0.5,5.0990195135927845,6.082762530298219,5.5,16.0,13.0,15.0
150,65,247,0,9.879999999999963,2.0,35.22782990761707,6.0,9.0,8.06225774829855,10.198039027185569,14.035668847618199,31.016124838541646,22.02271554554524,21.0,19.0,23.0,7.0,10.0,0.0,1.0,5.0990195135927845,5.0990195135927845,4.5,14.0,11.0,14.0
151,65,248,0,9.919999999999964,2.0,32.14031735997639,5.0,9.0,7.0710678118654755,9.055385138137417,13.038404810405298,29.017236257093817,20.024984394500787,19.0,19.0,22.0,7.5,8.5,1.5,1.5,4.0,5.0,5.0,15.0,12.0,13.0
152,65,249,0,9.959999999999964,2.0,32.55764119219941,5.0,8.0,7.280109889280518,8.246211251235321,14.142135623730951,29.068883707497267,21.095023109728988,20.0,18.0,24.0,7.0,8.0,1.0,1.0,4.0,6.0,5.5,15.0,12.0,14.035668847618199
153,65,250,0,9.999999999999964,2.0,31.400636936215164,5.0,8.0,6.082762530298219,7.280109889280518,14.035668847618199,29.017236257093817,21.02379604162864,20.0,20.0,25.0,8.5,6.5,2.5,2.5,5.0,6.0,5.5,16.0,13.0,14.035668847618199
154,65,251,0,10.039999999999962,1.0,32.2490309931942,4.0,7.0,6.082762530298219,7.0710678118654755,15.0,27.0,20.0,19.5,20.0,24.0,7.0,5.0,2.0,2.0,5.0990195135927845,5.0,4.5,16.0,12.0,14.0
155,65,252,0,10.07999999999996,1.0,33.06055050963308,4.0,5.0,7.0710678118654755,7.0710678118654755,14.0,22.0,17.0,17.5,18.0,20.0,5.0,3.0,3.0,1.0,4.0,5.0,4.5,16.0,12.0,12.041594578792296
156,65,253,0,10.11999999999996,4.0,36.05551275463989,4.0,6.0,8.0,9.055385138137417,13.038404810405298,27.018512172212592,21.02379604162864,19.0,18.0,20.0,6.0,8.0,1.0,2.0,4.123105625617661,4.123105625617661,4.0,15.0,12.0,13.038404810405298
157,65,254,0,10.15999999999996,5.0990195135927845,38.01315561749642,4.0,7.0710678118654755,9.0,10.04987562112089,13.038404810405298,29.017236257093817,22.090722034374522,19.5,18.0,19.0,5.5,10.5,2.5,1.5,4.123105625617661,4.0,4.0,14.0,12.0,13.0
158,65,255,0,10.199999999999958,5.0990195135927845,37.0,6.0,10.0,9.0,11.0,12.041594578792296,33.06055050963308,23.08679276123039,20.5,20.0,20.0,8.0,13.0,2.0,2.0,5.0,5.0,4.5,14.0,13.0,14.035668847618199
159,65,256,0,10.239999999999958,5.0,38.05259518088089,5.0,10.0,9.0,11.045361017187261,12.165525060596439,32.0624390837628,22.090722034374522,19.5,18.0,20.0,7.0,13.0,2.0,2.0,4.123105625617661,4.123105625617661,4.0,14.0,12.0,14.035668847618199
160,65,257,0,10.279999999999957,2.0,38.01315561749642,6.0,10.0,10.0,11.045361017187261,12.041594578792296,30.01666203960727,20.024984394500787,19.0,19.0,20.0,7.5,10.5,0.5,1.5,5.0,5.0990195135927845,5.0,14.0,14.0,15.033296378372908
161,65,258,0,10.319999999999956,1.0,39.05124837953327,6.0,9.0,10.04987562112089,11.045361017187261,13.0,29.0,20.0,19.5,19.0,21.0,7.0,9.0,1.0,1.0,5.0990195135927845,5.0990195135927845,4.5,13.0,13.0,13.038404810405298
162,65,259,0,10.359999999999957,1.0,38.01315561749642,6.0,9.055385138137417,9.055385138137417,10.0,12.0,28.0178514522438,19.0,18.5,19.0,20.0,7.5,8.5,1.5,1.5,6.0,5.0,5.0,13.0,14.0,15.033296378372908
163,65,260,0,10.399999999999954,0.0,38.05259518088089,7.0,9.0,9.055385138137417,10.0,12.0,28.0,19.0,19.0,19.0,21.0,8.0,8.0,2.0,1.0,6.082762530298219,6.0,5.5,13.0,13.0,13.038404810405298
164,65,261,0,10.439999999999952,1.4142135623730951,38.05259518088089,6.0,9.0,9.0,10.0,12.0,28.0178514522438,19.026297590440446,18.5,19.0,21.0,8.0,8.0,2.0,2.0,5.0,5.0,5.0,14.0,14.0,13.0
165,65,262,0,10.479999999999952,0.0,38.118237105091836,6.082762530298219,9.055385138137417,10.04987562112089,11.045361017187261,13.038404810405298,28.0178514522438,19.0,19.0,19.0,22.0,7.5,7.5,2.5,1.5,6.0,6.0,6.0,13.0,14.0,14.035668847618199
166,65,263,0,10.519999999999952,1.0,38.118237105091836,6.0,9.055385138137417,9.055385138137417,10.04987562112089,12.0,28.0178514522438,19.0,18.5,18.0,21.0,7.5,8.5,1.5,1.5,6.0,6.0,6.0,14.0,14.0,14.035668847618199
167,65,264,0,10.55999999999995,1.0,38.01315561749642,6.0,9.055385138137417,10.04987562112089,11.0,13.0,29.017236257093817,20.0,19.5,20.0,21.0,7.5,8.5,1.5,1.5,6.082762530298219,6.0,6.0,13.0,14.0,14.035668847618199
168,65,265,0,10.59999999999995,1.0,38.01315561749642,7.0,10.04987562112089,10.04987562112089,11.0,12.0,30.01666203960727,20.0,19.5,21.0,22.0,9.5,8.5,2.5,2.5,6.082762530298219,7.0,6.5,14.0,14.0,13.038404810405298
169,65,266,0,10.639999999999947,2.23606797749979,38.01315561749642,6.0,9.0,10.0,10.04987562112089,13.0,30.01666203960727,21.02379604162864,20.0,21.0,22.0,8.5,8.5,1.5,2.5,6.0,6.0,6.0,14.0,15.0,14.035668847618199
170,65,267,0,10.679999999999948,1.0,39.05124837953327,7.0,10.04987562112089,10.04987562112089,11.0,12.041594578792296,30.066592756745816,20.024984394500787,19.5,20.0,22.0,9.0,9.0,1.0,2.0,6.082762530298219,7.0,7.0,14.0,15.0,14.035668847618199
171,65,268,0,10.719999999999947,1.0,39.01281840626232,7.0,10.04987562112089,10.0,11.0,13.0,31.016124838541646,21.0,20.5,21.0,22.0,8.5,9.5,1.5,2.5,6.0,7.0,7.0,15.0,15.0,16.0312195418814
172,65,269,0,10.759999999999946,2.0,42.01190307520001,7.0,9.055385138137417,10.04987562112089,11.0,12.0,30.01666203960727,21.0,20.0,20.0,21.0,8.5,9.5,0.5,1.5,6.082762530298219,7.0,7.0,15.0,15.0,15.033296378372908
173,65,270,0,10.799999999999946,2.0,44.04543109109048,8.06225774829855,11.045361017187261,11.045361017187261,12.041594578792296,12.041594578792296,33.015148038438355,22.0,21.0,20.0,22.0,9.0,12.0,0.0,1.0,6.082762530298219,7.0,6.5,14.0,14.0,15.0
174,65,271,0,10.839999999999945,3.0,47.01063709417264,7.0,10.04987562112089,12.041594578792296,13.038404810405298,12.041594578792296,32.0,22.02271554554524,20.5,19.0,20.0,7.5,12.5,1.5,0.5,6.0,6.082762530298219,6.0,14.0,14.0,15.0
175,65,272,0,10.879999999999944,7.0,50.00999900019995,6.0,9.0,13.0,14.0,12.36931687685298,34.132096331752024,25.179356624028344,21.5,19.0,20.0,7.5,14.5,4.5,1.5,6.082762530298219,6.082762530298219,6.0,14.0,15.0,15.033296378372908
176,65,273,0,10.919999999999945,5.0990195135927845,50.00999900019995,6.0,9.055385138137417,13.0,13.0,13.152946437965905,33.06055050963308,24.186773244895647,21.5,19.0,18.0,5.5,14.5,4.5,0.5,5.0990195135927845,6.082762530298219,6.0,13.0,14.0,15.033296378372908
177,65,274,0,10.959999999999942,6.082762530298219,51.0,6.0,9.055385138137417,13.038404810405298,14.0,12.165525060596439,33.06055050963308,24.186773244895647,21.0,18.0,18.0,6.0,15.0,5.0,1.0,6.0,6.082762530298219,5.5,13.0,14.0,14.035668847618199
178,65,275,0,10.99999999999994,5.0,49.01020301937138,6.0,9.0,12.0,13.0,13.152946437965905,33.06055050963308,24.08318915758459,21.5,19.0,18.0,5.5,14.5,4.5,0.5,6.0,6.0,6.0,13.0,15.0,15.033296378372908
179,65,276,0,11.03999999999994,6.0,50.00999900019995,5.0,9.0,12.0,13.0,13.152946437965905,33.06055050963308,24.08318915758459,21.0,19.0,18.0,5.5,14.5,4.5,0.5,6.082762530298219,6.082762530298219,6.0,13.0,15.0,15.033296378372908
180,65,277,0,11.07999999999994,5.0,47.01063709417264,6.0,9.0,12.0,13.0,13.152946437965905,33.06055050963308,24.08318915758459,21.5,20.0,19.0,6.5,13.5,4.5,0.5,6.082762530298219,6.082762530298219,6.0,13.0,15.0,15.033296378372908
181,65,278,0,11.11999999999994,7.0,48.010415536631214,5.0,9.0,12.0,13.0,12.165525060596439,33.06055050963308,24.08318915758459,20.5,18.0,17.0,5.5,15.5,5.5,0.5,4.0,4.0,4.0,14.0,13.0,14.0
182,65,279,0,11.159999999999938,6.0,47.01063709417264,5.0,9.0,11.0,12.0,13.341664064126334,33.13608305156178,24.186773244895647,21.0,19.0,20.0,6.5,13.5,4.5,1.5,4.0,4.0,4.0,14.0,13.0,13.038404810405298
183,65,280,0,11.199999999999935,4.0,44.01136216933077,6.0,10.0,11.045361017187261,11.045361017187261,13.152946437965905,33.06055050963308,23.08679276123039,21.0,19.0,20.0,6.5,13.5,2.5,0.5,4.123105625617661,4.0,3.5,14.0,13.0,14.0
184,65,281,0,11.239999999999936,5.0990195135927845,42.04759208325728,6.0,9.0,10.0,11.045361017187261,14.035668847618199,34.058772731852805,25.079872407968907,22.5,21.0,23.0,8.0,12.0,1.0,2.0,3.0,4.0,3.0,16.0,14.0,14.0
185,65,282,0,11.279999999999935,4.0,39.11521443121589,6.082762530298219,10.04987562112089,8.06225774829855,9.219544457292887,14.035668847618199,34.132096331752024,24.08318915758459,22.0,20.0,23.0,7.5,12.5,1.5,1.5,4.0,4.123105625617661,3.5,15.0,13.0,12.041594578792296
186,65,283,0,11.319999999999936,3.1622776601683795,38.3275357934736,6.0,10.0,8.06225774829855,10.198039027185569,14.0,33.015148038438355,23.021728866442675,21.5,19.0,24.0,7.5,11.5,0.5,1.5,4.0,4.123105625617661,4.0,17.0,14.0,13.0
187,65,284,0,11.359999999999934,4.123105625617661,37.21558813185679,6.0,10.04987562112089,8.06225774829855,9.219544457292887,14.035668847618199,34.132096331752024,24.08318915758459,22.0,19.0,23.0,7.0,13.0,1.0,1.0,5.0,6.082762530298219,5.5,16.0,13.0,12.0
188,65,285,0,11.399999999999933,3.0,38.2099463490856,6.082762530298219,9.055385138137417,8.06225774829855,9.486832980505138,14.0,32.0624390837628,23.021728866442675,21.5,18.0,22.0,6.0,12.0,1.0,0.0,4.123105625617661,5.0990195135927845,4.5,16.0,13.0,12.0
189,65,286,0,11.439999999999932,3.1622776601683795,38.3275357934736,5.0,9.0,8.246211251235321,9.219544457292887,14.0,31.016124838541646,22.02271554554524,20.5,17.0,22.0,5.5,11.5,1.5,0.5,4.0,5.0,5.0,16.0,13.0,12.0
190,65,287,0,11.479999999999931,4.0,40.311288741492746,5.0990195135927845,7.0710678118654755,9.219544457292887,9.219544457292887,13.038404810405298,29.154759474226502,22.090722034374522,20.0,16.0,21.0,5.5,10.5,1.5,0.5,4.0,5.0,4.5,16.0,12.0,12.0
191,65,288,0,11.51999999999993,2.0,40.19950248448356,6.0,8.06225774829855,8.06225774829855,10.198039027185569,13.038404810405298,29.068883707497267,21.02379604162864,20.0,17.0,21.0,6.0,10.0,0.0,0.0,5.0,5.0,4.5,16.0,13.0,13.0
192,65,289,0,11.55999999999993,2.0,40.19950248448356,6.082762530298219,8.0,8.06225774829855,9.219544457292887,13.0,29.017236257093817,21.02379604162864,20.0,17.0,21.0,6.0,10.0,1.0,0.0,4.123105625617661,5.0990195135927845,4.0,15.0,12.0,12.0
193,65,290,0,11.599999999999929,2.0,40.19950248448356,5.0,7.0710678118654755,8.06225774829855,9.219544457292887,13.0,27.018512172212592,20.0,19.0,17.0,21.0,6.0,8.0,0.0,0.0,3.0,4.0,4.0,15.0,12.0,14.0
194,65,291,0,11.639999999999928,3.0,39.20459156782532,4.0,7.0,9.219544457292887,9.219544457292887,13.038404810405298,27.018512172212592,20.024984394500787,18.5,17.0,21.0,6.0,8.0,0.0,1.0,4.0,4.0,3.5,15.0,12.0,13.038404810405298
195,65,292,0,11.679999999999929,1.4142135623730951,38.0,5.0,9.0,10.0,10.04987562112089,13.0,28.0178514522438,19.026297590440446,18.5,19.0,19.0,6.0,9.0,0.0,1.0,3.1622776601683795,4.0,3.5,14.0,13.0,14.035668847618199
196,65,293,0,11.719999999999926,2.0,39.01281840626232,6.0,9.0,10.0,11.0,13.038404810405298,30.01666203960727,21.02379604162864,20.0,20.0,21.0,7.5,9.5,0.5,2.5,5.0,6.0,5.5,14.0,15.0,14.035668847618199
197,65,294,0,11.759999999999923,3.1622776601683795,39.0,7.0,8.06225774829855,9.055385138137417,11.0,13.038404810405298,31.016124838541646,23.0,21.5,22.0,22.0,9.0,9.0,0.0,3.0,5.0,6.082762530298219,5.5,13.0,14.0,16.0312195418814
198,65,295,0,11.799999999999924,3.0,40.01249804748511,6.0,9.0,9.0,11.0,12.041594578792296,30.01666203960727,21.02379604162864,19.5,20.0,21.0,8.5,9.5,0.5,2.5,5.0,6.0,5.5,13.0,14.0,15.033296378372908
199,65,296,0,11.839999999999923,2.0,40.01249804748511,6.0,8.0,9.055385138137417,10.0,13.0,29.0,21.0,20.0,20.0,21.0,7.5,8.5,0.5,1.5,5.0,6.0,5.5,13.0,14.0,15.033296378372908
200,65,297,0,11.879999999999924,1.0,43.01162633521314,5.0,7.0,10.0,10.0,13.038404810405298,25.0,18.0,18.0,20.0,21.0,7.5,4.5,3.5,2.5,5.0990195135927845,5.0,5.0,13.0,14.0,17.029386365926403
201,65,298,0,11.919999999999922,1.0,43.04648650006177,6.0,9.055385138137417,10.04987562112089,12.041594578792296,13.152946437965905,28.0,19.026297590440446,19.0,19.0,21.0,7.0,8.0,2.0,1.0,5.0,6.0,5.5,14.0,14.0,15.033296378372908
202,65,299,0,11.95999999999992,2.0,42.01190307520001,7.0,10.0,10.0,11.045361017187261,13.0,32.0,22.0,21.0,21.0,22.0,8.5,10.5,0.5,2.5,6.0,5.0,5.5,14.0,14.0,15.132745950421556
203,65,300,0,11.99999999999992,3.0,43.01162633521314,6.0,9.055385138137417,11.0,11.045361017187261,12.0,30.01666203960727,21.0,19.5,20.0,21.0,8.5,9.5,0.5,2.5,6.0,6.0,5.5,14.0,14.0,17.11724276862369
204,65,301,0,12.03999999999992,1.0,43.04648650006177,5.0,9.0,10.04987562112089,11.045361017187261,11.045361017187261,25.0,16.0,16.0,18.0,20.0,8.0,6.0,3.0,3.0,6.0,6.082762530298219,5.5,14.0,14.0,15.033296378372908
205,65,302,0,12.079999999999918,1.4142135623730951,42.04759208325728,5.0,8.06225774829855,10.04987562112089,11.045361017187261,11.045361017187261,25.019992006393608,17.0,16.5,19.0,21.0,9.0,5.0,4.0,3.0,6.0,6.0,5.5,14.0,13.0,15.033296378372908
206,65,303,0,12.119999999999918,4.0,41.048751503547585,5.0,9.055385138137417,11.0,11.045361017187261,11.0,29.017236257093817,20.0,18.0,19.0,21.0,9.0,9.0,1.0,4.0,6.082762530298219,6.0,6.0,13.0,12.0,16.0
207,65,304,0,12.159999999999917,6.0,42.04759208325728,5.0990195135927845,7.0,10.04987562112089,11.045361017187261,12.041594578792296,30.0,23.0,20.0,20.0,22.0,9.0,9.0,1.0,3.0,6.082762530298219,6.082762530298219,5.5,13.0,12.0,15.0
208,65,305,0,12.199999999999916,1.0,43.04648650006177,7.0,9.055385138137417,11.0,11.045361017187261,12.0,29.017236257093817,20.0,19.5,19.0,21.0,8.0,9.0,1.0,2.0,6.082762530298219,6.0,6.0,13.0,12.0,14.0
209,65,306,0,12.239999999999917,0.0,44.01136216933077,6.0,8.06225774829855,11.045361017187261,12.0,12.041594578792296,26.0,18.027756377319946,18.0,19.0,20.0,7.5,6.5,2.5,1.5,5.0,6.0,5.5,14.0,12.0,15.0
210,65,307,0,12.279999999999914,0.0,42.04759208325728,6.082762530298219,9.055385138137417,11.045361017187261,11.045361017187261,13.152946437965905,28.0,19.026297590440446,19.0,19.0,21.0,7.0,8.0,2.0,1.0,6.0,7.0,6.5,14.0,13.0,15.033296378372908
211,65,308,0,12.319999999999911,2.23606797749979,43.01162633521314,8.06225774829855,10.04987562112089,11.0,12.041594578792296,12.041594578792296,32.0,22.02271554554524,21.0,21.0,22.0,9.5,10.5,0.5,2.5,6.0,7.0,6.5,15.0,14.0,16.0
212,65,309,0,12.359999999999912,4.0,42.04759208325728,6.0,10.04987562112089,12.0,13.038404810405298,12.0,32.01562118716424,22.0,20.0,20.0,22.0,9.0,11.0,0.0,3.0,7.0,6.0,6.0,15.0,14.0,15.0
213,65,310,0,12.399999999999912,2.0,43.04648650006177,7.0,11.0,11.045361017187261,12.041594578792296,12.0,32.0,21.0,20.0,20.0,22.0,9.0,11.0,0.0,2.0,5.0,6.0,6.0,15.0,15.0,16.0312195418814
214,65,311,0,12.43999999999991,4.0,44.04543109109048,6.0,10.04987562112089,11.0,12.041594578792296,12.0,32.01562118716424,22.0,20.0,20.0,22.0,9.0,11.0,0.0,3.0,6.0,7.0,6.5,14.0,13.0,14.035668847618199
215,65,312,0,12.47999999999991,3.0,43.01162633521314,7.0,11.045361017187261,11.0,12.0,11.0,32.01562118716424,21.0,19.5,21.0,22.0,10.5,10.5,1.5,3.5,6.082762530298219,6.082762530298219,6.0,14.0,13.0,16.0
216,65,313,0,12.519999999999907,3.0,43.04648650006177,7.0,11.0,11.0,12.041594578792296,11.0,32.0,21.0,19.5,20.0,22.0,10.0,11.0,1.0,3.0,6.0,6.0,6.5,14.0,13.0,15.0
217,65,314,0,12.559999999999908,2.0,43.04648650006177,7.0,10.04987562112089,11.045361017187261,13.0,12.0,31.016124838541646,21.0,20.0,20.0,22.0,9.0,10.0,1.0,2.0,6.082762530298219,7.0,6.5,14.0,13.0,15.0
218,65,315,0,12.599999999999907,2.0,42.04759208325728,7.0,11.045361017187261,12.041594578792296,13.038404810405298,12.041594578792296,32.0,21.02379604162864,20.0,20.0,22.0,9.0,11.0,0.0,2.0,6.0,7.0,6.5,15.0,13.0,15.0
219,65,316,0,12.639999999999906,4.0,43.01162633521314,7.0,10.04987562112089,12.0,13.0,11.045361017187261,32.0,22.02271554554524,20.0,20.0,21.0,9.5,11.5,0.5,2.5,6.0,7.0,6.5,14.0,14.0,14.0
220,65,317,0,12.679999999999906,2.0,43.04648650006177,7.0,10.04987562112089,11.045361017187261,13.038404810405298,12.041594578792296,31.0,21.02379604162864,20.0,20.0,22.0,9.0,10.0,1.0,2.0,6.0,7.0,6.5,15.0,14.0,14.035668847618199
221,65,318,0,12.719999999999905,2.23606797749979,42.04759208325728,7.0,11.0,10.0,12.0,11.045361017187261,31.0,20.0,19.0,19.0,21.0,9.0,11.0,0.0,2.0,6.0,7.0,6.5,16.0,15.0,14.0
222,65,319,0,12.759999999999904,3.1622776601683795,42.01190307520001,7.0,11.0,12.041594578792296,12.041594578792296,11.045361017187261,32.0,21.0,19.5,20.0,21.0,9.5,11.5,0.5,2.5,6.0,6.082762530298219,6.0,15.0,14.0,15.0
223,65,320,0,12.799999999999905,3.0,42.01190307520001,7.0710678118654755,11.045361017187261,11.045361017187261,12.041594578792296,11.045361017187261,32.01562118716424,21.0,19.5,21.0,22.0,10.5,10.5,0.5,3.5,7.0710678118654755,6.0,6.0,14.0,13.0,15.033296378372908
224,65,321,0,12.839999999999902,4.0,41.012193308819754,6.0,9.055385138137417,10.0,11.0,12.041594578792296,31.0,22.02271554554524,20.0,20.0,21.0,8.5,10.5,0.5,2.5,7.0,7.0,6.5,14.0,13.0,15.0
225,65,322,0,12.8799999999999,1.0,44.04543109109048,6.082762530298219,10.0,11.045361017187261,12.0,12.041594578792296,29.0,19.0,18.5,19.0,21.0,8.0,9.0,2.0,2.0,6.0,6.0,6.0,14.0,13.0,15.033296378372908
226,65,323,0,12.9199999999999,1.4142135623730951,43.04648650006177,6.0,9.0,11.045361017187261,12.041594578792296,12.041594578792296,28.0,19.0,18.5,18.0,20.0,7.0,9.0,1.0,1.0,6.0,7.0,6.5,14.0,14.0,15.033296378372908
227,65,324,0,12.9599999999999,1.4142135623730951,43.04648650006177,6.0,9.055385138137417,11.0,12.0,12.041594578792296,28.0178514522438,19.0,18.5,18.0,20.0,7.0,9.0,1.0,1.0,6.0,6.0,6.0,14.0,14.0,14.0
228,65,325,0,12.9999999999999,1.0,42.01190307520001,7.0,10.0,11.045361017187261,12.041594578792296,12.041594578792296,29.0,19.0,19.0,19.0,20.0,7.5,9.5,1.5,0.5,6.0,6.0,6.0,14.0,14.0,14.035668847618199
229,65,326,0,13.039999999999898,1.4142135623730951,43.0,7.0,9.0,11.045361017187261,12.0,12.041594578792296,29.0,20.0,19.5,20.0,20.0,8.0,9.0,1.0,1.0,7.0710678118654755,7.0,6.5,13.0,13.0,15.033296378372908
230,65,327,0,13.079999999999895,2.0,43.01162633521314,6.0,9.055385138137417,11.0,13.0,12.041594578792296,29.0,20.024984394500787,19.0,19.0,20.0,7.5,9.5,0.5,1.5,7.0,6.082762530298219,6.0,14.0,14.0,13.038404810405298
231,65,328,0,13.119999999999896,2.0,42.01190307520001,7.0710678118654755,10.0,11.0,12.0,12.041594578792296,31.0,21.0,20.0,20.0,21.0,8.5,10.5,0.5,1.5,6.082762530298219,7.0710678118654755,7.0,15.0,15.0,15.0
232,65,329,0,13.159999999999895,2.0,42.01190307520001,7.0,9.0,11.0,12.0,11.0,29.0,20.0,19.0,19.0,20.0,8.5,9.5,0.5,1.5,7.0710678118654755,7.0710678118654755,7.0,15.0,15.0,14.0
233,65,330,0,13.199999999999894,1.0,42.01190307520001,7.0,10.04987562112089,11.0,12.0,12.0,30.01666203960727,20.0,19.5,20.0,21.0,8.5,9.5,1.5,2.5,6.082762530298219,6.0,6.0,14.0,15.0,15.033296378372908
234,65,331,0,13.239999999999894,2.0,42.01190307520001,7.0,10.0,11.0,12.0,12.0,31.0,21.0,20.0,20.0,21.0,8.5,10.5,0.5,1.5,7.0710678118654755,7.0,7.0,14.0,14.0,15.0
235,65,332,0,13.279999999999893,2.0,42.0,7.0710678118654755,10.0,11.0,12.0,12.041594578792296,31.0,21.0,20.0,21.0,21.0,9.0,10.0,1.0,2.0,7.0710678118654755,7.0710678118654755,7.0,14.0,14.0,14.0
236,65,333,0,13.319999999999892,2.23606797749979,42.0,7.0,10.0,12.0,12.041594578792296,11.045361017187261,30.0,20.0,19.0,20.0,20.0,9.0,10.0,1.0,2.0,7.0710678118654755,7.0710678118654755,7.0,13.0,14.0,14.0
237,65,334,0,13.359999999999893,1.0,42.0,7.0710678118654755,10.0,11.0,12.041594578792296,12.041594578792296,30.0,20.0,19.5,20.0,20.0,8.0,10.0,0.0,2.0,6.0,7.0710678118654755,6.5,14.0,14.0,14.0
238,65,335,0,13.39999999999989,1.0,42.01190307520001,6.0,10.04987562112089,11.0,12.041594578792296,13.038404810405298,30.0,20.024984394500787,19.5,20.0,21.0,7.5,9.5,0.5,1.5,7.0,7.0710678118654755,6.5,13.0,14.0,15.033296378372908
239,65,336,0,13.43999999999989,2.0,41.0,6.0,10.04987562112089,11.0,12.0,12.041594578792296,30.0,20.024984394500787,19.0,20.0,20.0,8.0,10.0,1.0,2.0,7.0,7.0710678118654755,7.0,14.0,15.0,15.132745950421556
240,65,337,0,13.479999999999889,2.0,41.0,7.0,10.04987562112089,11.0,12.0,12.041594578792296,31.0,21.02379604162864,20.0,20.0,20.0,8.0,11.0,0.0,1.0,7.0710678118654755,7.0,7.0,13.0,15.0,15.033296378372908
241,65,338,0,13.519999999999888,2.0,41.012193308819754,6.0,10.0,11.0,12.0,13.0,31.0,21.0,20.0,21.0,20.0,7.5,10.5,0.5,1.5,6.0,7.0,7.0,13.0,14.0,15.033296378372908
242,65,339,0,13.559999999999889,1.4142135623730951,41.012193308819754,7.0710678118654755,10.0,11.0,12.0,12.041594578792296,30.01666203960727,20.024984394500787,19.5,20.0,19.0,7.5,10.5,0.5,1.5,7.0710678118654755,7.0710678118654755,6.5,14.0,16.0,14.142135623730951
243,65,340,0,13.599999999999886,1.0,41.012193308819754,8.0,10.04987562112089,11.0,12.0,11.045361017187261,30.0,20.024984394500787,19.5,20.0,19.0,8.5,10.5,0.5,1.5,7.0,7.0,7.0,13.0,16.0,17.11724276862369
244,65,341,0,13.639999999999883,1.0,41.0,7.0,10.04987562112089,11.0,12.0,12.041594578792296,30.0,20.024984394500787,19.5,20.0,20.0,8.0,10.0,1.0,2.0,6.0,7.0710678118654755,7.0,13.0,15.0,16.1245154965971
245,65,342,0,13.679999999999884,2.0,42.0,6.0,9.0,11.0,13.0,12.041594578792296,29.017236257093817,20.024984394500787,19.0,20.0,20.0,8.0,9.0,1.0,2.0,6.0,7.0,7.0,12.0,15.0,16.1245154965971
246,65,343,0,13.719999999999883,4.0,39.01281840626232,7.0,11.0,10.0,11.0,12.041594578792296,34.0147027033899,23.021728866442675,21.0,22.0,21.0,9.5,12.5,1.5,2.5,6.0,6.082762530298219,6.0,14.0,16.0,16.0
247,65,344,0,13.759999999999884,2.0,40.0,6.082762530298219,9.0,10.0,10.0,14.035668847618199,31.064449134018133,22.090722034374522,21.0,20.0,20.0,6.0,11.0,1.0,1.0,6.0,6.082762530298219,5.5,13.0,16.0,17.11724276862369
248,65,345,0,13.799999999999882,0.0,41.012193308819754,5.0,7.0,10.0,11.0,14.035668847618199,26.019223662515376,19.026297590440446,19.0,19.0,20.0,5.5,6.5,1.5,0.5,6.0,6.082762530298219,5.5,13.0,15.0,17.11724276862369
249,65,346,0,13.83999999999988,1.0,42.01190307520001,5.0,7.0710678118654755,10.0,11.0,14.142135623730951,27.16615541441225,20.09975124224178,19.5,19.0,20.0,5.5,7.5,0.5,0.5,5.0,5.0990195135927845,5.0,13.0,15.0,16.0312195418814
250,65,347,0,13.87999999999988,1.0,40.01249804748511,5.0,7.0710678118654755,10.04987562112089,10.0,15.132745950421556,28.160255680657446,21.095023109728988,20.5,19.0,20.0,4.5,8.5,0.5,0.5,4.0,5.0,5.0,15.0,16.0,14.0
251,65,348,0,13.91999999999988,3.1622776601683795,37.013511046643494,4.0,8.0,8.0,9.055385138137417,14.035668847618199,29.068883707497267,21.095023109728988,19.5,19.0,20.0,5.5,9.5,0.5,1.5,5.0,6.0,5.5,16.0,16.0,16.0312195418814
252,65,349,0,13.959999999999878,2.0,36.124783736376884,5.0,9.055385138137417,8.06225774829855,9.055385138137417,12.041594578792296,28.071337695236398,19.026297590440446,18.0,17.0,20.0,6.5,9.5,0.5,0.5,4.0,5.0990195135927845,5.0,17.0,15.0,17.0
253,65,350,0,13.999999999999876,3.0,34.058772731852805,5.0,9.0,7.0,9.219544457292887,12.0,29.0,20.0,18.5,18.0,20.0,7.0,10.0,0.0,2.0,4.0,6.0,5.0,14.0,14.0,15.033296378372908
254,65,351,0,14.039999999999877,3.0,32.14031735997639,4.123105625617661,9.0,8.06225774829855,9.219544457292887,12.041594578792296,28.0,19.0,17.5,17.0,20.0,6.5,9.5,0.5,1.5,5.0,6.0,6.0,17.0,16.0,14.035668847618199
255,65,352,0,14.079999999999876,2.0,32.14031735997639,4.0,7.0,7.0710678118654755,8.06225774829855,13.0,26.0,19.0,18.0,17.0,20.0,5.5,7.5,0.5,0.5,5.0,6.0,5.5,18.0,15.0,15.0
256,65,353,0,14.119999999999877,1.0,35.014282800023196,5.0990195135927845,8.0,8.06225774829855,9.055385138137417,14.0,28.0178514522438,20.024984394500787,19.5,18.0,19.0,4.5,9.5,0.5,0.5,4.0,5.0990195135927845,5.0,15.0,14.0,16.0
257,65,354,0,14.159999999999874,3.0,37.0,4.0,6.082762530298219,9.055385138137417,10.0,13.038404810405298,26.0,20.024984394500787,18.5,19.0,19.0,6.0,7.0,1.0,3.0,4.0,5.0,4.5,14.0,15.0,14.0
258,65,355,0,14.199999999999871,5.0,38.0,6.0,9.055385138137417,10.0,11.045361017187261,11.045361017187261,31.064449134018133,22.02271554554524,19.5,19.0,19.0,8.0,12.0,2.0,2.0,4.123105625617661,5.0,4.5,14.0,15.0,13.0
259,65,356,0,14.239999999999872,4.0,39.01281840626232,5.0,10.0,10.0,11.045361017187261,12.041594578792296,31.016124838541646,21.02379604162864,19.0,19.0,20.0,7.5,11.5,0.5,2.5,4.123105625617661,5.0990195135927845,4.5,15.0,14.0,14.0
260,65,357,0,14.279999999999871,4.0,38.0,7.0,11.0,10.0,12.0,10.198039027185569,32.0624390837628,21.095023109728988,19.0,19.0,19.0,9.0,13.0,1.0,3.0,5.0990195135927845,6.082762530298219,5.0,13.0,14.0,15.033296378372908
261,65,358,0,14.31999999999987,3.0,40.0,6.0,12.041594578792296,10.0,12.0,12.041594578792296,33.0,21.02379604162864,19.5,21.0,21.0,9.0,12.0,0.0,3.0,6.0,6.0,6.0,13.0,14.0,17.029386365926403
262,65,359,0,14.35999999999987,2.0,41.0,7.0,11.0,11.0,12.041594578792296,12.041594578792296,32.01562118716424,21.02379604162864,20.0,21.0,21.0,9.0,11.0,0.0,3.0,6.0,6.0,5.5,14.0,14.0,18.027756377319946
263,65,360,0,14.399999999999867,4.0,39.0,6.0,11.0,11.0,12.0,12.041594578792296,33.015148038438355,22.02271554554524,20.0,21.0,21.0,9.0,12.0,0.0,3.0,6.0,6.082762530298219,5.5,14.0,14.0,16.0312195418814
264,65,361,0,14.439999999999868,4.0,39.0,7.0,11.0,11.045361017187261,11.0,12.041594578792296,34.0147027033899,23.021728866442675,21.0,21.0,21.0,9.0,13.0,1.0,2.0,6.082762530298219,6.082762530298219,6.0,14.0,14.0,16.0312195418814
265,65,362,0,14.479999999999867,1.0,39.01281840626232,5.0,8.0,10.0,11.045361017187261,14.035668847618199,28.0178514522438,20.024984394500787,19.5,20.0,21.0,6.5,7.5,1.5,1.5,6.082762530298219,6.082762530298219,5.5,13.0,13.0,15.033296378372908
266,65,363,0,14.519999999999866,0.0,41.0,5.0,9.055385138137417,10.0,11.045361017187261,14.0,28.0178514522438,19.0,19.0,20.0,20.0,6.0,8.0,1.0,1.0,6.082762530298219,6.0,6.0,13.0,13.0,14.035668847618199
267,65,364,0,14.559999999999864,4.123105625617661,43.0,7.0,10.0,11.0,12.0,11.045361017187261,32.0,22.0,20.0,21.0,21.0,10.0,11.0,0.0,3.0,7.0,6.0,6.0,14.0,15.0,18.027756377319946
268,65,365,0,14.599999999999865,1.0,42.0,7.0710678118654755,9.0,10.0,11.0,12.041594578792296,29.0,20.0,19.5,20.0,20.0,8.0,9.0,1.0,2.0,6.0,7.0710678118654755,6.5,13.0,14.0,17.11724276862369
269,65,366,0,14.639999999999864,1.4142135623730951,42.01190307520001,7.0,9.0,10.0,11.0,13.038404810405298,30.0,21.0,20.5,21.0,20.0,7.5,9.5,0.5,1.5,6.0,6.082762530298219,6.0,13.0,14.0,17.029386365926403
270,65,367,0,14.679999999999865,3.1622776601683795,41.012193308819754,6.0,9.0,10.0,11.0,14.035668847618199,32.0,23.0,21.5,22.0,21.0,7.5,10.5,1.5,1.5,6.0,6.082762530298219,6.0,13.0,15.0,17.029386365926403
271,65,368,0,14.719999999999862,1.0,42.01190307520001,6.0,9.0,11.0,12.0,14.035668847618199,30.01666203960727,21.02379604162864,20.5,22.0,21.0,7.5,8.5,1.5,1.5,6.082762530298219,6.082762530298219,6.0,13.0,15.0,17.0
272,65,369,0,14.75999999999986,1.0,41.012193308819754,6.082762530298219,9.0,10.0,11.0,14.0,29.0,20.0,20.0,21.0,20.0,6.5,8.5,1.5,0.5,7.0,7.0,7.0,13.0,15.0,18.027756377319946
273,65,370,0,14.79999999999986,1.0,44.04543109109048,6.0,9.0,11.0,11.045361017187261,13.038404810405298,29.017236257093817,20.024984394500787,19.5,20.0,18.0,6.0,10.0,1.0,0.0,6.082762530298219,6.0,6.0,14.0,15.0,17.029386365926403
274,65,371,0,14.83999999999986,0.0,42.01190307520001,6.0,9.0,10.0,11.0,13.038404810405298,28.0178514522438,19.026297590440446,19.0,19.0,18.0,5.5,9.5,0.5,0.5,6.082762530298219,6.0,6.0,13.0,15.0,19.026297590440446
275,65,372,0,14.87999999999986,1.0,42.0,7.0,9.0,10.0,11.0,12.041594578792296,28.0,19.0,19.0,19.0,19.0,7.0,9.0,1.0,1.0,6.0,7.0710678118654755,7.0,13.0,15.0,18.027756377319946
276,65,373,0,14.919999999999858,0.0,40.0,6.0,10.04987562112089,10.04987562112089,11.0,12.041594578792296,28.0,18.027756377319946,18.0,19.0,19.0,7.0,9.0,2.0,1.0,6.0,6.082762530298219,6.5,13.0,15.0,17.11724276862369
277,65,374,0,14.959999999999855,1.0,40.01249804748511,6.0,10.0,10.04987562112089,12.0,12.165525060596439,29.068883707497267,19.1049731745428,18.5,20.0,19.0,7.5,9.5,1.5,1.5,6.0,6.082762530298219,6.5,14.0,16.0,17.029386365926403
278,65,375,0,14.999999999999856,1.0,41.012193308819754,6.0,9.0,10.04987562112089,11.0,12.041594578792296,28.0178514522438,19.026297590440446,18.5,20.0,19.0,7.5,8.5,1.5,1.5,7.0710678118654755,7.0710678118654755,6.5,12.0,14.0,18.0
279,65,376,0,15.039999999999855,0.0,44.0,7.0,11.0,10.04987562112089,11.0,10.04987562112089,28.0178514522438,17.029386365926403,17.0,18.0,18.0,8.0,10.0,2.0,1.0,7.0710678118654755,7.0,7.0,14.0,16.0,18.027756377319946
280,65,377,0,15.079999999999854,2.23606797749979,43.01162633521314,6.082762530298219,11.0,11.0,11.0,10.04987562112089,29.017236257093817,18.027756377319946,17.0,20.0,19.0,9.5,9.5,1.5,3.5,7.0710678118654755,7.0710678118654755,7.0,13.0,15.0,17.029386365926403
281,65,378,0,15.119999999999854,3.0,42.01190307520001,6.0,11.0,11.0,11.0,11.045361017187261,31.016124838541646,20.024984394500787,18.5,21.0,20.0,9.5,10.5,1.5,3.5,7.0,7.0710678118654755,7.5,14.0,16.0,17.029386365926403
282,65,379,0,15.159999999999853,4.0,43.0,6.0,10.0,10.0,12.0,11.180339887498949,31.064449134018133,21.095023109728988,19.0,20.0,20.0,9.0,11.0,0.0,3.0,7.0,8.06225774829855,8.0,14.0,16.0,17.029386365926403
283,65,380,0,15.199999999999852,4.0,44.01136216933077,7.0,11.0,11.045361017187261,13.038404810405298,11.045361017187261,33.015148038438355,22.02271554554524,20.0,21.0,20.0,9.5,12.5,0.5,3.5,7.0710678118654755,8.06225774829855,7.5,16.0,19.0,20.0
284,65,381,0,15.239999999999853,2.0,43.01162633521314,6.0,10.0,11.0,12.0,11.180339887498949,29.068883707497267,19.1049731745428,18.0,19.0,18.0,7.5,10.5,0.5,2.5,7.0,7.0,7.5,18.0,20.0,21.02379604162864
285,65,382,0,15.27999999999985,2.0,42.01190307520001,6.0,9.0,11.0,11.045361017187261,11.045361017187261,28.0178514522438,19.026297590440446,18.0,20.0,19.0,8.5,8.5,1.5,2.5,7.0,7.0710678118654755,7.0,17.0,21.0,21.0
286,65,383,0,15.31999999999985,3.0,42.04759208325728,6.0,9.0,11.0,12.0,11.045361017187261,29.017236257093817,20.024984394500787,18.5,20.0,18.0,8.0,10.0,0.0,2.0,6.0,6.0,6.0,18.0,21.0,22.0
287,65,384,0,15.359999999999848,1.0,44.04543109109048,7.0710678118654755,10.0,12.0,12.0,12.165525060596439,30.14962686336267,20.223748416156685,19.5,20.0,18.0,7.0,11.0,0.0,1.0,6.082762530298219,6.082762530298219,5.5,19.0,21.0,22.0
288,65,385,0,15.399999999999848,2.0,44.01136216933077,7.0,11.0,11.0,13.0,11.180339887498949,31.064449134018133,20.09975124224178,19.0,20.0,19.0,8.5,11.5,0.5,1.5,5.0,6.082762530298219,5.5,19.0,21.0,24.0
289,65,386,0,15.439999999999849,2.0,44.04543109109048,7.0,11.0,12.0,13.0,12.165525060596439,32.0624390837628,21.095023109728988,20.0,21.0,19.0,8.0,12.0,0.0,2.0,6.0,6.082762530298219,5.5,18.0,20.0,22.0
290,65,387,0,15.479999999999846,1.0,42.04759208325728,7.0,12.0,11.0,12.0,12.165525060596439,32.0624390837628,20.09975124224178,19.5,21.0,19.0,8.0,12.0,0.0,1.0,6.0,6.082762530298219,5.5,19.0,21.0,24.0
291,65,388,0,15.519999999999843,2.0,42.04759208325728,6.0,10.0,11.0,12.0,12.165525060596439,30.066592756745816,20.09975124224178,19.0,20.0,18.0,7.0,11.0,0.0,1.0,6.082762530298219,6.082762530298219,5.5,18.0,20.0,23.0
292,65,389,0,15.559999999999844,0.0,42.0,6.0,10.0,11.0,13.0,13.152946437965905,29.068883707497267,19.1049731745428,19.0,19.0,19.0,6.0,10.0,1.0,0.0,5.0,5.0990195135927845,5.0,18.0,21.0,21.0
293,65,390,0,15.599999999999843,0.0,44.01136216933077,6.0,11.0,11.0,13.0,13.152946437965905,30.066592756745816,19.1049731745428,19.0,20.0,19.0,6.5,10.5,1.5,0.5,5.0,5.0990195135927845,5.0,18.0,20.0,21.0
294,65,391,0,15.639999999999842,0.0,43.01162633521314,7.0,10.0,10.04987562112089,12.0,12.36931687685298,29.154759474226502,19.235384061671343,19.0,20.0,19.0,7.5,9.5,0.5,0.5,6.082762530298219,6.082762530298219,6.0,17.0,19.0,19.0
295,65,392,0,15.679999999999842,0.0,39.05124837953327,6.0,11.0,10.0,11.0,13.152946437965905,30.066592756745816,19.1049731745428,19.0,21.0,19.0,7.0,10.0,1.0,1.0,6.0,6.082762530298219,5.5,18.0,20.0,20.024984394500787
296,65,393,0,15.71999999999984,0.0,40.01249804748511,6.0,10.04987562112089,9.0,11.0,13.152946437965905,29.154759474226502,19.1049731745428,19.0,19.0,20.0,6.5,9.5,0.5,1.5,5.0,5.0990195135927845,5.0,16.0,19.0,20.0
297,65,394,0,15.75999999999984,0.0,39.01281840626232,7.0,11.0,9.0,11.0,13.341664064126334,31.144823004794873,20.223748416156685,20.0,21.0,20.0,7.5,10.5,1.5,1.5,7.0,7.0710678118654755,6.5,17.0,19.0,20.0
298,65,395,0,15.79999999999984,0.0,38.0,7.0710678118654755,11.0,9.0,10.04987562112089,12.041594578792296,30.066592756745816,19.1049731745428,19.0,19.0,19.0,7.0,11.0,1.0,1.0,6.0,7.0710678118654755,6.5,18.0,20.0,22.02271554554524
299,65,396,0,15.839999999999838,1.0,39.01281840626232,6.0,10.0,10.0,11.0,12.165525060596439,29.068883707497267,19.1049731745428,18.5,20.0,19.0,7.5,9.5,1.5,1.5,5.0,5.0990195135927845,5.0,16.0,20.0,18.027756377319946
300,65,397,0,15.879999999999836,1.0,39.0,6.0,11.0,9.0,10.0,12.36931687685298,30.14962686336267,19.235384061671343,18.5,19.0,19.0,7.0,11.0,1.0,1.0,6.0,6.082762530298219,6.0,17.0,20.0,18.0
301,65,398,0,15.919999999999837,0.0,39.05124837953327,6.082762530298219,11.0,9.0,11.045361017187261,13.152946437965905,30.14962686336267,19.235384061671343,19.0,21.0,19.0,7.0,10.0,1.0,1.0,5.0,5.0,4.5,16.0,20.0,20.0
302,65,399,0,15.959999999999836,0.0,39.01281840626232,7.0,11.0,10.0,11.045361017187261,12.165525060596439,30.066592756745816,19.1049731745428,19.0,20.0,19.0,7.5,10.5,1.5,1.5,6.0,6.082762530298219,5.5,17.0,20.0,19.0
303,65,400,0,15.999999999999837,1.4142135623730951,39.05124837953327,6.0,11.0,11.0,11.0,12.041594578792296,30.066592756745816,19.1049731745428,18.5,20.0,18.0,7.0,11.0,0.0,1.0,5.0,5.0990195135927845,5.0,16.0,17.0,18.0
304,65,401,0,16.039999999999836,0.0,39.01281840626232,7.0,11.045361017187261,11.0,12.0,12.165525060596439,30.14962686336267,19.1049731745428,19.0,20.0,19.0,7.5,10.5,1.5,1.5,6.0,6.082762530298219,5.5,17.0,20.0,19.026297590440446
305,65,402,0,16.079999999999835,0.0,38.01315561749642,6.0,11.0,10.0,11.0,12.165525060596439,29.068883707497267,18.110770276274835,18.0,19.0,18.0,6.5,10.5,1.5,1.5,6.0,6.082762530298219,6.0,16.0,19.0,19.026297590440446
306,65,403,0,16.119999999999834,1.4142135623730951,39.01281840626232,6.0,10.0,10.0,11.0,12.041594578792296,29.068883707497267,19.1049731745428,18.5,20.0,19.0,7.5,9.5,1.5,2.5,6.082762530298219,6.082762530298219,6.0,17.0,19.0,20.024984394500787
307,65,404,0,16.159999999999833,1.4142135623730951,39.01281840626232,6.0,10.0,11.0,11.045361017187261,11.180339887498949,28.160255680657446,18.24828759089466,17.5,19.0,18.0,7.5,9.5,1.5,2.5,6.0,6.082762530298219,6.0,17.0,18.0,19.026297590440446
308,65,405,0,16.199999999999832,2.0,38.01315561749642,5.0,11.0,10.0,11.0,11.180339887498949,29.068883707497267,18.110770276274835,17.0,19.0,18.0,7.5,10.5,1.5,2.5,5.0990195135927845,4.0,4.0,16.0,15.0,18.0
309,65,406,0,16.23999999999983,1.0,40.0,6.0,11.0,10.04987562112089,11.045361017187261,11.180339887498949,29.068883707497267,18.110770276274835,17.5,19.0,19.0,8.0,10.0,2.0,2.0,6.082762530298219,6.0,6.0,18.0,18.0,19.026297590440446
310,65,407,0,16.27999999999983,1.0,41.0,7.0,10.0,10.0,11.0,10.198039027185569,28.071337695236398,18.110770276274835,17.5,19.0,19.0,9.0,9.0,1.0,3.0,6.0,6.0,6.0,16.0,18.0,19.0
311,65,408,0,16.31999999999983,2.23606797749979,40.0,6.0,11.0,10.0,12.0,11.180339887498949,30.01666203960727,19.026297590440446,18.0,19.0,19.0,8.0,11.0,1.0,3.0,5.0,5.0990195135927845,5.0,16.0,18.0,19.0
312,65,409,0,16.35999999999983,2.0,39.0,6.0,10.0,10.0,12.0,11.045361017187261,29.017236257093817,19.026297590440446,18.0,19.0,19.0,8.0,10.0,1.0,2.0,6.082762530298219,6.0,6.0,18.0,19.0,21.0
313,65,410,0,16.399999999999828,0.0,40.0,7.0,11.0,11.0,12.0,11.045361017187261,29.017236257093817,18.027756377319946,18.0,19.0,19.0,8.0,10.0,2.0,2.0,7.0710678118654755,6.0,6.0,17.0,18.0,21.0
314,65,411,0,16.439999999999827,0.0,41.012193308819754,7.0,12.0,11.0,12.0,11.045361017187261,30.01666203960727,18.027756377319946,18.0,20.0,19.0,8.5,10.5,1.5,2.5,6.0,6.082762530298219,6.0,17.0,19.0,21.0
315,65,412,0,16.479999999999826,1.0,41.0,6.0,11.0,11.0,12.0,11.180339887498949,29.068883707497267,18.110770276274835,17.5,19.0,19.0,8.0,10.0,1.0,2.0,6.0,6.082762530298219,6.0,17.0,18.0,21.0
316,65,413,0,16.519999999999825,1.0,41.012193308819754,6.0,12.0,10.0,12.0,11.180339887498949,30.066592756745816,18.110770276274835,17.5,20.0,19.0,8.5,10.5,1.5,2.5,7.0710678118654755,7.0710678118654755,7.0,17.0,18.0,21.02379604162864
317,65,414,0,16.559999999999825,1.0,41.048751503547585,7.0,11.0,10.0,11.0,10.04987562112089,29.017236257093817,18.027756377319946,17.5,20.0,18.0,9.0,10.0,1.0,2.0,6.082762530298219,7.0,6.5,16.0,18.0,21.0
318,65,415,0,16.599999999999824,1.0,41.012193308819754,7.0,11.0,10.0,12.0,11.180339887498949,30.066592756745816,19.1049731745428,18.5,20.0,19.0,8.5,10.5,0.5,2.5,7.0,7.0710678118654755,7.0,16.0,18.0,20.0
319,65,416,0,16.639999999999823,1.0,42.04759208325728,7.0,11.0,11.0,13.038404810405298,11.180339887498949,30.066592756745816,19.1049731745428,18.5,20.0,18.0,8.0,11.0,0.0,2.0,7.0,7.0710678118654755,6.5,15.0,17.0,20.024984394500787
320,65,417,0,16.679999999999822,2.0,41.048751503547585,7.0,10.0,12.0,13.0,10.198039027185569,29.068883707497267,19.1049731745428,18.0,19.0,17.0,8.0,11.0,0.0,2.0,7.0,7.0710678118654755,7.0,14.0,18.0,19.026297590440446
321,65,418,0,16.71999999999982,2.0,41.048751503547585,7.0,11.0,11.0,12.041594578792296,10.198039027185569,30.066592756745816,19.1049731745428,18.0,20.0,18.0,9.0,11.0,0.0,2.0,7.0,8.0,7.5,15.0,18.0,19.0
322,65,419,0,16.75999999999982,2.0,41.048751503547585,7.0,11.045361017187261,10.0,11.0,10.04987562112089,30.066592756745816,19.026297590440446,18.0,20.0,18.0,9.0,11.0,1.0,2.0,7.0,7.0710678118654755,7.0,15.0,18.0,20.024984394500787
323,65,420,0,16.79999999999982,2.0,41.048751503547585,7.0,12.041594578792296,11.0,12.0,10.04987562112089,31.064449134018133,19.026297590440446,18.0,20.0,18.0,9.0,12.0,0.0,2.0,7.0,8.06225774829855,7.5,15.0,19.0,20.09975124224178
324,65,421,0,16.83999999999982,1.4142135623730951,41.048751503547585,7.0,11.0,10.0,11.0,11.045361017187261,30.066592756745816,19.1049731745428,18.5,20.0,18.0,8.0,11.0,1.0,2.0,7.0,7.0710678118654755,7.0,15.0,18.0,20.024984394500787
325,65,422,0,16.879999999999818,1.0,40.049968789001575,6.0,10.0,11.045361017187261,11.0,11.045361017187261,28.0178514522438,18.027756377319946,17.5,19.0,17.0,7.0,10.0,0.0,2.0,7.0,7.0710678118654755,7.0,14.0,17.0,20.024984394500787
326,65,423,0,16.919999999999817,1.0,41.048751503547585,7.0,10.0,11.045361017187261,12.0,10.198039027185569,28.071337695236398,18.110770276274835,17.5,19.0,17.0,8.0,10.0,1.0,2.0,7.0,7.0710678118654755,7.0,15.0,19.0,21.02379604162864
327,65,424,0,16.959999999999816,1.0,41.048751503547585,7.0,10.04987562112089,11.045361017187261,12.0,11.045361017187261,29.068883707497267,19.026297590440446,18.5,20.0,18.0,8.0,10.0,1.0,2.0,7.0,7.0,7.0,14.0,18.0,21.095023109728988
328,65,425,0,16.999999999999815,3.0,41.048751503547585,6.0,10.0,11.0,12.0,11.045361017187261,30.01666203960727,20.024984394500787,18.5,21.0,19.0,9.0,10.0,0.0,3.0,7.0,8.06225774829855,7.5,14.0,18.0,19.1049731745428
329,65,426,0,17.039999999999814,5.0,41.048751503547585,7.0710678118654755,10.0,11.045361017187261,12.0,11.045361017187261,33.06055050963308,23.08679276123039,20.5,21.0,19.0,9.0,13.0,2.0,3.0,7.0,7.0710678118654755,6.5,14.0,18.0,20.09975124224178
330,65,427,0,17.079999999999814,1.0,42.04759208325728,6.0,10.0,11.045361017187261,12.0,13.152946437965905,30.066592756745816,20.09975124224178,19.5,21.0,19.0,7.0,10.0,0.0,2.0,7.0,7.0,7.0,13.0,17.0,18.110770276274835
331,65,428,0,17.119999999999813,0.0,42.04759208325728,7.0710678118654755,9.0,10.0,11.0,12.041594578792296,28.071337695236398,19.1049731745428,19.0,20.0,18.0,7.0,9.0,1.0,1.0,7.0,7.0710678118654755,6.5,13.0,18.0,18.24828759089466
332,65,429,0,17.159999999999812,0.0,43.01162633521314,6.0,9.0,11.0,12.041594578792296,13.152946437965905,28.071337695236398,19.1049731745428,19.0,20.0,19.0,6.5,8.5,1.5,1.5,7.0,7.0710678118654755,7.0,13.0,17.0,18.110770276274835
333,65,430,0,17.19999999999981,1.0,42.01190307520001,6.082762530298219,9.0,10.0,11.0,14.035668847618199,30.066592756745816,21.095023109728988,20.5,21.0,20.0,6.5,9.5,0.5,1.5,6.0,6.082762530298219,6.5,12.0,17.0,17.26267650163207
334,65,431,0,17.23999999999981,2.23606797749979,41.048751503547585,7.0,10.0,10.04987562112089,11.0,13.038404810405298,32.0624390837628,22.090722034374522,21.0,22.0,20.0,8.0,11.0,0.0,2.0,6.0,6.082762530298219,6.5,13.0,18.0,16.278820596099706
335,65,432,0,17.27999999999981,3.0,42.04759208325728,6.0,11.045361017187261,10.0,11.0,13.152946437965905,33.13608305156178,22.090722034374522,20.5,22.0,20.0,8.0,12.0,1.0,2.0,6.0,7.0,6.0,13.0,18.0,17.26267650163207
336,65,433,0,17.31999999999981,4.0,42.04759208325728,7.0710678118654755,10.04987562112089,11.0,12.0,13.038404810405298,34.132096331752024,24.08318915758459,22.0,23.0,21.0,9.0,12.0,1.0,2.0,6.0,6.0,5.5,13.0,18.0,18.24828759089466
337,65,434,0,17.359999999999808,7.0,43.04648650006177,6.0,12.041594578792296,11.0,12.0,12.041594578792296,37.05401462729781,25.019992006393608,21.5,23.0,21.0,10.0,15.0,2.0,4.0,5.0,6.0,5.5,13.0,18.0,17.26267650163207
338,65,435,0,17.399999999999807,10.0,43.01162633521314,6.0,11.045361017187261,11.0,12.0,11.180339887498949,38.118237105091836,27.073972741361768,22.0,23.0,22.0,11.5,15.5,4.5,5.5,5.0,6.082762530298219,5.5,13.0,18.0,16.278820596099706
339,65,436,0,17.439999999999806,12.041594578792296,41.012193308819754,6.0,9.0,11.0,12.0,11.180339887498949,38.118237105091836,29.154759474226502,23.0,23.0,22.0,11.5,15.5,5.5,5.5,5.0,6.0,5.5,13.0,17.0,15.297058540778355
340,65,437,0,17.479999999999805,11.045361017187261,42.04759208325728,6.0,10.0,10.0,11.045361017187261,11.180339887498949,38.118237105091836,28.160255680657446,22.5,24.0,22.0,12.0,15.0,5.0,6.0,5.0990195135927845,6.0,5.0,13.0,18.0,17.26267650163207
341,65,438,0,17.519999999999804,11.0,42.04759208325728,6.082762530298219,8.06225774829855,11.045361017187261,12.041594578792296,10.04987562112089,35.12833614050059,27.073972741361768,21.5,23.0,21.0,12.0,13.0,4.0,6.0,5.0,6.082762530298219,5.5,13.0,17.0,16.1245154965971
342,65,439,0,17.559999999999803,9.055385138137417,43.04648650006177,6.0,10.0,11.0,12.041594578792296,11.180339887498949,36.124783736376884,26.1725046566048,21.5,23.0,21.0,11.0,14.0,3.0,5.0,5.0,7.0710678118654755,6.0,14.0,17.0,15.297058540778355
343,65,440,0,17.599999999999802,8.0,42.01190307520001,6.082762530298219,9.0,11.045361017187261,12.0,11.045361017187261,34.058772731852805,25.079872407968907,21.0,22.0,21.0,10.5,12.5,3.5,5.5,5.0,6.0,5.0,12.0,16.0,16.1245154965971
344,65,441,0,17.6399999999998,7.0,41.0,7.0,9.0,11.045361017187261,12.0,11.180339887498949,34.058772731852805,25.079872407968907,21.5,22.0,22.0,11.0,12.0,2.0,5.0,5.0,5.0990195135927845,5.0,14.0,18.0,16.1245154965971
345,65,442,0,17.6799999999998,8.0,41.012193308819754,6.0,10.0,11.0,12.0,11.045361017187261,35.014282800023196,25.019992006393608,21.0,22.0,21.0,10.5,13.5,2.5,4.5,4.123105625617661,6.0,5.0,13.0,18.0,16.1245154965971
346,65,443,0,17.7199999999998,7.0,41.012193308819754,6.0,10.04987562112089,11.0,12.041594578792296,11.045361017187261,34.058772731852805,24.020824298928627,20.5,22.0,21.0,10.5,12.5,1.5,4.5,5.0990195135927845,5.0990195135927845,4.5,13.0,18.0,15.297058540778355
347,65,444,0,17.7599999999998,7.0710678118654755,41.012193308819754,6.0,11.0,11.0,12.0,11.045361017187261,35.05709628591621,24.08318915758459,20.5,22.0,21.0,10.5,13.5,1.5,4.5,5.0,6.082762530298219,5.0,13.0,17.0,14.142135623730951
348,65,445,0,17.799999999999798,5.0990195135927845,41.0,6.0,9.0,10.0,12.041594578792296,12.041594578792296,32.0624390837628,23.08679276123039,20.5,21.0,21.0,9.0,11.0,1.0,3.0,4.123105625617661,5.0990195135927845,4.5,13.0,17.0,16.1245154965971
349,65,446,0,17.839999999999797,1.0,40.0,7.0,10.0,10.0,11.045361017187261,11.045361017187261,29.017236257093817,19.026297590440446,18.5,19.0,19.0,8.0,10.0,1.0,2.0,4.0,5.0990195135927845,4.5,12.0,17.0,16.1245154965971
350,65,447,0,17.879999999999797,1.0,40.01249804748511,6.0,10.0,11.045361017187261,11.045361017187261,11.0,28.0,18.0,17.5,18.0,19.0,7.5,9.5,1.5,1.5,5.0,4.123105625617661,4.0,13.0,17.0,15.132745950421556
351,65,448,0,17.919999999999796,0.0,40.01249804748511,6.0,10.0,10.04987562112089,11.045361017187261,11.045361017187261,27.018512172212592,17.029386365926403,17.0,18.0,19.0,7.5,8.5,1.5,1.5,4.0,5.0990195135927845,4.5,13.0,17.0,15.132745950421556
352,65,449,0,17.959999999999795,1.0,40.01249804748511,6.0,10.0,10.0,11.180339887498949,10.04987562112089,27.018512172212592,17.029386365926403,16.5,18.0,19.0,8.5,8.5,2.5,2.5,4.0,4.123105625617661,4.0,13.0,17.0,13.152946437965905
353,65,450,0,17.999999999999794,2.0,38.01315561749642,5.0,9.0,10.0,11.0,11.045361017187261,27.018512172212592,18.027756377319946,17.0,17.0,18.0,6.5,9.5,0.5,1.5,4.123105625617661,5.0990195135927845,4.5,12.0,17.0,14.142135623730951
354,65,451,0,18.0399999999998,1.0,38.0,6.0,10.0,10.0,10.04987562112089,11.0,28.0,18.0,17.5,18.0,18.0,7.0,10.0,1.0,2.0,5.0,5.0990195135927845,4.5,12.0,16.0,13.152946437965905
355,65,452,0,18.079999999999792,1.0,39.01281840626232,6.0,10.0,9.0,11.045361017187261,11.0,28.0,18.0,17.5,18.0,19.0,7.5,9.5,1.5,1.5,4.0,5.0,5.0,12.0,17.0,13.038404810405298
356,65,453,0,18.11999999999979,1.0,39.05124837953327,6.0,10.0,10.0,11.045361017187261,11.045361017187261,28.0178514522438,18.027756377319946,17.5,17.0,19.0,7.0,10.0,1.0,2.0,4.0,5.0990195135927845,5.0,14.0,17.0,14.035668847618199
357,65,454,0,18.15999999999979,0.0,39.0,6.0,10.0,10.04987562112089,11.045361017187261,11.0,27.0,17.0,17.0,18.0,18.0,7.0,9.0,2.0,1.0,4.0,5.0990195135927845,5.0,13.0,17.0,13.038404810405298
358,65,455,0,18.19999999999979,0.0,39.01281840626232,6.082762530298219,11.0,10.04987562112089,11.045361017187261,11.0,28.0178514522438,17.029386365926403,17.0,17.0,18.0,6.5,10.5,1.5,0.5,4.0,4.0,4.0,13.0,17.0,13.038404810405298
359,65,456,0,18.23999999999979,3.0,39.0,5.0,9.0,10.0,12.041594578792296,12.041594578792296,29.017236257093817,20.024984394500787,18.5,19.0,19.0,7.0,10.0,1.0,2.0,4.0,5.0990195135927845,4.5,13.0,16.0,13.152946437965905
360,65,457,0,18.279999999999788,3.0,39.0,6.082762530298219,8.0,10.0,12.0,12.041594578792296,29.068883707497267,21.095023109728988,19.5,20.0,20.0,8.0,9.0,0.0,2.0,4.0,6.082762530298219,5.0,12.0,16.0,15.132745950421556
361,65,458,0,18.319999999999787,3.0,38.0,5.0990195135927845,10.0,10.0,10.04987562112089,12.041594578792296,30.066592756745816,20.09975124224178,18.5,19.0,19.0,7.0,11.0,1.0,2.0,5.0,5.0990195135927845,4.5,16.0,17.0,14.035668847618199
362,65,459,0,18.359999999999783,4.0,38.0,5.0,10.0,10.0,11.045361017187261,12.041594578792296,31.016124838541646,21.02379604162864,19.0,19.0,19.0,7.0,12.0,1.0,2.0,5.0,5.0990195135927845,5.0,15.0,16.0,13.038404810405298
363,65,460,0,18.399999999999785,3.0,39.0,5.0990195135927845,10.0,10.0,11.0,12.0,30.01666203960727,20.024984394500787,18.5,19.0,19.0,7.0,11.0,1.0,2.0,5.0990195135927845,5.0990195135927845,5.0,14.0,17.0,14.142135623730951
364,65,461,0,18.439999999999785,2.23606797749979,39.01281840626232,6.0,10.0,11.0,12.0,12.0,30.01666203960727,20.024984394500787,19.0,20.0,19.0,7.5,10.5,0.5,1.5,5.0,5.0990195135927845,5.0,14.0,17.0,13.038404810405298
365,65,462,0,18.479999999999784,3.0,39.0,6.0,9.0,10.0,11.0,11.045361017187261,29.017236257093817,20.024984394500787,18.5,19.0,19.0,8.0,10.0,0.0,2.0,5.0,5.0990195135927845,5.0,13.0,16.0,14.0
366,65,463,0,18.519999999999783,1.4142135623730951,40.0,6.0,10.0,10.0,12.041594578792296,12.0,29.017236257093817,19.026297590440446,18.5,19.0,19.0,7.0,10.0,0.0,2.0,5.0,5.0990195135927845,5.0,14.0,17.0,14.035668847618199
367,65,464,0,18.559999999999786,3.0,39.0,6.0,9.055385138137417,9.0,11.045361017187261,11.045361017187261,29.068883707497267,20.024984394500787,18.5,19.0,19.0,8.0,10.0,0.0,2.0,5.0,5.0990195135927845,5.0,13.0,15.0,14.035668847618199
368,65,465,0,18.59999999999978,2.0,39.0,6.082762530298219,10.0,10.0,12.0,11.0,29.017236257093817,19.026297590440446,18.0,19.0,19.0,8.0,10.0,0.0,2.0,4.0,6.082762530298219,5.0,13.0,17.0,14.142135623730951
369,65,466,0,18.63999999999978,2.23606797749979,39.0,6.0,9.0,10.0,11.0,11.045361017187261,28.071337695236398,19.1049731745428,18.0,18.0,18.0,7.0,10.0,0.0,2.0,5.0,5.0990195135927845,5.0,14.0,17.0,14.035668847618199
370,65,467,0,18.67999999999978,1.0,39.0,6.0,9.055385138137417,9.0,10.0,12.0,28.0178514522438,19.0,18.5,19.0,19.0,7.0,9.0,1.0,2.0,5.0,5.0990195135927845,4.5,13.0,16.0,15.033296378372908
371,65,468,0,18.71999999999978,2.0,39.01281840626232,5.0,9.0,10.0,11.0,12.0,28.0,19.0,18.0,19.0,18.0,6.5,9.5,0.5,1.5,4.0,5.0990195135927845,5.0,13.0,15.0,14.035668847618199
372,65,469,0,18.759999999999778,2.0,39.0,6.0,9.0,9.0,11.045361017187261,11.045361017187261,28.0178514522438,19.026297590440446,18.0,18.0,18.0,7.0,10.0,0.0,1.0,4.0,5.0990195135927845,5.0,13.0,16.0,14.035668847618199
373,65,470,0,18.799999999999777,2.0,40.01249804748511,6.0,10.04987562112089,10.0,10.0,11.0,29.017236257093817,19.0,18.0,19.0,18.0,7.5,10.5,0.5,1.5,5.0,5.0990195135927845,5.0,13.0,15.0,14.035668847618199
374,65,471,0,18.839999999999776,6.082762530298219,42.01190307520001,6.0,12.0,10.0,13.038404810405298,11.045361017187261,35.05709628591621,23.08679276123039,20.0,21.0,20.0,9.5,14.5,2.5,3.5,4.0,5.0990195135927845,4.5,13.0,18.0,15.132745950421556
375,65,472,0,18.87999999999977,6.0,41.012193308819754,6.082762530298219,11.0,10.0,12.0,11.045361017187261,34.058772731852805,23.08679276123039,20.0,20.0,19.0,8.5,14.5,2.5,2.5,5.0,6.082762530298219,5.0,13.0,16.0,16.0312195418814
376,65,473,0,18.91999999999977,7.0710678118654755,43.0,5.0,11.0,11.0,12.041594578792296,11.045361017187261,34.058772731852805,23.08679276123039,19.5,19.0,19.0,8.0,15.0,3.0,3.0,5.0,6.0,5.5,14.0,17.0,15.033296378372908
377,65,474,0,18.959999999999773,8.0,45.0111097397076,6.0,9.055385138137417,11.045361017187261,12.041594578792296,11.180339887498949,34.132096331752024,25.079872407968907,21.0,20.0,19.0,8.5,14.5,4.5,3.5,3.0,3.1622776601683795,3.0,14.0,16.0,13.152946437965905
378,65,475,0,18.999999999999773,7.0,43.0,5.0,8.0,11.0,12.041594578792296,12.165525060596439,32.0624390837628,24.08318915758459,20.5,18.0,18.0,6.0,14.0,5.0,2.0,3.0,4.0,4.0,12.0,14.0,13.038404810405298
379,65,476,0,19.03999999999977,2.0,43.04648650006177,6.082762530298219,10.0,11.045361017187261,11.0,12.041594578792296,30.066592756745816,20.09975124224178,19.0,19.0,17.0,6.0,12.0,1.0,1.0,4.0,4.0,4.0,13.0,16.0,14.035668847618199
380,65,477,0,19.07999999999977,2.23606797749979,43.04648650006177,6.0,9.0,10.0,11.0,11.045361017187261,28.071337695236398,19.1049731745428,18.0,18.0,16.0,6.0,11.0,1.0,0.0,4.0,4.123105625617661,3.5,13.0,16.0,14.142135623730951
381,65,478,0,19.11999999999977,4.0,45.0111097397076,5.0990195135927845,8.0,12.0,13.0,13.038404810405298,30.066592756745816,22.090722034374522,20.0,19.0,18.0,5.5,11.5,2.5,0.5,4.0,4.0,4.0,13.0,16.0,14.142135623730951
382,65,479,0,19.15999999999977,4.0,45.044422518220834,6.0,10.0,11.045361017187261,12.0,12.041594578792296,32.01562118716424,22.02271554554524,20.0,19.0,17.0,6.0,14.0,4.0,1.0,4.0,4.0,4.0,12.0,16.0,15.132745950421556
383,65,480,0,19.19999999999977,4.0,46.04345773288535,7.0,10.0,11.045361017187261,13.0,12.165525060596439,33.06055050963308,23.08679276123039,21.0,21.0,19.0,8.0,13.0,3.0,2.0,6.0,5.0990195135927845,5.0,13.0,16.0,15.132745950421556
384,65,481,0,19.239999999999768,2.0,45.044422518220834,6.0,9.0,11.0,12.041594578792296,12.165525060596439,29.068883707497267,20.09975124224178,19.0,19.0,17.0,6.0,11.0,2.0,0.0,5.0,6.0,6.0,12.0,16.0,14.035668847618199
385,65,482,0,19.279999999999767,1.0,45.0,6.0,8.06225774829855,11.0,11.0,12.165525060596439,27.018512172212592,19.1049731745428,18.5,18.0,18.0,6.0,9.0,0.0,1.0,5.0,5.0990195135927845,5.0,12.0,16.0,16.1245154965971
386,65,483,0,19.31999999999977,1.0,46.04345773288535,6.0,9.0,11.0,11.0,13.152946437965905,27.073972741361768,18.110770276274835,18.5,20.0,18.0,6.0,8.0,2.0,1.0,6.0,6.0,5.5,12.0,16.0,15.033296378372908
387,65,484,0,19.359999999999765,0.0,46.010868281309364,6.082762530298219,8.0,10.04987562112089,12.0,13.038404810405298,27.073972741361768,19.1049731745428,19.0,20.0,19.0,6.5,7.5,1.5,0.5,6.0,5.0,5.5,12.0,15.0,14.035668847618199
388,65,485,0,19.399999999999764,2.0,45.0,6.0,9.0,11.0,11.0,14.035668847618199,31.016124838541646,22.02271554554524,21.0,20.0,20.0,6.0,11.0,2.0,0.0,6.0,6.082762530298219,6.0,13.0,17.0,14.142135623730951
389,65,486,0,19.439999999999763,2.0,45.0111097397076,7.0,8.0,10.0,11.0,15.132745950421556,32.0624390837628,24.08318915758459,23.0,22.0,21.0,6.5,10.5,1.5,0.5,6.0,6.0,5.5,13.0,16.0,14.035668847618199
390,65,487,0,19.47999999999976,2.0,44.0,6.0,7.0710678118654755,10.0,11.0,15.033296378372908,30.0,23.021728866442675,22.0,21.0,21.0,6.0,9.0,1.0,1.0,6.0,6.0,6.0,13.0,16.0,15.132745950421556
391,65,488,0,19.51999999999976,1.4142135623730951,44.0,6.0,8.0,10.0,11.0,14.035668847618199,29.0,21.0,20.5,21.0,21.0,7.0,8.0,1.0,1.0,6.0,6.0,5.5,13.0,17.0,13.152946437965905
392,65,489,0,19.55999999999976,0.0,44.01136216933077,6.0,7.0,10.0,11.0,15.0,28.0,21.0,21.0,21.0,22.0,6.5,6.5,0.5,1.5,5.0,5.0,5.0,14.0,17.0,13.152946437965905
393,65,490,0,19.59999999999976,1.0,44.04543109109048,6.0,8.06225774829855,9.055385138137417,10.0,15.033296378372908,30.0,22.02271554554524,21.5,21.0,23.0,7.0,8.0,1.0,1.0,5.0990195135927845,6.0,6.0,14.0,17.0,13.038404810405298
394,65,491,0,19.63999999999976,0.0,42.01190307520001,6.0,8.06225774829855,10.0,10.04987562112089,14.035668847618199,28.0,20.024984394500787,20.0,20.0,21.0,6.5,7.5,1.5,1.5,6.0,6.0,6.0,13.0,17.0,14.142135623730951
395,65,492,0,19.67999999999976,1.0,43.01162633521314,5.0990195135927845,7.0,10.0,11.0,14.0,27.018512172212592,20.024984394500787,19.5,19.0,20.0,5.5,7.5,0.5,0.5,5.0,5.0,5.0,14.0,17.0,14.035668847618199
396,65,493,0,19.71999999999976,1.0,43.01162633521314,6.0,8.0,10.04987562112089,11.045361017187261,14.035668847618199,29.017236257093817,21.02379604162864,20.5,20.0,21.0,6.5,8.5,0.5,0.5,6.0,5.0,5.5,13.0,16.0,14.142135623730951
397,65,494,0,19.75999999999976,2.0,44.0,5.0,8.0,10.0,11.0,14.035668847618199,29.017236257093817,21.02379604162864,20.0,20.0,20.0,6.0,9.0,1.0,1.0,5.0,5.0,5.0,13.0,16.0,15.033296378372908
398,65,495,0,19.79999999999976,2.0,45.0111097397076,6.082762530298219,9.0,10.0,11.0,13.0,30.01666203960727,21.02379604162864,20.0,21.0,20.0,7.5,9.5,0.5,1.5,6.0,6.0,5.5,13.0,17.0,15.132745950421556
399,65,496,0,19.839999999999755,2.0,47.042533945356304,6.0,9.0,12.0,12.0,14.142135623730951,31.064449134018133,22.090722034374522,21.0,21.0,19.0,6.0,11.0,2.0,1.0,5.0,5.0,5.0,14.0,17.0,14.142135623730951
400,65,497,0,19.87999999999976,2.0,46.04345773288535,6.0,8.0,10.0,12.0,13.038404810405298,29.017236257093817,21.02379604162864,20.0,20.0,18.0,6.0,10.0,1.0,1.0,5.0,5.0990195135927845,5.0,14.0,18.0,14.142135623730951
401,65,498,0,19.91999999999976,1.0,48.041648597857254,6.0,8.0,11.0,12.0,13.038404810405298,28.0178514522438,20.024984394500787,19.5,20.0,18.0,6.0,9.0,1.0,0.0,5.0,6.0,5.5,13.0,17.0,15.132745950421556
402,65,499,0,19.959999999999752,1.0,48.010415536631214,6.0,8.0,10.0,12.0,13.038404810405298,28.0178514522438,20.024984394500787,19.5,19.0,18.0,5.5,9.5,1.5,0.5,5.0,6.0,5.5,13.0,17.0,14.035668847618199
403,65,500,0,19.99999999999975,0.0,47.01063709417264,6.0,8.0,11.0,12.041594578792296,14.142135623730951,28.071337695236398,20.09975124224178,20.0,19.0,18.0,4.5,9.5,1.5,0.5,6.0,6.0,5.5,14.0,17.0,15.033296378372908
404,65,501,0,20.03999999999975,1.0,46.010868281309364,5.0,8.0,10.0,11.045361017187261,14.035668847618199,28.0178514522438,20.024984394500787,19.5,19.0,20.0,5.5,8.5,0.5,0.5,4.0,5.0,4.5,14.0,15.0,14.035668847618199
405,65,502,0,20.07999999999975,2.0,44.04543109109048,5.0,9.0,10.04987562112089,10.04987562112089,14.035668847618199,30.01666203960727,21.02379604162864,20.0,19.0,21.0,6.0,10.0,0.0,1.0,3.0,5.0,4.0,15.0,14.0,14.0
406,65,503,0,20.11999999999975,8.0,43.289721643826724,5.0,9.0,10.04987562112089,11.045361017187261,14.035668847618199,36.013886210738214,27.018512172212592,23.0,20.0,25.0,8.5,13.5,2.5,3.5,4.123105625617661,5.0,4.0,16.0,13.0,12.0
407,65,504,0,20.159999999999748,11.045361017187261,44.28317965096906,7.0,9.0,11.045361017187261,11.180339887498949,14.035668847618199,41.048751503547585,32.0624390837628,26.5,23.0,28.0,11.5,15.5,4.5,4.5,4.123105625617661,6.0,5.5,17.0,11.0,10.04987562112089
408,65,505,0,20.199999999999747,12.0,41.773197148410844,7.0,10.0,10.198039027185569,11.180339887498949,14.035668847618199,43.01162633521314,33.015148038438355,27.0,22.0,30.0,12.0,17.0,5.0,4.0,5.0,5.0990195135927845,4.5,18.0,11.0,13.038404810405298
409,65,506,0,20.239999999999743,10.0,42.95346318982906,6.0,9.0,9.219544457292887,10.770329614269007,14.035668847618199,39.01281840626232,30.01666203960727,25.0,20.0,29.0,10.5,14.5,3.5,3.5,4.0,5.0990195135927845,4.5,19.0,10.0,10.44030650891055
410,65,507,0,20.279999999999745,12.0,43.174066289845804,6.0,10.0,9.219544457292887,10.44030650891055,13.0,41.0,31.0,25.0,19.0,29.0,11.0,17.0,5.0,4.0,5.0990195135927845,6.082762530298219,5.0,21.0,11.0,11.40175425099138
411,65,508,0,20.319999999999744,12.041594578792296,41.97618372363071,7.0,10.0,9.219544457292887,10.44030650891055,13.038404810405298,42.04759208325728,32.0624390837628,26.0,21.0,30.0,12.5,16.5,4.5,4.5,5.0990195135927845,6.082762530298219,5.0,22.0,13.0,11.180339887498949
412,65,509,0,20.359999999999744,9.055385138137417,41.773197148410844,6.0,10.04987562112089,8.246211251235321,9.219544457292887,14.0,39.0,29.017236257093817,24.5,19.0,27.0,9.0,16.0,4.0,1.0,5.0990195135927845,5.0990195135927845,5.0,23.0,14.0,12.36931687685298
413,65,510,0,20.399999999999743,2.23606797749979,40.792156108742276,6.082762530298219,9.0,9.055385138137417,9.219544457292887,15.0,32.0,23.0,22.0,18.0,26.0,7.0,10.0,0.0,1.0,6.324555320336759,6.0,5.5,22.0,13.0,12.36931687685298
414,65,511,0,20.439999999999745,3.1622776601683795,40.26164427839479,5.0,7.0710678118654755,7.615773105863909,8.94427190999916,15.0,30.0,23.021728866442675,21.5,17.0,27.0,7.0,8.0,1.0,1.0,4.123105625617661,5.0,4.5,20.0,11.0,10.44030650891055
415,65,512,0,20.47999999999974,5.0,37.8549864614954,5.0,7.0,8.246211251235321,8.246211251235321,15.0,32.0,25.0,22.5,18.0,26.0,7.0,10.0,1.0,1.0,5.0990195135927845,5.0990195135927845,4.5,21.0,11.0,12.36931687685298
416,65,513,0,20.51999999999974,2.0,42.7551166528639,6.0,8.06225774829855,9.219544457292887,9.219544457292887,14.0,30.01666203960727,22.0,21.0,16.0,24.0,6.0,10.0,1.0,1.0,4.123105625617661,4.123105625617661,4.0,22.0,12.0,10.770329614269007
417,65,514,0,20.55999999999974,1.0,42.579337712087536,5.0,8.0,8.246211251235321,9.219544457292887,13.0,27.0,19.0,18.5,16.0,23.0,6.5,7.5,1.5,0.5,4.123105625617661,4.123105625617661,3.5,21.0,12.0,12.36931687685298
418,65,515,0,20.59999999999974,3.0,41.593268686170845,5.0990195135927845,8.0,9.055385138137417,10.198039027185569,13.0,29.017236257093817,21.02379604162864,19.5,16.0,23.0,6.5,9.5,0.5,1.5,4.123105625617661,4.123105625617661,3.5,17.0,11.0,11.045361017187261
419,65,516,0,20.639999999999738,4.0,44.40720662234904,5.0,8.0,10.04987562112089,11.180339887498949,13.0,30.0,22.0,20.0,18.0,24.0,8.0,9.0,1.0,3.0,4.0,5.0990195135927845,4.5,15.0,10.0,11.0
420,65,517,0,20.679999999999737,4.0,44.40720662234904,6.0,9.055385138137417,10.04987562112089,11.180339887498949,12.0,31.016124838541646,22.0,20.0,17.0,23.0,8.0,11.0,1.0,2.0,4.0,4.0,4.0,19.0,12.0,11.180339887498949
421,65,518,0,20.719999999999736,6.0,45.39823785126467,5.0,8.06225774829855,10.198039027185569,12.165525060596439,12.0,31.016124838541646,23.0,20.0,17.0,23.0,8.0,11.0,1.0,2.0,4.123105625617661,5.0990195135927845,4.5,16.0,11.0,11.180339887498949
422,65,519,0,20.75999999999973,6.0,47.265209192385896,5.0,8.06225774829855,11.045361017187261,12.36931687685298,13.038404810405298,32.0,24.020824298928627,21.0,18.0,23.0,7.5,11.5,1.5,2.5,4.0,4.123105625617661,3.5,15.0,10.0,9.219544457292887
423,65,520,0,20.79999999999973,5.0,47.16990566028302,6.0,9.0,10.04987562112089,12.165525060596439,12.041594578792296,32.01562118716424,23.021728866442675,20.5,18.0,22.0,8.0,12.0,1.0,2.0,3.1622776601683795,4.123105625617661,3.5,15.0,12.0,12.041594578792296
424,65,521,0,20.839999999999733,5.0,46.17358552246078,4.0,7.0,10.04987562112089,11.180339887498949,13.0,29.0,22.0,19.5,18.0,22.0,7.0,9.0,1.0,2.0,4.123105625617661,5.0990195135927845,5.0,15.0,13.0,12.0
425,65,522,0,20.879999999999733,6.0,46.17358552246078,4.0,6.082762530298219,12.041594578792296,12.165525060596439,12.0,28.0178514522438,22.0,19.0,17.0,21.0,7.0,9.0,1.0,2.0,4.123105625617661,5.0,4.5,14.0,12.0,10.0
426,65,523,0,20.91999999999973,4.0,46.09772228646444,5.0,8.06225774829855,11.045361017187261,12.041594578792296,13.038404810405298,30.0,22.02271554554524,20.0,19.0,22.0,7.5,9.5,0.5,2.5,5.0990195135927845,6.0,5.5,15.0,13.0,12.0
427,65,524,0,20.95999999999973,6.0,47.095647357266465,5.0,7.0710678118654755,11.045361017187261,12.041594578792296,12.0,30.01666203960727,23.0,20.0,19.0,22.0,8.5,9.5,0.5,2.5,4.123105625617661,5.0,5.0,14.0,13.0,12.041594578792296
428,65,525,0,20.99999999999973,5.0,46.09772228646444,5.0,9.0,11.045361017187261,12.041594578792296,13.0,32.0,23.0,20.5,20.0,23.0,8.5,10.5,0.5,3.5,5.0,6.082762530298219,5.5,16.0,14.0,13.0
429,65,526,0,21.03999999999973,5.0990195135927845,45.09988913511872,6.0,9.0,11.045361017187261,12.041594578792296,12.0,32.01562118716424,23.021728866442675,20.5,20.0,23.0,9.5,10.5,0.5,3.5,6.082762530298219,6.082762530298219,5.5,16.0,14.0,14.035668847618199
430,65,527,0,21.07999999999973,1.0,44.181444068749045,6.0,9.055385138137417,10.04987562112089,11.180339887498949,12.0,28.0178514522438,19.0,18.5,18.0,22.0,8.0,8.0,2.0,2.0,6.082762530298219,6.0,6.0,15.0,13.0,14.0
431,65,528,0,21.119999999999727,1.0,44.181444068749045,5.0,8.06225774829855,10.04987562112089,12.041594578792296,13.038404810405298,27.073972741361768,19.026297590440446,18.5,18.0,22.0,7.0,7.0,2.0,1.0,5.0990195135927845,6.0,5.5,16.0,13.0,13.0
432,65,529,0,21.159999999999727,1.0,43.289721643826724,5.0,8.06225774829855,11.045361017187261,12.165525060596439,13.0,27.018512172212592,19.0,18.5,17.0,22.0,6.5,7.5,1.5,1.5,5.0990195135927845,6.082762530298219,5.5,15.0,12.0,12.0
433,65,530,0,21.19999999999973,5.0990195135927845,42.190046219457976,5.0,7.0,10.04987562112089,11.180339887498949,13.0,30.01666203960727,23.021728866442675,20.5,18.0,22.0,7.0,10.0,2.0,2.0,4.123105625617661,5.0990195135927845,5.0,15.0,13.0,13.038404810405298
434,65,531,0,21.239999999999725,2.23606797749979,40.11234224026316,5.0,7.0,9.0,9.055385138137417,13.0,27.018512172212592,20.024984394500787,19.0,18.0,21.0,6.5,7.5,0.5,1.5,5.0990195135927845,5.0990195135927845,5.0,14.0,12.0,14.035668847618199
435,65,532,0,21.279999999999724,1.0,42.190046219457976,6.0,8.0,9.055385138137417,11.045361017187261,14.035668847618199,28.0,20.0,20.0,18.0,22.0,6.0,8.0,1.0,0.0,6.082762530298219,6.0,5.5,14.0,11.0,14.0
436,65,533,0,21.319999999999723,1.0,43.18564576337837,6.0,8.06225774829855,11.045361017187261,11.180339887498949,13.038404810405298,27.018512172212592,19.0,19.0,18.0,22.0,7.0,7.0,3.0,1.0,5.0,5.0,5.0,14.0,11.0,15.0
437,65,534,0,21.35999999999972,1.0,41.19465984809196,6.0,9.055385138137417,10.198039027185569,10.04987562112089,13.0,27.018512172212592,18.0,18.5,17.0,21.0,6.0,8.0,2.0,0.0,6.082762530298219,6.0,6.0,15.0,13.0,15.0
438,65,535,0,21.39999999999972,1.4142135623730951,42.2965719651132,6.0,9.0,10.04987562112089,11.180339887498949,12.0,26.019223662515376,17.029386365926403,17.5,16.0,21.0,6.5,7.5,2.5,0.5,5.0,6.0,5.5,14.0,12.0,14.035668847618199
439,65,536,0,21.43999999999972,1.0,42.2965719651132,5.0,7.0,10.04987562112089,11.045361017187261,13.0,25.019992006393608,18.027756377319946,18.0,16.0,21.0,5.5,6.5,1.5,0.5,4.0,5.0990195135927845,5.0,14.0,13.0,13.0
440,65,537,0,21.47999999999972,1.0,42.190046219457976,5.0,8.0,9.219544457292887,10.04987562112089,12.0,25.019992006393608,17.029386365926403,17.0,16.0,20.0,6.0,7.0,2.0,0.0,5.0990195135927845,6.0,5.5,15.0,12.0,13.0
441,65,538,0,21.51999999999972,1.0,44.28317965096906,6.0,8.0,10.04987562112089,11.180339887498949,12.0,26.019223662515376,18.027756377319946,18.0,16.0,21.0,6.5,7.5,1.5,0.5,5.0990195135927845,6.0,6.0,15.0,12.0,13.038404810405298
442,65,539,0,21.55999999999972,1.0,42.2965719651132,6.0,8.06225774829855,10.04987562112089,11.180339887498949,12.041594578792296,26.019223662515376,18.0,18.0,16.0,21.0,6.5,7.5,1.5,0.5,6.082762530298219,6.0,5.5,15.0,12.0,14.035668847618199
443,65,540,0,21.59999999999972,0.0,43.289721643826724,6.0,8.06225774829855,10.198039027185569,11.045361017187261,12.041594578792296,26.076809620810597,18.027756377319946,18.0,16.0,21.0,6.5,7.5,2.5,0.5,6.082762530298219,6.0,6.0,16.0,13.0,14.0
444,65,541,0,21.63999999999972,1.0,43.18564576337837,6.0,8.06225774829855,10.04987562112089,12.041594578792296,12.0,26.076809620810597,18.027756377319946,18.0,17.0,21.0,7.0,7.0,3.0,1.0,5.0990195135927845,6.0,6.0,14.0,11.0,13.038404810405298
445,65,542,0,21.679999999999715,1.0,43.18564576337837,6.0,8.0,11.045361017187261,12.165525060596439,12.0,26.019223662515376,18.027756377319946,18.0,17.0,21.0,7.0,7.0,3.0,1.0,4.123105625617661,5.0990195135927845,5.0,13.0,10.0,14.035668847618199
446,65,543,0,21.719999999999715,0.0,42.2965719651132,5.0,9.055385138137417,11.180339887498949,12.165525060596439,13.0,27.018512172212592,18.0,18.0,17.0,22.0,6.5,7.5,2.5,0.5,5.0,5.0990195135927845,5.0,14.0,11.0,15.033296378372908
447,65,544,0,21.75999999999972,3.0,41.19465984809196,5.0990195135927845,9.0,10.0,11.045361017187261,13.0,30.01666203960727,21.02379604162864,19.5,18.0,22.0,7.0,10.0,0.0,2.0,6.0,6.0,5.5,15.0,12.0,14.035668847618199
448,65,545,0,21.79999999999972,4.123105625617661,42.1070065428546,6.0,10.0,10.04987562112089,12.165525060596439,13.0,33.015148038438355,23.021728866442675,21.0,20.0,23.0,8.5,11.5,0.5,2.5,6.082762530298219,6.0,5.5,15.0,13.0,13.038404810405298
449,65,546,0,21.839999999999712,7.0,44.181444068749045,6.0,10.04987562112089,11.045361017187261,12.041594578792296,11.0,34.0147027033899,24.0,20.5,19.0,23.0,10.0,13.0,2.0,4.0,6.082762530298219,7.0,6.5,15.0,13.0,15.0
450,65,547,0,21.87999999999971,8.0,43.18564576337837,6.0,10.04987562112089,11.0,12.041594578792296,11.045361017187261,35.0,25.019992006393608,21.0,19.0,23.0,10.0,14.0,3.0,4.0,6.082762530298219,6.0,5.5,15.0,14.0,14.0
451,65,548,0,21.91999999999971,7.0,44.10215414239989,7.0,10.0,10.04987562112089,12.041594578792296,11.0,35.0,25.0,21.5,20.0,23.0,10.5,13.5,1.5,3.5,5.0,6.0,5.5,15.0,14.0,14.0
452,65,549,0,21.95999999999971,8.0,43.104524124504614,6.0,11.0,11.045361017187261,11.045361017187261,11.180339887498949,36.05551275463989,25.079872407968907,21.0,20.0,23.0,10.5,14.5,2.5,3.5,6.082762530298219,7.0,6.5,15.0,14.0,14.0
453,65,550,0,21.99999999999971,8.0,44.10215414239989,5.0,11.0,12.0,12.041594578792296,12.041594578792296,36.013886210738214,25.019992006393608,21.0,20.0,23.0,9.5,14.5,2.5,4.5,6.0,6.0,5.5,15.0,14.0,13.0
454,65,551,0,22.039999999999708,9.0,45.09988913511872,5.0,9.0,11.045361017187261,12.165525060596439,12.041594578792296,35.014282800023196,26.019223662515376,21.5,20.0,23.0,9.5,13.5,2.5,3.5,6.0,7.0,7.0,15.0,14.0,14.035668847618199
455,65,552,0,22.079999999999707,7.0710678118654755,44.10215414239989,6.0,10.04987562112089,11.045361017187261,12.041594578792296,12.041594578792296,35.014282800023196,25.079872407968907,21.5,20.0,23.0,9.5,13.5,2.5,3.5,6.082762530298219,6.082762530298219,5.5,14.0,14.0,13.038404810405298
456,65,553,0,22.119999999999703,7.0,44.10215414239989,6.0,11.0,10.04987562112089,12.165525060596439,11.045361017187261,35.014282800023196,24.020824298928627,20.5,19.0,22.0,9.5,14.5,2.5,3.5,6.082762530298219,7.0,6.5,15.0,14.0,15.0
457,65,554,0,22.159999999999705,7.0,43.104524124504614,6.0,10.0,11.0,11.045361017187261,11.045361017187261,34.0147027033899,24.020824298928627,20.5,19.0,22.0,9.5,13.5,1.5,3.5,6.082762530298219,7.0,7.0,14.0,14.0,14.0
458,65,555,0,22.199999999999704,7.0,43.104524124504614,6.0,10.0,10.0,11.045361017187261,11.045361017187261,34.0147027033899,24.020824298928627,20.5,19.0,22.0,9.5,13.5,1.5,3.5,5.0,6.0,6.0,15.0,15.0,16.0312195418814
459,65,556,0,22.239999999999704,7.0710678118654755,44.04543109109048,6.0,10.0,11.0,12.041594578792296,11.045361017187261,34.058772731852805,24.08318915758459,20.5,20.0,22.0,10.0,13.0,2.0,4.0,6.0,6.0,5.5,14.0,14.0,15.033296378372908
460,65,557,0,22.279999999999703,5.0,44.10215414239989,6.0,10.0,11.045361017187261,11.045361017187261,12.041594578792296,33.015148038438355,23.021728866442675,20.5,20.0,23.0,9.5,11.5,0.5,3.5,6.0,6.0,5.5,14.0,13.0,14.035668847618199
461,65,558,0,22.319999999999705,4.0,40.11234224026316,5.0,9.0,10.04987562112089,10.04987562112089,12.0,30.0,21.0,19.0,19.0,22.0,8.5,9.5,0.5,3.5,5.0,6.0,5.5,16.0,15.0,16.0312195418814
462,65,559,0,22.3599999999997,1.4142135623730951,39.20459156782532,5.0,8.0,9.0,10.04987562112089,12.041594578792296,26.0,18.0,17.5,17.0,21.0,7.0,7.0,2.0,2.0,5.0,6.0,5.5,15.0,14.0,16.0312195418814
463,65,560,0,22.3999999999997,1.0,39.319206502675,6.0,9.0,10.04987562112089,10.04987562112089,11.0,26.019223662515376,17.029386365926403,17.0,16.0,21.0,7.5,7.5,2.5,1.5,6.082762530298219,6.0,6.0,16.0,16.0,18.0
464,65,561,0,22.4399999999997,1.4142135623730951,40.11234224026316,6.0,10.0,10.04987562112089,10.04987562112089,11.0,28.0178514522438,18.027756377319946,17.5,18.0,21.0,8.5,8.5,2.5,2.5,5.0990195135927845,5.0,5.0,17.0,16.0,20.0
465,65,562,0,22.4799999999997,3.1622776601683795,40.311288741492746,5.0,10.0,10.04987562112089,11.180339887498949,11.0,29.017236257093817,19.026297590440446,17.5,15.0,20.0,6.5,11.5,0.5,1.5,4.0,5.0990195135927845,4.5,16.0,14.0,18.0
466,65,563,0,22.519999999999698,4.0,41.19465984809196,5.0,9.055385138137417,10.04987562112089,12.165525060596439,12.0,30.01666203960727,21.0,19.0,17.0,21.0,7.0,11.0,1.0,2.0,5.0990195135927845,5.0,5.5,16.0,14.0,18.0
467,65,564,0,22.559999999999697,6.0,41.19465984809196,6.0,9.0,11.045361017187261,12.165525060596439,11.045361017187261,32.01562118716424,23.021728866442675,20.0,17.0,21.0,8.0,13.0,2.0,2.0,4.123105625617661,5.0,4.5,16.0,14.0,17.0
468,65,565,0,22.599999999999696,5.0,40.311288741492746,5.0,8.06225774829855,10.04987562112089,10.04987562112089,13.038404810405298,31.0,23.021728866442675,20.5,16.0,21.0,5.5,12.5,2.5,0.5,4.47213595499958,5.0,4.5,19.0,12.0,16.1245154965971
469,65,566,0,22.63999999999969,0.0,39.20459156782532,6.0,9.055385138137417,9.055385138137417,10.198039027185569,13.0,28.0178514522438,19.0,19.0,17.0,21.0,6.0,9.0,1.0,0.0,5.0990195135927845,5.0990195135927845,5.0,17.0,12.0,16.0312195418814
470,65,567,0,22.67999999999969,0.0,39.319206502675,6.0,10.04987562112089,11.045361017187261,11.180339887498949,13.0,29.017236257093817,19.0,19.0,17.0,22.0,6.5,9.5,1.5,0.5,4.123105625617661,5.0,4.5,16.0,13.0,17.029386365926403
471,65,568,0,22.719999999999693,1.0,39.20459156782532,6.0,9.055385138137417,10.04987562112089,11.180339887498949,12.041594578792296,28.071337695236398,19.026297590440446,18.5,18.0,22.0,8.0,8.0,3.0,2.0,5.0990195135927845,6.0,5.5,15.0,13.0,17.0
472,65,569,0,22.75999999999969,2.23606797749979,39.319206502675,5.0,10.04987562112089,10.198039027185569,10.198039027185569,12.0,29.068883707497267,19.026297590440446,18.0,17.0,22.0,7.5,9.5,2.5,1.5,5.0990195135927845,6.0,5.5,15.0,13.0,18.0
473,65,570,0,22.79999999999969,1.0,40.311288741492746,6.0,10.04987562112089,10.198039027185569,11.045361017187261,11.045361017187261,28.071337695236398,18.027756377319946,17.5,17.0,22.0,8.5,8.5,3.5,1.5,6.0,6.0,5.5,15.0,13.0,19.0
474,65,571,0,22.83999999999969,2.23606797749979,37.33630940518894,4.0,7.0,9.219544457292887,9.219544457292887,12.0,25.019992006393608,18.027756377319946,17.0,17.0,22.0,7.5,5.5,3.5,2.5,6.0,6.0,6.0,14.0,13.0,15.0
475,65,572,0,22.87999999999969,1.0,40.11234224026316,6.0,10.04987562112089,10.198039027185569,11.045361017187261,10.0,27.018512172212592,17.0,16.5,18.0,21.0,9.5,7.5,3.5,2.5,6.082762530298219,6.0,5.5,16.0,14.0,19.026297590440446
476,65,573,0,22.91999999999969,1.0,39.05124837953327,6.0,11.045361017187261,10.04987562112089,12.041594578792296,10.0,28.0178514522438,17.0,16.5,18.0,20.0,9.0,9.0,3.0,3.0,6.082762530298219,6.0,6.0,15.0,14.0,18.0
477,65,574,0,22.959999999999688,2.0,38.118237105091836,7.0,10.04987562112089,10.04987562112089,11.180339887498949,10.04987562112089,29.0,19.026297590440446,18.0,18.0,21.0,9.5,9.5,1.5,2.5,6.082762530298219,7.0,6.5,15.0,15.0,16.0
478,65,575,0,22.999999999999687,3.1622776601683795,39.05124837953327,7.0,10.0,10.04987562112089,11.045361017187261,11.045361017187261,31.0,21.0,19.5,19.0,21.0,9.0,11.0,0.0,2.0,7.0710678118654755,8.0,7.5,15.0,14.0,18.0
479,65,576,0,23.039999999999687,4.0,40.049968789001575,6.0,9.055385138137417,11.045361017187261,11.045361017187261,11.0,30.01666203960727,21.0,19.0,20.0,22.0,10.0,9.0,1.0,4.0,7.0710678118654755,8.0,7.5,15.0,14.0,19.026297590440446
480,65,577,0,23.07999999999969,2.0,42.01190307520001,7.0710678118654755,11.0,11.045361017187261,12.0,10.04987562112089,30.0,19.0,18.0,20.0,21.0,10.5,9.5,2.5,3.5,7.0710678118654755,8.06225774829855,7.5,15.0,15.0,18.027756377319946
481,65,578,0,23.119999999999685,1.0,39.01281840626232,7.0,9.055385138137417,11.0,11.0,9.0,26.019223662515376,17.0,16.5,19.0,20.0,10.5,6.5,3.5,4.5,8.06225774829855,8.06225774829855,7.5,16.0,15.0,18.0
482,65,579,0,23.159999999999684,2.23606797749979,40.01249804748511,6.0,10.0,11.0,11.0,9.0,27.018512172212592,17.029386365926403,16.0,19.0,20.0,10.5,7.5,3.5,4.5,7.0,8.0,7.5,16.0,15.0,19.026297590440446
483,65,580,0,23.199999999999683,2.0,40.01249804748511,6.0,9.055385138137417,10.0,11.0,10.0,27.018512172212592,18.0,17.0,19.0,20.0,9.5,7.5,2.5,3.5,7.0,8.0,7.5,16.0,14.0,17.029386365926403
484,65,581,0,23.23999999999968,1.0,40.049968789001575,6.082762530298219,10.04987562112089,11.0,11.045361017187261,11.0,28.071337695236398,18.027756377319946,17.5,19.0,21.0,9.0,8.0,3.0,3.0,7.0710678118654755,8.0,7.5,16.0,14.0,17.029386365926403
485,65,582,0,23.27999999999968,4.123105625617661,42.04759208325728,5.0990195135927845,8.06225774829855,11.045361017187261,12.041594578792296,12.041594578792296,29.0,21.02379604162864,19.0,20.0,22.0,9.0,8.0,1.0,4.0,7.0710678118654755,8.0,7.5,17.0,14.0,16.0312195418814
486,65,583,0,23.31999999999968,7.0710678118654755,45.044422518220834,5.0,8.0,12.041594578792296,13.038404810405298,11.0,31.016124838541646,23.021728866442675,19.5,20.0,22.0,10.0,10.0,1.0,5.0,8.0,8.06225774829855,7.5,17.0,14.0,18.027756377319946
487,65,584,0,23.35999999999968,5.0,43.0,5.0,7.0,12.0,12.0,12.0,29.0,22.0,19.5,22.0,22.0,10.0,7.0,1.0,5.0,7.0710678118654755,7.0,7.0,17.0,14.0,18.027756377319946
488,65,585,0,23.39999999999968,4.123105625617661,42.0,4.0,5.0990195135927845,10.0,11.0,11.0,24.08318915758459,19.026297590440446,17.0,20.0,20.0,9.0,4.0,2.0,5.0,8.06225774829855,8.0,7.5,18.0,14.0,19.1049731745428
489,65,586,0,23.43999999999968,6.082762530298219,30.0,5.0990195135927845,9.055385138137417,8.06225774829855,8.06225774829855,19.0,39.01281840626232,30.0,27.0,31.0,31.0,12.0,8.0,2.0,6.0,7.0710678118654755,7.0,7.0,18.0,14.0,14.317821063276353
490,65,587,0,23.47999999999968,4.123105625617661,39.05124837953327,4.0,6.082762530298219,9.0,9.055385138137417,12.36931687685298,18.681541692269406,12.649110640673518,14.0,12.0,14.0,1.0,5.0,2.0,2.0,7.0710678118654755,7.0,7.5,19.0,16.0,16.0312195418814
491,65,599,1,23.959999999999667,8.0,47.042533945356304,5.0990195135927845,9.0,12.0,13.0,16.0312195418814,38.05259518088089,29.068883707497267,25.0,20.0,22.0,5.0,17.0,7.0,1.0,8.06225774829855,7.0,7.5,20.0,15.0,18.027756377319946
492,65,600,0,23.999999999999662,11.045361017187261,48.041648597857254,5.0,10.0,11.0,13.0,16.0312195418814,42.04759208325728,32.0624390837628,26.5,20.0,22.0,5.0,21.0,10.0,1.0,7.0710678118654755,8.0,7.5,20.0,16.0,19.026297590440446
493,65,601,0,24.039999999999665,12.0,47.01063709417264,5.0,8.06225774829855,11.0,12.041594578792296,16.1245154965971,41.10960958218893,33.06055050963308,27.0,22.0,23.0,6.5,18.5,8.5,2.5,7.0710678118654755,8.0,7.5,21.0,16.0,18.110770276274835
494,65,609,1,24.35999999999966,3.1622776601683795,42.0,3.0,7.0,8.0,9.0,16.278820596099706,29.068883707497267,22.090722034374522,20.5,20.0,20.0,4.0,9.0,2.0,1.0,7.0710678118654755,7.0,7.0,20.0,14.0,17.11724276862369
495,65,610,0,24.399999999999658,3.1622776601683795,40.01249804748511,4.123105625617661,7.0,9.0,10.0,14.0,28.0,21.0,19.5,19.0,18.0,4.5,9.5,2.5,1.5,7.0,7.0710678118654755,7.0,19.0,16.0,18.027756377319946
496,65,611,0,24.439999999999657,7.0,54.037024344425184,3.1622776601683795,7.0710678118654755,14.035668847618199,16.0,10.198039027185569,27.294688127912362,20.223748416156685,16.5,7.0,9.0,2.0,19.0,10.0,5.0,8.246211251235321,7.0,7.0,21.0,16.0,19.026297590440446
497,65,612,0,24.479999999999656,13.038404810405298,52.3450093132096,5.0,7.0,13.152946437965905,15.297058540778355,10.0,35.014282800023196,28.0178514522438,21.5,17.0,23.0,10.0,15.0,6.0,4.0,8.06225774829855,8.06225774829855,8.0,21.0,16.0,23.08679276123039
498,65,613,0,24.51999999999965,16.0312195418814,53.08483775994799,4.123105625617661,8.06225774829855,15.033296378372908,16.0312195418814,12.041594578792296,40.0,32.01562118716424,24.0,20.0,23.0,9.5,18.5,8.5,5.5,9.055385138137417,8.06225774829855,8.0,19.0,15.0,20.024984394500787
499,65,614,0,24.55999999999965,9.055385138137417,52.23983154643591,4.0,8.0,15.132745950421556,15.132745950421556,13.152946437965905,34.132096331752024,26.1725046566048,21.5,19.0,24.0,8.5,12.5,2.5,3.5,8.06225774829855,8.06225774829855,7.5,19.0,16.0,21.02379604162864
500,65,615,0,24.599999999999653,1.4142135623730951,43.04648650006177,5.0990195135927845,8.0,11.045361017187261,13.038404810405298,13.0,27.0,19.0,18.5,20.0,22.0,8.0,6.0,3.0,3.0,7.0710678118654755,8.06225774829855,7.5,18.0,15.0,19.026297590440446
501,65,616,0,24.63999999999965,0.0,40.049968789001575,5.0,8.0,10.04987562112089,11.045361017187261,13.0,26.0,18.0,18.0,19.0,21.0,7.0,6.0,3.0,2.0,7.0710678118654755,8.0,7.5,18.0,16.0,19.026297590440446
502,65,617,0,24.67999999999965,1.4142135623730951,37.013511046643494,6.0,9.0,10.0,11.045361017187261,12.0,28.0178514522438,19.026297590440446,18.5,20.0,21.0,8.5,7.5,2.5,2.5,7.0710678118654755,8.0,7.5,17.0,16.0,19.026297590440446
503,65,618,0,24.71999999999965,1.4142135623730951,35.0,6.0,9.0,10.0,11.0,12.0,28.0178514522438,19.026297590440446,18.5,21.0,21.0,9.0,7.0,3.0,3.0,7.0,8.06225774829855,7.5,16.0,16.0,19.0
504,65,619,0,24.75999999999965,0.0,38.0,6.0,9.055385138137417,10.0,11.0,13.038404810405298,28.0,19.026297590440446,19.0,21.0,21.0,8.0,7.0,2.0,3.0,7.0,8.0,7.5,16.0,16.0,19.0
505,65,620,0,24.79999999999965,0.0,39.0,7.0,9.055385138137417,10.0,11.045361017187261,11.045361017187261,27.0,18.027756377319946,18.0,20.0,20.0,9.0,7.0,3.0,3.0,7.0710678118654755,8.06225774829855,8.0,16.0,17.0,19.0
506,65,621,0,24.839999999999648,0.0,40.01249804748511,5.0,9.0,9.0,11.0,13.0,27.0,18.0,18.0,21.0,20.0,7.5,6.5,2.5,2.5,5.0990195135927845,5.0990195135927845,5.5,14.0,16.0,20.0
507,65,622,0,24.879999999999647,0.0,41.048751503547585,6.082762530298219,9.0,10.04987562112089,10.04987562112089,12.0,27.018512172212592,18.027756377319946,18.0,22.0,20.0,9.0,6.0,4.0,4.0,6.082762530298219,5.0990195135927845,5.0,14.0,16.0,20.024984394500787
508,65,623,0,24.919999999999646,1.0,42.04759208325728,6.0,9.0,10.04987562112089,10.0,14.035668847618199,28.0178514522438,19.026297590440446,19.5,23.0,21.0,8.0,6.0,3.0,3.0,5.0,6.0,6.0,14.0,17.0,18.027756377319946
509,65,624,0,24.95999999999965,1.4142135623730951,40.11234224026316,6.0,8.0,9.055385138137417,10.0,12.041594578792296,27.073972741361768,19.1049731745428,18.5,22.0,19.0,8.5,6.5,2.5,2.5,5.0,6.0,6.0,14.0,17.0,19.0
510,65,625,0,24.999999999999645,1.0,42.04759208325728,6.082762530298219,7.0,10.0,10.0,14.035668847618199,26.076809620810597,19.1049731745428,19.5,22.0,20.0,7.0,5.0,3.0,2.0,6.082762530298219,6.0,6.0,14.0,17.0,21.02379604162864
511,65,626,0,25.039999999999644,1.0,41.10960958218893,6.0,8.0,10.04987562112089,10.04987562112089,13.038404810405298,26.019223662515376,18.027756377319946,18.5,22.0,19.0,7.5,5.5,2.5,2.5,6.0,5.0990195135927845,5.0,14.0,18.0,19.1049731745428
512,65,627,0,25.079999999999643,1.0,42.1070065428546,6.082762530298219,8.0,10.04987562112089,10.0,13.0,26.019223662515376,18.027756377319946,18.5,22.0,19.0,7.5,5.5,2.5,2.5,4.0,4.0,4.0,14.0,18.0,21.02379604162864
513,65,628,0,25.11999999999964,1.0,43.04648650006177,5.0,8.0,10.0,11.045361017187261,14.035668847618199,26.019223662515376,18.027756377319946,18.5,22.0,20.0,7.0,5.0,3.0,2.0,5.0,5.0,5.0,14.0,18.0,18.110770276274835
514,65,629,0,25.15999999999964,1.0,43.104524124504614,6.082762530298219,7.0,10.04987562112089,11.0,13.0,25.019992006393608,18.027756377319946,18.5,22.0,19.0,7.5,4.5,2.5,2.5,5.0,5.0,5.0,15.0,18.0,19.026297590440446
515,65,630,0,25.19999999999964,1.0,44.04543109109048,6.0,8.0,9.055385138137417,10.0,11.045361017187261,25.079872407968907,17.11724276862369,17.0,19.0,17.0,7.0,7.0,1.0,2.0,5.0,4.0,4.0,14.0,17.0,18.027756377319946
516,65,631,0,25.23999999999964,1.0,47.01063709417264,5.0990195135927845,8.0,11.0,12.0,12.041594578792296,26.076809620810597,18.110770276274835,17.5,19.0,18.0,6.5,7.5,0.5,1.5,5.0990195135927845,5.0,5.0,13.0,16.0,18.027756377319946
517,65,632,0,25.27999999999964,1.0,44.01136216933077,6.0,8.0,11.0,11.0,13.038404810405298,28.0178514522438,20.024984394500787,19.5,21.0,20.0,7.5,7.5,1.5,1.5,5.0,5.0,5.0,15.0,16.0,18.0
518,65,633,0,25.31999999999964,0.0,43.0,6.0,8.06225774829855,10.04987562112089,11.0,13.152946437965905,27.018512172212592,19.1049731745428,19.0,20.0,20.0,7.0,7.0,2.0,2.0,4.123105625617661,5.0,5.0,14.0,17.0,18.0
519,65,634,0,25.35999999999964,1.0,46.010868281309364,6.0,8.06225774829855,11.0,11.045361017187261,13.152946437965905,26.019223662515376,18.110770276274835,18.5,20.0,19.0,6.5,6.5,2.5,1.5,5.0,5.0,5.0,13.0,16.0,19.0
520,65,635,0,25.39999999999964,0.0,45.0111097397076,6.0,8.0,10.04987562112089,11.0,13.038404810405298,27.018512172212592,19.026297590440446,19.0,20.0,19.0,6.5,7.5,1.5,1.5,5.0990195135927845,5.0,5.5,14.0,16.0,19.0
521,65,636,0,25.439999999999635,1.4142135623730951,47.01063709417264,6.0,8.06225774829855,11.0,11.045361017187261,13.038404810405298,28.0178514522438,20.09975124224178,19.5,20.0,19.0,6.5,8.5,0.5,0.5,4.123105625617661,4.0,4.0,14.0,17.0,19.0
522,65,637,0,25.479999999999634,1.0,48.010415536631214,6.0,8.0,12.0,13.0,13.152946437965905,28.071337695236398,20.09975124224178,19.5,19.0,18.0,5.5,9.5,0.5,0.5,5.0990195135927845,5.0,5.0,14.0,16.0,20.0
523,65,638,0,25.51999999999964,1.0,48.041648597857254,6.082762530298219,9.0,12.041594578792296,13.038404810405298,12.041594578792296,28.071337695236398,19.1049731745428,18.5,19.0,17.0,6.0,10.0,1.0,1.0,4.0,4.123105625617661,4.0,15.0,17.0,20.0
524,65,639,0,25.55999999999964,4.123105625617661,49.09175083453431,6.0,9.055385138137417,12.041594578792296,13.038404810405298,11.40175425099138,30.14962686336267,21.37755832643195,19.0,20.0,17.0,7.5,11.5,2.5,2.5,4.0,4.0,4.0,14.0,17.0,22.02271554554524
525,65,640,0,25.599999999999632,6.0,50.039984012787215,5.0,8.0,12.0,13.0,12.36931687685298,31.144823004794873,23.194827009486403,20.0,19.0,17.0,6.0,13.0,4.0,1.0,4.0,4.0,4.0,15.0,18.0,20.024984394500787
526,65,641,0,25.63999999999963,6.0,50.039984012787215,5.0,9.0,12.0,13.0,12.36931687685298,32.14031735997639,23.194827009486403,20.0,20.0,18.0,7.0,13.0,4.0,2.0,4.0,4.0,4.0,14.0,17.0,20.0
527,65,642,0,25.67999999999963,3.0,47.042533945356304,5.0990195135927845,8.0,11.045361017187261,13.038404810405298,12.165525060596439,28.160255680657446,20.223748416156685,18.5,20.0,18.0,7.0,9.0,1.0,3.0,4.0,4.0,4.0,15.0,18.0,22.02271554554524
528,65,643,0,25.71999999999963,2.23606797749979,48.041648597857254,5.0,8.0,11.045361017187261,13.0,12.165525060596439,27.16615541441225,19.235384061671343,18.0,19.0,17.0,6.0,9.0,1.0,2.0,4.0,4.0,4.0,14.0,17.0,19.0
529,65,644,0,25.75999999999963,3.0,49.040799340956916,5.0,9.0,12.0,13.0,11.40175425099138,28.160255680657446,19.235384061671343,17.5,19.0,17.0,7.0,10.0,1.0,2.0,4.123105625617661,4.0,4.0,14.0,17.0,20.024984394500787
530,65,645,0,25.799999999999628,3.0,49.01020301937138,5.0,8.0,12.041594578792296,14.0,12.36931687685298,28.160255680657446,20.223748416156685,18.5,19.0,18.0,6.5,9.5,0.5,2.5,4.0,5.0,5.0,14.0,17.0,21.0
531,65,646,0,25.839999999999627,4.0,49.040799340956916,5.0,9.0,12.041594578792296,13.038404810405298,12.165525060596439,30.066592756745816,21.095023109728988,19.0,20.0,18.0,7.0,11.0,2.0,3.0,4.0,4.0,4.5,15.0,18.0,19.026297590440446
532,65,647,0,25.879999999999622,9.0,49.01020301937138,5.0,9.0,12.0,13.038404810405298,12.165525060596439,35.05709628591621,26.076809620810597,21.5,20.0,19.0,7.5,15.5,5.5,2.5,4.0,4.0,4.5,14.0,17.0,21.0
533,65,648,0,25.919999999999625,15.0,51.03920062069938,4.0,8.0,13.0,15.033296378372908,13.341664064126334,40.11234224026316,32.14031735997639,24.5,23.0,21.0,9.0,18.0,9.0,5.0,5.0,4.0,4.0,14.0,16.0,22.02271554554524
534,65,649,0,25.959999999999624,16.0312195418814,50.08991914547278,5.0,9.0,13.0,14.035668847618199,11.180339887498949,41.10960958218893,32.14031735997639,24.0,23.0,20.0,10.5,19.5,9.5,5.5,4.123105625617661,4.0,4.0,14.0,17.0,19.0
535,65,650,0,25.999999999999623,15.033296378372908,50.039984012787215,5.0,9.0,13.038404810405298,14.0,12.165525060596439,41.10960958218893,32.14031735997639,24.5,23.0,21.0,10.0,19.0,10.0,6.0,4.0,4.0,4.0,12.0,15.0,19.026297590440446
536,65,651,0,26.039999999999623,16.0,51.03920062069938,4.0,9.0,13.0,15.0,13.152946437965905,42.04759208325728,33.06055050963308,25.0,24.0,22.0,10.0,19.0,10.0,6.0,4.0,4.0,4.0,13.0,16.0,17.029386365926403
537,65,652,0,26.07999999999962,16.0,50.08991914547278,5.0,9.0,13.038404810405298,14.035668847618199,12.36931687685298,42.1070065428546,33.13608305156178,25.0,25.0,22.0,11.5,18.5,8.5,7.5,3.0,4.0,4.0,13.0,16.0,17.0
538,65,653,0,26.11999999999962,16.0,50.08991914547278,4.0,9.0,13.0,15.033296378372908,12.165525060596439,41.048751503547585,32.0624390837628,24.0,24.0,21.0,10.5,18.5,9.5,6.5,4.0,4.0,4.0,11.0,16.0,18.0
539,65,654,0,26.15999999999962,14.035668847618199,49.040799340956916,4.0,10.04987562112089,13.0,15.0,12.36931687685298,40.11234224026316,30.265491900843113,23.0,23.0,21.0,10.0,18.0,8.0,6.0,3.0,3.0,3.0,12.0,15.0,19.0
540,65,655,0,26.19999999999962,14.035668847618199,48.041648597857254,5.0,9.0,13.0,14.0,11.180339887498949,39.11521443121589,30.14962686336267,23.0,23.0,21.0,11.0,17.0,7.0,6.0,3.0,3.0,3.0,12.0,16.0,18.027756377319946
541,65,656,0,26.23999999999962,14.0,50.039984012787215,4.0,9.0,14.0,15.0,12.36931687685298,39.11521443121589,30.14962686336267,23.0,23.0,21.0,10.0,17.0,8.0,6.0,4.0,3.0,3.5,12.0,15.0,17.0
542,65,657,0,26.279999999999617,10.0,48.010415536631214,5.0,8.0,13.038404810405298,14.035668847618199,12.165525060596439,35.05709628591621,27.073972741361768,22.0,23.0,22.0,10.5,12.5,3.5,6.5,4.0,4.0,4.0,13.0,16.0,17.0
543,65,658,0,26.319999999999617,7.0,46.010868281309364,6.0,10.0,13.038404810405298,13.038404810405298,11.40175425099138,34.132096331752024,24.186773244895647,20.5,22.0,21.0,10.5,12.5,1.5,5.5,5.0990195135927845,6.0,6.0,17.0,15.0,18.110770276274835
544,65,659,0,26.359999999999616,6.082762530298219,45.044422518220834,6.0,10.0,13.0,13.038404810405298,10.198039027185569,32.14031735997639,22.20360331117452,19.0,22.0,20.0,11.0,11.0,1.0,5.0,6.0,5.0,5.0,15.0,16.0,17.0
545,65,660,0,26.39999999999961,6.0,45.0111097397076,6.0,9.0,12.041594578792296,13.0,10.44030650891055,31.144823004794873,22.20360331117452,19.0,21.0,20.0,10.5,10.5,1.5,5.5,5.0,6.0,6.0,14.0,15.0,18.0
546,65,661,0,26.43999999999961,7.0,44.04543109109048,5.0,9.0,12.0,13.0,11.180339887498949,32.0624390837628,23.08679276123039,19.5,22.0,20.0,10.0,11.0,1.0,5.0,4.0,3.0,3.0,13.0,15.0,17.029386365926403
547,65,662,0,26.479999999999613,5.0990195135927845,44.04543109109048,6.082762530298219,10.0,13.038404810405298,14.035668847618199,10.44030650891055,31.144823004794873,21.213203435596427,18.5,22.0,20.0,11.0,10.0,0.0,6.0,4.0,3.0,3.5,13.0,16.0,18.027756377319946
548,65,663,0,26.51999999999961,5.0990195135927845,43.04648650006177,6.0,9.055385138137417,12.0,13.0,10.198039027185569,30.066592756745816,21.213203435596427,18.5,22.0,20.0,11.0,9.0,0.0,5.0,4.0,4.0,4.0,13.0,16.0,17.029386365926403
549,65,664,0,26.55999999999961,6.082762530298219,44.04543109109048,6.0,9.055385138137417,12.041594578792296,13.0,9.055385138137417,30.01666203960727,21.095023109728988,18.0,21.0,19.0,11.0,10.0,1.0,5.0,4.0,4.0,3.5,13.0,15.0,18.0
550,65,665,0,26.59999999999961,5.0,44.04543109109048,6.0,10.0,12.0,13.0,10.198039027185569,31.064449134018133,21.095023109728988,18.5,22.0,20.0,11.0,10.0,0.0,5.0,4.0,4.123105625617661,4.0,13.0,16.0,19.026297590440446
551,65,666,0,26.63999999999961,6.0,43.04648650006177,6.082762530298219,9.0,11.045361017187261,12.041594578792296,10.04987562112089,31.064449134018133,22.090722034374522,19.0,22.0,20.0,11.0,10.0,1.0,6.0,4.0,4.0,4.0,13.0,16.0,18.027756377319946
