,frame_seq,m1,m3,m4,m5,m6,m7,m8,m9,m10,m11,m12,m13,m14,m15,m16,m17,e1,e2,e3,b1,b2,b3
0,0,1.0,53.0,5.0,9.0,13.038404810405298,15.033296378372908,13.152946437965905,28.071337695236398,19.1049731745428,18.5,12.0,12.0,1.0,16.0,6.0,5.0,9.055385138137417,9.055385138137417,9.0,28.0,25.0,30.01666203960727
1,1,1.0,53.0,5.0,9.0,14.035668847618199,16.0312195418814,13.038404810405298,28.0178514522438,19.026297590440446,18.5,12.0,12.0,1.0,16.0,6.0,5.0,9.055385138137417,9.055385138137417,9.0,26.0,25.0,29.017236257093817
2,2,1.0,52.0,5.0,9.0,14.0,15.033296378372908,13.038404810405298,28.0178514522438,19.026297590440446,18.5,12.0,12.0,1.0,16.0,5.0,5.0,9.055385138137417,9.055385138137417,9.5,28.0,26.0,29.017236257093817
3,3,1.0,53.0,5.0,10.0,14.035668847618199,16.0312195418814,13.038404810405298,29.017236257093817,19.026297590440446,18.5,12.0,12.0,1.0,17.0,6.0,5.0,9.219544457292887,9.0,9.0,27.0,25.0,28.0
4,4,1.0,53.009433122794285,5.0,10.0,15.0,15.0,13.152946437965905,29.068883707497267,19.1049731745428,18.5,13.0,12.0,0.5,16.5,5.5,4.5,9.055385138137417,9.055385138137417,9.0,27.0,25.0,30.066592756745816
5,5,1.0,52.0,5.0,10.0,13.0,15.0,13.152946437965905,29.068883707497267,19.1049731745428,18.5,12.0,12.0,1.0,17.0,6.0,5.0,9.055385138137417,9.0,9.0,26.0,24.0,30.01666203960727
6,6,1.0,53.0,5.0,9.0,13.038404810405298,15.033296378372908,13.152946437965905,28.071337695236398,19.1049731745428,18.5,12.0,12.0,1.0,16.0,5.0,5.0,9.055385138137417,9.055385138137417,9.0,27.0,25.0,28.0178514522438
7,7,1.0,53.0,5.0,9.0,13.038404810405298,15.033296378372908,13.152946437965905,28.071337695236398,19.1049731745428,18.5,12.0,12.0,1.0,16.0,5.0,5.0,9.055385138137417,9.055385138137417,9.0,27.0,25.0,28.0178514522438
8,8,1.0,53.0,5.0,9.0,14.0,15.0,13.152946437965905,28.071337695236398,19.1049731745428,18.5,12.0,12.0,1.0,16.0,5.0,5.0,9.055385138137417,9.055385138137417,9.5,27.0,25.0,29.017236257093817
9,9,1.4142135623730951,52.0,5.0,9.0,15.0,16.0312195418814,14.035668847618199,29.068883707497267,20.09975124224178,19.5,13.0,13.0,1.0,16.0,5.0,5.0,9.055385138137417,9.055385138137417,9.5,27.0,25.0,30.01666203960727
10,10,1.4142135623730951,53.0,5.0,9.0,16.0312195418814,17.0,14.035668847618199,29.068883707497267,20.09975124224178,19.5,13.0,13.0,1.0,16.0,5.0,5.0,9.055385138137417,9.055385138137417,9.0,26.0,25.0,29.017236257093817
11,11,2.0,52.0,5.0990195135927845,9.0,15.0,15.033296378372908,13.038404810405298,29.068883707497267,20.09975124224178,19.0,13.0,13.0,0.0,16.0,5.0,4.0,9.055385138137417,9.055385138137417,9.0,27.0,25.0,29.0
12,12,2.0,52.0,5.0,9.0,15.0,16.0,13.038404810405298,29.017236257093817,20.024984394500787,19.0,13.0,13.0,0.0,16.0,5.0,4.0,9.055385138137417,9.055385138137417,9.0,26.0,25.0,29.0
13,13,2.0,52.009614495783374,5.0,9.0,15.0,16.0,13.152946437965905,29.068883707497267,20.09975124224178,19.0,13.0,12.0,0.5,16.5,5.5,4.5,10.198039027185569,10.04987562112089,10.0,27.0,25.0,29.068883707497267
14,14,1.0,52.0,5.0,10.0,15.033296378372908,15.0,13.152946437965905,29.068883707497267,19.1049731745428,18.5,13.0,13.0,0.0,16.0,5.0,5.0,9.055385138137417,9.055385138137417,9.5,27.0,25.0,29.017236257093817
15,15,2.0,52.0,5.0,9.0,14.0,16.0,13.038404810405298,29.017236257093817,20.024984394500787,19.0,13.0,13.0,0.0,16.0,5.0,4.0,9.219544457292887,9.055385138137417,9.5,27.0,25.0,30.066592756745816
16,16,1.0,52.0,5.0,10.0,14.0,14.0,13.152946437965905,29.068883707497267,19.1049731745428,18.5,13.0,13.0,0.0,16.0,5.0,4.0,9.219544457292887,10.04987562112089,10.0,27.0,25.0,30.0
17,17,1.0,53.0,5.0,10.0,15.0,16.0,13.152946437965905,29.068883707497267,19.1049731745428,18.5,13.0,13.0,0.0,16.0,5.0,4.0,9.219544457292887,10.04987562112089,10.0,27.0,25.0,29.017236257093817
18,18,1.0,52.0,5.0,10.0,14.0,16.0,13.038404810405298,29.017236257093817,19.026297590440446,18.5,13.0,13.0,0.0,16.0,5.0,4.0,9.219544457292887,10.04987562112089,10.0,26.0,25.0,29.017236257093817
19,19,1.4142135623730951,52.0,5.0,10.0,14.0,15.033296378372908,13.038404810405298,29.068883707497267,19.1049731745428,18.5,13.0,13.0,0.0,16.0,5.0,4.0,9.219544457292887,9.055385138137417,9.0,26.0,26.0,29.017236257093817
20,20,1.0,52.0,4.0,10.0,15.0,15.0,14.142135623730951,29.068883707497267,19.1049731745428,18.5,13.0,13.0,1.0,16.0,5.0,4.0,9.055385138137417,9.055385138137417,9.5,27.0,25.0,29.017236257093817
21,21,1.4142135623730951,54.00925846556311,4.0,10.0,15.0,15.0,14.035668847618199,29.068883707497267,19.1049731745428,18.5,13.0,12.0,1.5,16.5,5.5,4.5,9.055385138137417,10.04987562112089,10.0,26.0,25.0,28.0178514522438
22,22,1.0,51.0,5.0,10.0,14.035668847618199,16.0312195418814,14.035668847618199,30.01666203960727,20.024984394500787,19.5,14.0,14.0,0.0,16.0,4.0,4.0,7.0710678118654755,6.082762530298219,6.5,27.0,24.0,30.066592756745816
23,23,2.0,52.009614495783374,4.0,10.0,14.035668847618199,15.0,14.142135623730951,30.066592756745816,20.09975124224178,19.0,15.0,14.0,0.5,15.5,4.5,3.5,3.1622776601683795,3.1622776601683795,3.0,27.0,25.0,31.016124838541646
24,24,5.0990195135927845,53.009433122794285,4.0,9.0,13.0,14.0,15.033296378372908,33.0,24.0,21.5,16.0,17.0,1.5,16.5,6.5,1.5,4.123105625617661,5.0,5.0,28.0,25.0,30.066592756745816
25,25,9.055385138137417,53.03772242470448,4.0,9.0,13.038404810405298,15.033296378372908,15.033296378372908,37.0,28.0,23.5,18.0,20.0,4.0,18.0,8.0,1.0,7.0710678118654755,6.0,6.5,28.0,25.0,31.064449134018133
26,26,9.055385138137417,54.037024344425184,4.0,9.0,14.035668847618199,14.035668847618199,14.0,36.013886210738214,27.018512172212592,22.5,17.0,19.0,4.0,18.0,7.0,0.0,7.0710678118654755,7.0,7.0,28.0,24.0,30.066592756745816
27,27,11.0,53.009433122794285,3.0,8.06225774829855,15.033296378372908,16.0312195418814,15.0,37.013511046643494,29.0,23.5,19.0,20.0,4.5,17.5,7.5,1.5,7.0710678118654755,7.0,7.0,28.0,24.0,30.066592756745816
28,28,10.0,53.0,4.123105625617661,9.055385138137417,15.033296378372908,16.0312195418814,14.035668847618199,37.013511046643494,28.0,23.0,18.0,18.0,4.0,19.0,8.0,1.0,8.06225774829855,8.0,8.0,27.0,24.0,29.068883707497267
29,29,12.0,54.00925846556311,4.0,9.0,14.035668847618199,15.033296378372908,14.0,39.0,30.0,24.0,17.0,18.0,3.5,21.5,10.5,0.5,9.055385138137417,9.055385138137417,9.0,27.0,25.0,29.017236257093817
30,30,14.0,55.036351623268054,4.0,9.0,14.0,15.033296378372908,14.0,41.0,32.0,25.0,16.0,18.0,3.0,24.0,13.0,0.0,9.055385138137417,9.055385138137417,8.5,27.0,25.0,31.016124838541646
31,31,14.0,55.00909015790027,4.0,9.0,14.0,16.0312195418814,14.0,41.0,32.0,25.0,17.0,18.0,3.5,23.5,12.5,0.5,8.06225774829855,8.06225774829855,8.0,27.0,25.0,29.017236257093817
32,32,11.0,54.147945482723536,5.0990195135927845,10.04987562112089,14.142135623730951,16.1245154965971,14.0,40.049968789001575,30.01666203960727,24.5,16.0,20.0,4.0,22.0,9.0,1.0,8.06225774829855,9.055385138137417,8.5,28.0,25.0,30.01666203960727
33,33,15.0,54.147945482723536,4.123105625617661,10.04987562112089,14.035668847618199,16.1245154965971,14.0,43.04648650006177,33.015148038438355,25.5,16.0,20.0,4.0,25.0,13.0,0.0,8.06225774829855,8.0,8.5,28.0,24.0,29.068883707497267
34,34,14.0,55.14526271584895,4.123105625617661,10.04987562112089,14.035668847618199,16.0312195418814,15.0,43.04648650006177,33.015148038438355,26.0,16.0,20.0,3.0,25.0,13.0,0.0,9.219544457292887,8.0,8.5,28.0,24.0,28.071337695236398
35,35,2.23606797749979,58.309518948453004,6.0,12.0,14.035668847618199,16.1245154965971,14.0,34.0147027033899,22.02271554554524,21.0,12.0,18.0,1.0,19.0,6.0,5.0,9.055385138137417,9.055385138137417,9.5,27.0,24.0,27.018512172212592
36,36,2.23606797749979,58.309518948453004,6.0,12.0,14.035668847618199,16.1245154965971,14.0,34.0147027033899,22.02271554554524,21.0,12.0,18.0,1.0,19.0,6.0,5.0,9.055385138137417,9.055385138137417,9.5,27.0,24.0,27.018512172212592
37,37,7.0,57.21887800367987,4.123105625617661,10.0,14.035668847618199,16.0312195418814,13.0,34.0147027033899,24.020824298928627,20.5,12.0,17.0,1.5,19.5,8.5,2.5,9.219544457292887,9.055385138137417,9.5,27.0,24.0,29.017236257093817
38,38,15.0,56.0357029044876,4.0,8.06225774829855,14.035668847618199,16.1245154965971,13.0,40.01249804748511,32.0,24.5,16.0,18.0,4.0,23.0,13.0,1.0,9.055385138137417,9.0,9.5,27.0,25.0,28.0178514522438
39,39,12.041594578792296,57.07889277132134,4.0,9.0,15.033296378372908,17.11724276862369,14.0,39.01281840626232,30.01666203960727,24.0,14.0,17.0,1.5,23.5,12.5,1.5,9.055385138137417,9.0,9.5,26.0,24.0,28.0178514522438
40,40,13.0,56.0357029044876,4.0,9.055385138137417,15.033296378372908,16.1245154965971,13.0,39.01281840626232,30.0,23.5,15.0,17.0,3.0,23.0,12.0,0.0,9.219544457292887,9.0,9.5,27.0,24.0,28.0178514522438
41,41,14.0,55.036351623268054,3.1622776601683795,8.06225774829855,14.035668847618199,16.1245154965971,13.0,38.05259518088089,30.01666203960727,23.0,14.0,16.0,2.0,23.0,13.0,0.0,8.246211251235321,9.0,9.5,27.0,24.0,28.0178514522438
42,42,11.0,59.21148537234985,4.123105625617661,11.0,15.033296378372908,16.1245154965971,13.038404810405298,39.05124837953327,28.071337695236398,22.5,12.0,17.0,1.5,24.5,11.5,2.5,9.055385138137417,9.055385138137417,9.5,27.0,24.0,28.0
43,43,10.04987562112089,55.14526271584895,3.0,8.06225774829855,14.035668847618199,16.1245154965971,13.038404810405298,34.0147027033899,26.0,21.0,13.0,17.0,2.0,19.0,9.0,1.0,9.055385138137417,9.055385138137417,9.0,27.0,24.0,29.017236257093817
44,44,12.041594578792296,57.0350769263968,4.0,9.0,15.033296378372908,17.029386365926403,13.0,38.01315561749642,29.017236257093817,23.0,14.0,16.0,2.0,23.0,12.0,1.0,6.082762530298219,6.0,6.5,27.0,24.0,30.01666203960727
45,45,12.041594578792296,56.0357029044876,4.0,8.0,15.033296378372908,16.0312195418814,13.0,37.013511046643494,29.017236257093817,23.0,14.0,16.0,2.0,22.0,12.0,1.0,3.1622776601683795,4.0,4.0,28.0,26.0,29.017236257093817
46,46,12.041594578792296,56.0357029044876,4.0,8.0,15.033296378372908,16.0312195418814,13.0,37.013511046643494,29.017236257093817,23.0,14.0,16.0,2.0,22.0,12.0,1.0,3.1622776601683795,4.0,4.0,28.0,26.0,29.017236257093817
47,47,11.045361017187261,56.142675390472796,4.0,9.0,14.142135623730951,15.132745950421556,14.0,38.01315561749642,29.017236257093817,23.5,14.0,18.0,2.0,22.0,11.0,2.0,4.123105625617661,4.0,4.0,27.0,24.0,30.066592756745816
48,48,13.038404810405298,55.00909015790027,3.0,8.0,15.033296378372908,16.0312195418814,15.033296378372908,39.0,31.0,24.5,18.0,19.0,3.5,20.5,10.5,0.5,6.082762530298219,5.0,5.5,26.0,25.0,29.0
49,49,13.0,54.0,4.0,9.0,15.0,15.033296378372908,14.035668847618199,40.01249804748511,31.016124838541646,24.5,19.0,19.0,5.0,21.0,10.0,2.0,7.0,6.0,6.5,26.0,25.0,30.01666203960727
50,50,12.0,53.009433122794285,4.0,9.0,13.038404810405298,15.033296378372908,14.035668847618199,39.01281840626232,30.01666203960727,24.0,19.0,20.0,5.5,19.5,9.5,1.5,8.06225774829855,8.06225774829855,7.5,25.0,26.0,30.0
51,51,12.041594578792296,52.009614495783374,4.0,9.0,14.035668847618199,15.0,14.035668847618199,39.0,30.0,24.0,19.0,20.0,5.5,19.5,9.5,1.5,7.0710678118654755,7.0710678118654755,7.5,24.0,24.0,30.0
52,52,13.0,52.0,4.0,8.06225774829855,13.0,15.0,15.033296378372908,40.049968789001575,32.01562118716424,25.5,20.0,20.0,5.0,20.0,10.0,2.0,7.0710678118654755,7.0710678118654755,7.5,25.0,26.0,29.017236257093817
53,53,11.0,51.0098029794274,5.0,9.055385138137417,13.0,15.0,14.035668847618199,39.05124837953327,30.01666203960727,24.5,21.0,20.0,6.5,18.5,8.5,2.5,8.0,8.06225774829855,8.0,25.0,27.0,29.0
54,54,6.0,50.039984012787215,5.0990195135927845,9.0,12.0,13.0,16.0312195418814,36.05551275463989,27.073972741361768,24.0,23.0,21.0,6.0,14.0,4.0,2.0,8.06225774829855,9.219544457292887,9.0,24.0,28.0,29.017236257093817
55,55,4.0,50.039984012787215,5.0990195135927845,7.0,13.0,13.0,17.029386365926403,33.06055050963308,26.076809620810597,24.0,23.0,21.0,5.0,11.0,3.0,1.0,9.055385138137417,9.055385138137417,9.0,24.0,28.0,29.017236257093817
56,56,4.0,50.039984012787215,5.0990195135927845,7.0,13.0,13.0,17.029386365926403,33.06055050963308,26.076809620810597,24.0,23.0,21.0,5.0,11.0,3.0,1.0,9.055385138137417,9.055385138137417,9.0,24.0,28.0,29.017236257093817
57,57,3.0,50.039984012787215,5.0,8.06225774829855,13.0,14.035668847618199,17.029386365926403,33.06055050963308,25.019992006393608,23.5,23.0,21.0,5.0,11.0,2.0,1.0,9.0,8.06225774829855,8.0,23.0,27.0,29.017236257093817
58,58,12.0,54.00925846556311,5.0990195135927845,9.0,14.0,15.033296378372908,16.0312195418814,42.04759208325728,33.06055050963308,27.0,23.0,22.0,6.5,19.5,9.5,2.5,9.055385138137417,9.055385138137417,9.0,24.0,27.0,30.01666203960727
59,59,16.0,54.00925846556311,4.0,9.0,14.035668847618199,15.0,15.132745950421556,44.04543109109048,35.05709628591621,27.0,22.0,21.0,6.5,22.5,12.5,2.5,8.06225774829855,8.06225774829855,8.5,25.0,28.0,30.01666203960727
60,60,18.0,55.00909015790027,4.0,9.0,14.0,16.0312195418814,15.033296378372908,46.010868281309364,37.013511046643494,28.0,23.0,22.0,7.5,23.5,13.5,4.5,9.0,9.055385138137417,9.0,25.0,28.0,31.016124838541646
61,61,18.0,55.00909015790027,4.0,9.0,14.0,16.0312195418814,15.033296378372908,46.010868281309364,37.013511046643494,28.0,23.0,22.0,7.5,23.5,13.5,4.5,9.0,9.055385138137417,9.0,25.0,28.0,31.016124838541646
62,62,18.0,54.00925846556311,3.0,9.0,14.0,16.0,15.033296378372908,45.0111097397076,36.013886210738214,27.0,22.0,21.0,6.5,23.5,13.5,4.5,9.055385138137417,9.219544457292887,9.5,25.0,27.0,30.01666203960727
63,63,5.0990195135927845,52.0,5.0990195135927845,9.055385138137417,13.038404810405298,15.0,16.0312195418814,35.05709628591621,26.019223662515376,23.5,20.0,20.0,4.0,15.0,5.0,1.0,9.0,9.055385138137417,9.0,25.0,27.0,29.017236257093817
64,64,4.0,51.0,5.0,9.055385138137417,14.0,14.0,15.132745950421556,33.13608305156178,24.08318915758459,22.0,19.0,19.0,4.0,14.0,4.0,0.0,10.04987562112089,9.219544457292887,9.0,26.0,28.0,29.017236257093817
65,65,11.0,52.009614495783374,3.0,9.0,14.035668847618199,16.0,14.142135623730951,37.05401462729781,28.071337695236398,22.5,19.0,18.0,4.5,18.5,8.5,1.5,9.0,9.055385138137417,9.0,26.0,27.0,30.01666203960727
66,66,11.0,52.009614495783374,3.0,9.0,14.035668847618199,16.0,14.142135623730951,37.05401462729781,28.071337695236398,22.5,19.0,18.0,4.5,18.5,8.5,1.5,9.0,9.055385138137417,9.0,26.0,27.0,30.01666203960727
67,67,5.0,49.0,5.0,9.0,13.0,14.0,15.033296378372908,34.0147027033899,25.019992006393608,22.5,19.0,19.0,4.0,15.0,5.0,0.0,10.04987562112089,10.04987562112089,9.5,25.0,26.0,29.017236257093817
68,68,1.0,50.0,5.0,9.0,13.0,14.0,15.033296378372908,30.01666203960727,21.02379604162864,20.5,18.0,18.0,3.0,12.0,1.0,1.0,9.055385138137417,10.04987562112089,10.0,26.0,27.0,28.0
69,69,2.0,52.009614495783374,6.0,9.0,14.035668847618199,15.033296378372908,15.033296378372908,32.01562118716424,23.021728866442675,22.0,18.0,19.0,3.5,13.5,3.5,1.5,9.055385138137417,9.055385138137417,9.0,26.0,26.0,29.0
70,70,8.0,52.009614495783374,5.0,11.0,14.035668847618199,15.0,16.0312195418814,40.01249804748511,29.017236257093817,25.0,19.0,20.0,3.5,20.5,7.5,1.5,9.055385138137417,9.055385138137417,9.0,25.0,26.0,29.0
71,71,8.0,52.009614495783374,5.0,11.0,14.0,15.033296378372908,16.0312195418814,40.01249804748511,29.017236257093817,25.0,19.0,20.0,3.5,20.5,7.5,0.5,9.055385138137417,10.04987562112089,10.0,25.0,26.0,29.0
72,72,8.0,52.03844732503075,5.0,11.0,14.035668847618199,15.033296378372908,16.0,40.0,29.0,25.0,19.0,21.0,4.0,20.0,8.0,1.0,9.055385138137417,10.198039027185569,10.0,26.0,27.0,30.01666203960727
73,73,5.0990195135927845,50.00999900019995,5.0,12.0,14.035668847618199,15.0,16.0312195418814,38.0,26.0,23.5,20.0,21.0,4.5,17.5,4.5,0.5,10.04987562112089,10.198039027185569,10.0,25.0,25.0,29.017236257093817
74,74,3.0,50.00999900019995,5.0,10.0,15.033296378372908,15.0,16.0,34.0,24.0,22.5,20.0,21.0,4.5,13.5,1.5,0.5,9.055385138137417,10.04987562112089,10.0,26.0,26.0,29.017236257093817
75,75,3.0,51.0098029794274,6.0,12.0,14.0,15.033296378372908,15.033296378372908,36.013886210738214,24.020824298928627,22.5,19.0,20.0,4.5,16.5,3.5,0.5,10.04987562112089,9.055385138137417,9.5,26.0,26.0,29.017236257093817
76,76,4.0,50.00999900019995,5.0,11.0,14.035668847618199,15.033296378372908,15.033296378372908,35.014282800023196,24.020824298928627,22.0,19.0,20.0,4.5,15.5,3.5,0.5,10.198039027185569,9.055385138137417,9.5,25.0,26.0,29.017236257093817
77,77,11.045361017187261,51.0098029794274,4.0,10.0,13.0,15.033296378372908,14.035668847618199,39.0,29.0,23.5,19.0,20.0,5.5,19.5,8.5,2.5,5.0,5.0,5.0,26.0,27.0,30.01666203960727
78,78,8.06225774829855,50.00999900019995,4.0,11.0,13.038404810405298,14.035668847618199,14.035668847618199,37.0,26.0,22.0,20.0,21.0,6.5,16.5,4.5,3.5,3.0,3.0,3.0,26.0,28.0,30.0
79,79,8.06225774829855,50.00999900019995,4.0,11.0,13.038404810405298,14.035668847618199,14.035668847618199,37.0,26.0,22.0,20.0,21.0,6.5,16.5,4.5,3.5,3.0,3.0,3.0,26.0,28.0,30.0
80,80,1.0,48.0,5.0,9.0,12.041594578792296,13.038404810405298,14.035668847618199,29.017236257093817,20.024984394500787,19.5,20.0,20.0,6.0,9.0,1.0,1.0,6.082762530298219,5.0990195135927845,5.5,27.0,28.0,30.0
81,81,1.0,47.01063709417264,6.0,9.0,12.0,13.0,15.132745950421556,30.01666203960727,21.02379604162864,21.0,20.0,21.0,5.5,9.5,0.5,0.5,7.0710678118654755,8.06225774829855,7.5,28.0,29.0,31.0
82,82,2.0,47.0,6.0,10.0,12.041594578792296,13.0,15.033296378372908,33.015148038438355,23.021728866442675,22.0,21.0,21.0,6.0,12.0,1.0,0.0,9.0,9.055385138137417,9.0,27.0,29.0,30.0
83,83,1.4142135623730951,47.0,5.0,9.0,12.041594578792296,12.041594578792296,16.0312195418814,31.0,22.0,21.5,22.0,22.0,6.0,9.0,1.0,1.0,10.0,9.055385138137417,9.0,28.0,30.0,30.0
84,84,1.4142135623730951,47.0,5.0,9.0,12.041594578792296,12.0,16.0312195418814,31.0,22.0,21.5,22.0,22.0,6.0,9.0,1.0,1.0,9.0,10.04987562112089,10.0,27.0,29.0,30.01666203960727
85,85,0.0,48.0,5.0,9.0,12.041594578792296,13.038404810405298,16.0,30.0,21.0,21.0,21.0,21.0,5.0,9.0,1.0,0.0,10.04987562112089,10.04987562112089,10.0,28.0,30.0,30.01666203960727
86,86,1.4142135623730951,47.01063709417264,6.0,9.055385138137417,12.0,13.0,16.0312195418814,32.01562118716424,23.0,22.5,21.0,22.0,5.5,10.5,0.5,0.5,10.04987562112089,10.04987562112089,10.0,27.0,29.0,30.01666203960727
87,87,6.0,49.0,4.0,10.0,13.038404810405298,14.0,17.029386365926403,37.013511046643494,27.018512172212592,24.0,22.0,22.0,5.0,15.0,4.0,1.0,10.04987562112089,11.045361017187261,11.0,28.0,30.0,30.01666203960727
88,88,6.0,49.0,4.0,9.0,12.0,13.0,17.029386365926403,36.013886210738214,27.018512172212592,24.0,21.0,21.0,4.0,15.0,4.0,1.0,10.04987562112089,10.04987562112089,10.0,27.0,29.0,31.0
89,89,5.0,49.0,4.0,9.0,12.0,14.035668847618199,17.029386365926403,35.014282800023196,26.019223662515376,23.5,20.0,20.0,3.0,15.0,5.0,0.0,10.04987562112089,10.04987562112089,10.0,27.0,29.0,30.0
90,90,0.0,47.01063709417264,5.0,10.0,12.041594578792296,12.0,17.11724276862369,32.0624390837628,22.090722034374522,22.0,19.0,20.0,2.5,12.5,1.5,1.5,10.04987562112089,10.04987562112089,10.0,29.0,30.0,31.0
91,91,1.4142135623730951,48.010415536631214,5.0,10.0,13.038404810405298,13.0,17.11724276862369,31.016124838541646,21.02379604162864,21.5,18.0,19.0,1.5,12.5,1.5,2.5,10.04987562112089,10.04987562112089,10.0,27.0,28.0,31.016124838541646
92,92,6.082762530298219,51.0098029794274,4.123105625617661,9.055385138137417,14.035668847618199,15.0,16.0,35.014282800023196,26.0,23.0,17.0,18.0,1.5,17.5,7.5,2.5,9.055385138137417,10.04987562112089,10.0,28.0,28.0,32.01562118716424
93,93,11.045361017187261,52.009614495783374,3.0,8.0,14.035668847618199,15.0,16.1245154965971,38.01315561749642,30.01666203960727,24.5,18.0,19.0,2.5,19.5,9.5,0.5,10.198039027185569,10.04987562112089,10.5,27.0,28.0,32.01562118716424
94,94,11.045361017187261,52.009614495783374,3.0,8.0,14.035668847618199,15.0,16.1245154965971,38.01315561749642,30.01666203960727,24.5,18.0,19.0,2.5,19.5,9.5,0.5,10.198039027185569,10.04987562112089,10.5,27.0,28.0,32.01562118716424
95,95,8.06225774829855,52.009614495783374,4.0,9.0,14.0,15.033296378372908,15.033296378372908,36.0,27.0,23.0,17.0,18.0,2.5,18.5,8.5,0.5,10.04987562112089,10.04987562112089,10.0,27.0,28.0,31.016124838541646
96,96,8.06225774829855,52.0,4.0,9.0,14.035668847618199,15.0,15.033296378372908,36.0,27.0,23.0,18.0,18.0,3.0,18.0,8.0,0.0,10.04987562112089,10.04987562112089,10.0,27.0,27.0,31.0
97,97,7.0710678118654755,52.0,5.0,9.0,14.0,15.033296378372908,14.142135623730951,35.014282800023196,26.019223662515376,22.5,17.0,17.0,3.0,18.0,8.0,1.0,9.055385138137417,9.055385138137417,9.0,26.0,27.0,31.016124838541646
98,98,9.055385138137417,53.0,4.123105625617661,9.055385138137417,13.0,14.0,14.035668847618199,36.05551275463989,27.018512172212592,22.5,18.0,18.0,4.0,18.0,7.0,1.0,8.06225774829855,9.055385138137417,9.5,27.0,28.0,30.01666203960727
99,99,9.055385138137417,53.0,4.123105625617661,9.055385138137417,13.0,14.0,14.035668847618199,36.05551275463989,27.018512172212592,22.5,18.0,18.0,4.0,18.0,7.0,1.0,8.06225774829855,9.055385138137417,9.5,27.0,28.0,30.01666203960727
100,100,8.0,52.0,4.0,8.0,13.0,15.033296378372908,15.033296378372908,35.014282800023196,27.018512172212592,23.0,18.0,18.0,3.0,17.0,7.0,0.0,5.0990195135927845,4.0,4.5,26.0,27.0,31.0
101,101,3.0,50.0,5.0,10.0,14.035668847618199,15.033296378372908,15.033296378372908,33.015148038438355,23.021728866442675,21.5,19.0,19.0,4.0,14.0,3.0,1.0,3.0,3.0,3.5,25.0,26.0,30.0
102,102,2.0,52.0,5.0,9.0,13.0,14.035668847618199,17.029386365926403,33.015148038438355,24.020824298928627,23.0,20.0,20.0,3.0,13.0,2.0,1.0,5.0,4.123105625617661,4.5,25.0,27.0,30.0
103,103,2.0,51.0,5.0990195135927845,8.0,13.038404810405298,14.035668847618199,16.0312195418814,31.064449134018133,23.08679276123039,22.0,20.0,20.0,4.0,11.0,1.0,1.0,6.082762530298219,6.082762530298219,6.0,25.0,27.0,29.0
104,104,1.0,51.0,5.0990195135927845,9.0,13.0,14.0,16.0,31.016124838541646,22.02271554554524,21.5,20.0,20.0,4.0,11.0,1.0,0.0,6.0,6.082762530298219,6.0,25.0,27.0,28.0
105,105,2.0,50.0,5.0,8.06225774829855,12.0,13.038404810405298,17.029386365926403,32.0624390837628,24.020824298928627,23.0,21.0,21.0,4.0,11.0,2.0,0.0,7.0,7.0710678118654755,7.0,24.0,27.0,29.017236257093817
106,106,2.0,51.0,5.0,9.0,13.038404810405298,14.035668847618199,16.0312195418814,32.01562118716424,23.021728866442675,22.0,21.0,21.0,5.0,11.0,1.0,0.0,8.0,7.0710678118654755,7.0,25.0,27.0,29.0
107,107,8.0,51.0098029794274,4.0,8.0,13.0,14.035668847618199,16.0312195418814,36.013886210738214,28.0178514522438,24.0,23.0,22.0,6.5,13.5,4.5,2.5,7.0,8.06225774829855,8.0,24.0,26.0,29.017236257093817
108,108,8.0,51.0,4.0,8.0,13.038404810405298,14.035668847618199,16.1245154965971,36.05551275463989,28.071337695236398,24.0,22.0,22.0,6.0,14.0,5.0,2.0,8.0,8.0,8.0,24.0,27.0,28.0178514522438
109,109,12.0,50.0,4.0,9.0,14.035668847618199,14.035668847618199,15.033296378372908,40.01249804748511,31.016124838541646,25.0,23.0,23.0,8.0,17.0,7.0,4.0,7.0710678118654755,8.06225774829855,8.0,25.0,27.0,29.017236257093817
110,110,14.0,50.00999900019995,4.0,9.0,13.038404810405298,14.035668847618199,15.033296378372908,42.01190307520001,33.015148038438355,26.0,24.0,23.0,8.5,18.5,8.5,4.5,8.06225774829855,8.06225774829855,8.5,25.0,27.0,29.017236257093817
111,111,16.0312195418814,51.0098029794274,4.0,10.0,14.035668847618199,15.033296378372908,15.132745950421556,45.0111097397076,35.014282800023196,27.0,24.0,25.0,9.5,20.5,9.5,5.5,8.06225774829855,9.055385138137417,9.0,24.0,27.0,29.017236257093817
112,112,18.027756377319946,51.0098029794274,5.0,10.0,13.0,14.0,15.033296378372908,48.0,38.0,29.0,26.0,25.0,10.5,22.5,11.5,6.5,9.055385138137417,9.055385138137417,8.5,24.0,26.0,30.01666203960727
113,113,18.027756377319946,51.0098029794274,5.0,10.0,13.0,14.0,15.033296378372908,48.0,38.0,29.0,26.0,25.0,10.5,22.5,11.5,6.5,9.055385138137417,9.055385138137417,8.5,24.0,26.0,30.01666203960727
114,114,20.0,51.0098029794274,5.0,9.0,14.0,15.033296378372908,15.033296378372908,49.01020301937138,40.01249804748511,30.0,26.0,25.0,10.5,23.5,12.5,6.5,9.0,9.055385138137417,9.0,25.0,27.0,29.017236257093817
115,115,21.0,51.0098029794274,4.0,9.0,14.0,16.0,16.0312195418814,50.00999900019995,41.012193308819754,30.5,27.0,26.0,10.5,23.5,13.5,7.5,9.055385138137417,8.06225774829855,8.5,24.0,27.0,30.01666203960727
116,116,23.021728866442675,51.03920062069938,3.0,10.0,14.0,16.0312195418814,15.033296378372908,51.0,41.0,29.5,26.0,24.0,10.0,26.0,15.0,7.0,9.0,9.055385138137417,9.0,25.0,27.0,31.016124838541646
117,117,20.0,50.039984012787215,5.0,9.0,12.0,14.0,15.033296378372908,49.01020301937138,40.01249804748511,30.0,27.0,25.0,11.0,23.0,13.0,7.0,10.0,9.219544457292887,9.0,26.0,28.0,30.01666203960727
118,118,20.0,50.039984012787215,5.0,9.0,12.0,14.0,15.033296378372908,49.01020301937138,40.01249804748511,30.0,27.0,25.0,11.0,23.0,13.0,7.0,10.0,9.219544457292887,9.0,26.0,28.0,30.01666203960727
119,119,4.123105625617661,46.010868281309364,6.0,11.0,12.0,13.0,17.029386365926403,38.0,27.0,25.0,26.0,25.0,8.5,12.5,1.5,2.5,10.04987562112089,9.219544457292887,9.0,25.0,27.0,29.017236257093817
120,120,4.0,46.04345773288535,6.0,10.0,11.0,13.038404810405298,16.0312195418814,36.013886210738214,26.019223662515376,24.0,24.0,22.0,7.0,13.0,3.0,2.0,10.04987562112089,10.04987562112089,9.5,26.0,28.0,29.068883707497267
121,121,8.06225774829855,50.00999900019995,5.0990195135927845,11.0,13.038404810405298,14.0,15.033296378372908,39.01281840626232,28.0178514522438,24.0,23.0,22.0,7.5,16.5,4.5,2.5,10.04987562112089,10.198039027185569,10.0,26.0,28.0,31.016124838541646
122,122,7.0,48.041648597857254,5.0,10.0,12.0,14.0,14.142135623730951,36.05551275463989,26.076809620810597,22.5,22.0,20.0,7.0,15.0,4.0,2.0,10.04987562112089,10.198039027185569,9.5,25.0,27.0,29.017236257093817
123,123,7.0,49.040799340956916,5.0,10.0,12.0,13.0,14.142135623730951,36.05551275463989,26.076809620810597,22.5,22.0,20.0,7.0,15.0,4.0,2.0,10.04987562112089,10.198039027185569,9.5,25.0,28.0,30.01666203960727
124,124,1.0,46.010868281309364,6.0,10.0,13.0,14.035668847618199,15.132745950421556,32.0624390837628,22.090722034374522,21.5,21.0,20.0,5.5,11.5,0.5,0.5,10.04987562112089,10.04987562112089,9.5,26.0,28.0,31.064449134018133
125,125,2.0,47.01063709417264,5.0,10.0,12.0,14.0,16.1245154965971,33.06055050963308,23.08679276123039,22.0,21.0,20.0,4.5,12.5,1.5,0.5,10.04987562112089,10.04987562112089,10.0,26.0,29.0,31.064449134018133
126,126,1.4142135623730951,47.042533945356304,6.082762530298219,11.045361017187261,12.0,13.0,16.0,34.0147027033899,23.0,22.5,22.0,20.0,5.0,13.0,2.0,0.0,10.04987562112089,10.198039027185569,10.0,26.0,28.0,31.016124838541646
127,127,2.0,46.010868281309364,6.0,11.0,13.0,14.0,17.029386365926403,36.013886210738214,25.019992006393608,24.0,23.0,22.0,5.5,13.5,1.5,0.5,10.04987562112089,10.04987562112089,10.0,26.0,28.0,30.01666203960727
128,128,4.0,47.042533945356304,5.0,11.0,13.0,14.035668847618199,17.029386365926403,37.013511046643494,26.019223662515376,24.0,24.0,22.0,6.0,14.0,2.0,1.0,9.055385138137417,10.04987562112089,10.0,26.0,29.0,30.066592756745816
129,129,3.1622776601683795,48.010415536631214,5.0,12.041594578792296,13.038404810405298,14.035668847618199,17.029386365926403,37.013511046643494,25.0,23.5,23.0,22.0,5.5,14.5,2.5,0.5,10.04987562112089,10.04987562112089,10.0,26.0,28.0,31.016124838541646
130,130,4.123105625617661,49.0,6.0,12.0,14.0,15.0,16.0312195418814,38.0,26.0,24.0,21.0,21.0,5.0,17.0,4.0,0.0,10.04987562112089,10.04987562112089,10.5,26.0,29.0,32.01562118716424
131,131,7.0710678118654755,51.0098029794274,5.0,11.0,14.035668847618199,15.0,16.0312195418814,39.0,28.0,24.5,21.0,20.0,4.5,18.5,6.5,0.5,10.04987562112089,10.198039027185569,10.0,26.0,28.0,30.01666203960727
132,132,8.06225774829855,53.0,6.0,11.0,13.0,15.0,15.033296378372908,40.0,29.0,25.0,20.0,20.0,5.0,20.0,8.0,0.0,9.055385138137417,10.04987562112089,10.0,27.0,28.0,32.0
133,133,8.06225774829855,53.0,6.0,11.0,13.0,15.0,15.033296378372908,40.0,29.0,25.0,20.0,20.0,5.0,20.0,8.0,0.0,9.055385138137417,10.04987562112089,10.0,27.0,28.0,32.0
134,134,10.04987562112089,54.037024344425184,5.0990195135927845,10.0,13.0,15.0,15.0,40.0,30.0,25.0,21.0,19.0,5.0,20.0,9.0,1.0,7.0710678118654755,7.0710678118654755,7.0,27.0,28.0,31.0
135,135,15.033296378372908,55.036351623268054,4.0,10.04987562112089,15.0,16.0,13.152946437965905,42.04759208325728,32.01562118716424,24.5,21.0,19.0,7.0,22.0,11.0,4.0,4.0,5.0990195135927845,4.5,27.0,29.0,31.0
136,136,15.0,53.009433122794285,3.0,10.0,15.0,15.0,14.035668847618199,42.01190307520001,32.01562118716424,24.5,21.0,20.0,6.5,21.5,10.5,3.5,5.0990195135927845,5.0990195135927845,5.0,28.0,29.0,31.016124838541646
137,137,11.0,53.0,4.0,10.0,14.0,15.0,13.038404810405298,38.01315561749642,28.0178514522438,22.5,21.0,21.0,8.0,17.0,6.0,4.0,7.0710678118654755,7.0,7.0,28.0,28.0,32.0
138,138,10.0,53.0,4.0,10.04987562112089,13.0,15.0,14.035668847618199,38.0,28.0178514522438,23.0,21.0,21.0,7.0,17.0,6.0,4.0,7.0710678118654755,7.0,7.0,27.0,27.0,31.0
139,139,7.0710678118654755,51.0098029794274,4.0,10.0,13.038404810405298,14.0,15.033296378372908,36.0,26.0,22.5,22.0,21.0,6.5,14.5,3.5,2.5,8.06225774829855,8.06225774829855,8.0,27.0,27.0,31.0
140,140,1.4142135623730951,49.0,5.0,10.0,13.038404810405298,14.035668847618199,16.0312195418814,32.0,22.0,21.5,22.0,22.0,6.0,10.0,1.0,1.0,8.06225774829855,9.0,9.0,27.0,27.0,30.0
141,141,1.4142135623730951,49.01020301937138,6.0,10.0,13.038404810405298,14.0,15.033296378372908,32.0,22.0,21.5,22.0,23.0,7.5,9.5,0.5,1.5,8.06225774829855,9.0,9.0,27.0,27.0,30.0
142,142,5.0,49.01020301937138,6.0,12.041594578792296,13.0,14.035668847618199,15.033296378372908,38.0,26.019223662515376,23.5,23.0,24.0,8.5,14.5,1.5,2.5,9.219544457292887,9.055385138137417,9.0,28.0,27.0,30.01666203960727
143,143,16.0,52.0,4.0,10.04987562112089,13.038404810405298,15.0,15.033296378372908,45.0,35.014282800023196,27.0,24.0,24.0,9.0,21.0,9.0,5.0,9.055385138137417,9.055385138137417,9.0,28.0,28.0,30.01666203960727
144,144,14.0,52.0,4.0,10.0,13.0,15.033296378372908,14.035668847618199,42.01190307520001,32.01562118716424,25.0,22.0,22.0,8.0,20.0,9.0,5.0,9.055385138137417,9.0,9.5,28.0,27.0,31.0
145,145,12.0,53.0,4.0,10.0,13.038404810405298,15.0,14.035668847618199,40.01249804748511,30.01666203960727,24.0,22.0,22.0,8.0,18.0,7.0,4.0,10.04987562112089,10.04987562112089,10.0,28.0,29.0,32.0
146,146,12.0,53.0,4.0,10.0,13.038404810405298,15.0,14.035668847618199,40.01249804748511,30.01666203960727,24.0,22.0,22.0,8.0,18.0,7.0,4.0,10.04987562112089,10.04987562112089,10.0,28.0,29.0,32.0
147,147,13.0,53.0,4.0,9.0,13.038404810405298,15.0,14.035668847618199,40.01249804748511,31.016124838541646,24.5,22.0,22.0,8.0,18.0,7.0,4.0,11.045361017187261,11.0,11.0,28.0,30.0,33.0
148,148,13.0,52.009614495783374,3.0,9.0,13.038404810405298,14.0,15.033296378372908,40.01249804748511,31.016124838541646,24.5,23.0,22.0,7.5,17.5,7.5,4.5,11.045361017187261,12.041594578792296,12.0,29.0,30.0,34.0147027033899
149,149,11.0,50.00999900019995,5.0,9.0,12.0,14.035668847618199,14.035668847618199,39.01281840626232,30.01666203960727,24.5,23.0,22.0,8.5,16.5,6.5,4.5,11.045361017187261,11.0,11.5,29.0,31.0,33.015148038438355
150,150,7.0,49.01020301937138,5.0990195135927845,10.0,12.0,13.0,15.033296378372908,37.05401462729781,27.073972741361768,23.5,23.0,22.0,7.5,14.5,3.5,3.5,11.045361017187261,11.045361017187261,11.0,29.0,31.0,34.0
151,151,7.0,49.01020301937138,5.0,10.0,13.0,13.038404810405298,15.132745950421556,37.05401462729781,27.073972741361768,23.5,23.0,22.0,7.5,14.5,3.5,2.5,11.045361017187261,11.045361017187261,11.5,29.0,31.0,33.0
152,152,2.23606797749979,46.0,6.0,9.055385138137417,13.0,13.0,16.1245154965971,33.06055050963308,24.020824298928627,23.0,22.0,22.0,6.0,11.0,1.0,1.0,10.04987562112089,10.04987562112089,10.5,29.0,31.0,33.0
153,153,3.0,47.0,5.0,10.0,13.0,14.0,17.029386365926403,35.014282800023196,25.019992006393608,23.5,23.0,23.0,6.0,12.0,1.0,1.0,11.045361017187261,11.045361017187261,11.0,27.0,30.0,33.015148038438355
154,154,4.123105625617661,46.0,6.0,12.0,12.041594578792296,14.0,15.033296378372908,37.0,25.0,23.0,23.0,23.0,8.0,14.0,2.0,2.0,10.04987562112089,11.045361017187261,11.0,28.0,30.0,32.01562118716424
155,155,7.0,48.0,4.0,10.0,13.0,14.0,16.0312195418814,37.013511046643494,27.018512172212592,23.5,23.0,23.0,7.0,14.0,3.0,3.0,10.04987562112089,11.045361017187261,10.5,28.0,31.0,33.015148038438355
156,156,7.0710678118654755,48.010415536631214,5.0,10.0,12.0,13.0,15.132745950421556,37.013511046643494,27.018512172212592,23.5,23.0,22.0,7.5,14.5,3.5,2.5,11.045361017187261,10.04987562112089,10.0,28.0,30.0,33.015148038438355
157,157,10.04987562112089,51.0,4.0,10.04987562112089,14.0,15.033296378372908,14.035668847618199,38.01315561749642,28.0,23.0,21.0,21.0,7.0,17.0,6.0,4.0,11.045361017187261,11.045361017187261,11.0,28.0,31.0,32.01562118716424
158,158,12.041594578792296,52.0,4.0,10.0,12.0,14.0,14.035668847618199,40.0,30.0,24.0,21.0,21.0,7.0,19.0,8.0,3.0,10.04987562112089,10.198039027185569,10.0,28.0,30.0,33.015148038438355
159,159,12.0,52.0,4.0,10.0,13.0,14.0,15.033296378372908,41.012193308819754,31.016124838541646,25.0,21.0,21.0,6.0,20.0,9.0,3.0,10.04987562112089,10.198039027185569,10.0,27.0,29.0,33.015148038438355
160,160,12.0,52.0,4.0,10.0,13.0,14.0,15.033296378372908,41.012193308819754,31.016124838541646,25.0,21.0,21.0,6.0,20.0,9.0,3.0,10.04987562112089,10.198039027185569,10.0,27.0,29.0,33.015148038438355
161,161,13.038404810405298,51.0,4.0,10.0,14.0,15.0,14.035668847618199,41.0,31.0,24.5,20.0,20.0,6.0,21.0,10.0,3.0,9.055385138137417,10.04987562112089,9.5,28.0,29.0,33.015148038438355
162,162,15.0,52.009614495783374,3.0,9.0,13.0,15.0,15.0,42.0,33.0,25.5,21.0,20.0,5.5,21.5,10.5,3.5,10.198039027185569,10.04987562112089,10.0,27.0,29.0,32.01562118716424
163,163,15.033296378372908,53.0,3.0,9.0,14.035668847618199,15.0,15.033296378372908,42.0,33.0,25.5,21.0,21.0,6.0,21.0,10.0,3.0,10.198039027185569,11.045361017187261,11.0,27.0,29.0,33.015148038438355
164,164,11.045361017187261,50.00999900019995,4.0,9.0,12.0,13.038404810405298,14.0,38.01315561749642,29.017236257093817,23.5,21.0,22.0,7.5,16.5,6.5,4.5,10.04987562112089,10.04987562112089,10.0,27.0,29.0,32.0
165,165,11.045361017187261,49.01020301937138,4.0,10.0,13.038404810405298,14.0,14.035668847618199,39.0,29.0,23.5,21.0,22.0,7.5,17.5,6.5,3.5,10.04987562112089,10.04987562112089,10.0,27.0,28.0,31.0
166,166,2.0,48.010415536631214,5.0990195135927845,10.0,13.038404810405298,14.035668847618199,15.132745950421556,32.01562118716424,22.02271554554524,21.0,22.0,23.0,7.5,9.5,1.5,2.5,10.04987562112089,10.04987562112089,10.0,27.0,28.0,31.016124838541646
167,167,2.23606797749979,50.0,5.0,10.0,13.038404810405298,14.0,15.033296378372908,32.0,22.0,21.0,21.0,21.0,6.0,11.0,0.0,1.0,10.04987562112089,10.04987562112089,10.0,28.0,29.0,31.0
168,168,8.06225774829855,48.0,4.0,9.0,12.041594578792296,13.0,15.033296378372908,36.0,27.0,23.0,22.0,22.0,7.0,14.0,4.0,3.0,7.0710678118654755,7.0,7.5,29.0,30.0,30.0
169,169,8.06225774829855,48.010415536631214,4.0,10.0,13.0,14.0,16.0312195418814,38.0,28.0,24.0,23.0,22.0,6.5,15.5,4.5,3.5,7.0,7.0710678118654755,7.0,28.0,30.0,32.0
170,170,9.055385138137417,48.010415536631214,3.0,10.04987562112089,13.0,15.0,16.0312195418814,38.01315561749642,28.0,23.5,23.0,22.0,6.5,15.5,4.5,3.5,7.0,7.0710678118654755,7.0,28.0,30.0,32.0
171,171,1.0,48.010415536631214,5.0,10.0,13.0,14.0,17.029386365926403,33.015148038438355,23.021728866442675,22.5,22.0,21.0,4.5,11.5,1.5,0.5,9.0,9.055385138137417,9.5,27.0,29.0,30.01666203960727
172,172,3.0,49.0,5.0,10.0,13.038404810405298,14.0,16.0312195418814,34.0147027033899,24.020824298928627,22.5,21.0,21.0,5.0,13.0,2.0,0.0,9.055385138137417,9.0,9.0,27.0,29.0,31.016124838541646
173,173,8.0,50.00999900019995,6.0,12.0,13.0,16.0,15.0,41.0,29.0,25.0,22.0,21.0,6.5,19.5,6.5,1.5,9.055385138137417,10.04987562112089,10.0,26.0,28.0,30.01666203960727
174,174,11.045361017187261,52.0,5.0,10.0,13.038404810405298,15.0,15.033296378372908,41.0,31.0,25.5,20.0,20.0,5.0,21.0,10.0,1.0,9.055385138137417,10.198039027185569,10.0,26.0,28.0,31.016124838541646
175,175,11.045361017187261,51.0,5.0,10.0,14.035668847618199,15.0,15.0,41.012193308819754,31.016124838541646,25.5,20.0,20.0,5.0,21.0,10.0,0.0,9.055385138137417,10.198039027185569,10.0,26.0,28.0,32.01562118716424
176,176,10.04987562112089,53.0,5.0,9.055385138137417,13.038404810405298,15.033296378372908,14.035668847618199,38.01315561749642,29.0,24.0,19.0,19.0,5.0,19.0,8.0,1.0,10.04987562112089,10.04987562112089,9.5,26.0,28.0,32.01562118716424
177,177,9.0,53.0,4.0,9.0,15.033296378372908,16.0312195418814,14.0,36.0,27.0,22.5,18.0,18.0,4.0,18.0,7.0,1.0,10.04987562112089,10.198039027185569,10.0,26.0,28.0,31.016124838541646
178,178,9.055385138137417,52.0,4.0,9.0,14.035668847618199,15.033296378372908,14.0,36.013886210738214,27.018512172212592,22.5,18.0,18.0,4.0,18.0,7.0,1.0,10.04987562112089,10.198039027185569,10.5,26.0,28.0,31.016124838541646
179,179,9.0,54.0,3.0,9.0,15.033296378372908,16.0,14.035668847618199,35.014282800023196,26.019223662515376,21.5,18.0,18.0,4.0,17.0,7.0,1.0,10.04987562112089,10.04987562112089,10.0,26.0,27.0,32.01562118716424
180,180,7.0710678118654755,54.0,4.0,9.055385138137417,14.035668847618199,15.033296378372908,14.0,34.0,25.019992006393608,21.5,18.0,18.0,4.0,16.0,6.0,0.0,9.055385138137417,10.04987562112089,10.0,26.0,27.0,31.016124838541646
181,181,8.0,54.0,4.0,9.0,15.033296378372908,15.033296378372908,14.035668847618199,35.014282800023196,26.019223662515376,22.0,18.0,18.0,4.0,17.0,6.0,1.0,10.04987562112089,10.04987562112089,10.5,28.0,28.0,32.01562118716424
182,182,8.0,54.0,4.0,10.0,14.035668847618199,15.033296378372908,14.0,36.0,26.0,22.0,18.0,18.0,4.0,18.0,7.0,1.0,10.04987562112089,10.04987562112089,10.0,27.0,29.0,32.0
183,183,9.0,54.0,3.0,10.0,14.035668847618199,15.0,15.0,37.0,27.0,22.5,19.0,19.0,4.0,18.0,7.0,1.0,10.04987562112089,10.04987562112089,10.5,27.0,29.0,32.0
184,184,10.04987562112089,53.0,4.0,9.0,14.035668847618199,15.033296378372908,15.033296378372908,38.0,29.0,24.0,19.0,19.0,4.0,19.0,8.0,1.0,10.04987562112089,10.198039027185569,10.0,27.0,29.0,32.0
185,185,13.0,52.0,3.0,10.0,15.033296378372908,15.0,15.033296378372908,41.012193308819754,31.016124838541646,24.5,20.0,20.0,5.0,21.0,10.0,2.0,4.0,5.0,4.5,25.0,29.0,32.0
186,186,12.0,52.009614495783374,4.0,10.0,14.0,15.0,15.0,41.0,31.0,25.0,22.0,21.0,6.5,19.5,8.5,3.5,4.123105625617661,4.0,4.0,26.0,28.0,32.0
187,187,10.0,50.0,6.0,11.0,13.0,15.0,16.0312195418814,43.01162633521314,32.01562118716424,27.0,25.0,25.0,9.0,18.0,6.0,4.0,5.0990195135927845,6.082762530298219,6.0,26.0,28.0,32.0
188,188,11.0,49.01020301937138,5.0,10.0,13.0,14.035668847618199,15.0,41.0,31.0,25.5,24.0,23.0,8.5,17.5,6.5,3.5,5.0990195135927845,5.0,5.5,26.0,28.0,31.016124838541646
189,189,7.0,50.0,5.0,8.0,13.038404810405298,14.035668847618199,17.029386365926403,37.013511046643494,29.017236257093817,25.5,25.0,25.0,8.0,12.0,3.0,3.0,7.0,7.0710678118654755,7.5,25.0,28.0,31.0
190,190,8.0,49.01020301937138,5.0,8.0,13.0,14.0,19.026297590440446,40.01249804748511,32.01562118716424,28.0,28.0,27.0,8.5,12.5,3.5,3.5,8.0,7.0,7.5,25.0,28.0,32.0
191,191,15.0,52.009614495783374,5.0,8.0,12.041594578792296,14.0,16.0312195418814,44.01136216933077,36.013886210738214,28.5,28.0,27.0,11.5,16.5,7.5,6.5,8.06225774829855,9.055385138137417,9.0,26.0,28.0,31.0
192,192,17.029386365926403,52.009614495783374,5.0,8.06225774829855,13.0,15.033296378372908,15.132745950421556,45.044422518220834,37.013511046643494,28.5,28.0,27.0,12.5,17.5,8.5,7.5,9.055385138137417,9.055385138137417,9.0,26.0,28.0,31.0
193,193,16.0,52.03844732503075,5.0,9.0,13.0,14.0,16.0,46.0,37.0,29.0,29.0,27.0,12.0,18.0,8.0,7.0,9.055385138137417,9.055385138137417,9.0,26.0,28.0,31.0
194,194,20.0,52.009614495783374,5.0,9.0,13.0,15.0,14.035668847618199,48.010415536631214,39.01281840626232,29.0,28.0,27.0,13.5,20.5,10.5,9.5,9.055385138137417,10.04987562112089,9.5,26.0,29.0,32.0
195,195,18.0,52.03844732503075,5.0,9.0,13.0,15.0,14.035668847618199,46.010868281309364,37.013511046643494,28.0,28.0,26.0,13.0,19.0,9.0,9.0,9.055385138137417,10.04987562112089,10.0,26.0,28.0,32.0
196,196,13.038404810405298,51.0098029794274,5.0990195135927845,7.0710678118654755,13.038404810405298,14.035668847618199,14.035668847618199,39.05124837953327,32.01562118716424,25.5,26.0,25.0,11.5,13.5,4.5,6.5,9.0,9.0,9.5,26.0,28.0,31.0
197,197,3.0,51.0,6.0,7.0,12.041594578792296,13.038404810405298,16.0,32.0,25.0,23.5,24.0,24.0,8.0,8.0,0.0,3.0,10.04987562112089,10.04987562112089,10.0,25.0,28.0,31.064449134018133
198,198,2.0,50.0,6.0,9.0,12.041594578792296,13.0,16.0,33.0,24.0,23.0,24.0,24.0,8.0,9.0,1.0,2.0,10.0,10.04987562112089,10.0,25.0,28.0,32.01562118716424
199,199,4.0,53.0,6.0,9.0,13.0,15.0,16.1245154965971,35.05709628591621,26.076809620810597,24.0,24.0,24.0,8.0,11.0,1.0,3.0,10.04987562112089,10.04987562112089,10.0,26.0,28.0,30.0
200,200,12.0,51.0,5.0,8.0,12.0,14.0,16.0312195418814,41.012193308819754,33.015148038438355,27.0,25.0,25.0,9.0,16.0,7.0,5.0,10.0,10.04987562112089,10.0,27.0,29.0,32.0
201,201,11.0,52.009614495783374,5.0,10.0,13.0,14.0,16.0312195418814,42.01190307520001,32.01562118716424,26.5,25.0,24.0,8.5,17.5,6.5,4.5,10.04987562112089,10.04987562112089,10.0,26.0,29.0,32.01562118716424
202,202,12.0,52.009614495783374,5.0,9.0,13.0,14.0,16.0312195418814,42.01190307520001,33.015148038438355,27.0,25.0,24.0,8.5,17.5,7.5,4.5,10.04987562112089,10.04987562112089,10.0,26.0,28.0,32.0
203,203,13.038404810405298,52.009614495783374,4.0,10.0,13.0,14.0,16.1245154965971,43.01162633521314,33.015148038438355,26.5,25.0,24.0,8.5,18.5,7.5,4.5,9.055385138137417,10.04987562112089,9.5,26.0,28.0,30.01666203960727
204,204,9.0,50.0,4.0,9.0,13.038404810405298,14.0,16.0312195418814,38.01315561749642,29.017236257093817,24.5,23.0,23.0,7.0,15.0,5.0,3.0,10.04987562112089,11.180339887498949,10.5,27.0,29.0,31.0
205,205,2.0,50.0,5.0,9.0,13.038404810405298,14.0,15.033296378372908,31.016124838541646,22.02271554554524,21.0,21.0,21.0,6.0,10.0,0.0,1.0,9.055385138137417,10.04987562112089,10.0,27.0,29.0,31.0
206,206,5.0,51.0,5.0,10.04987562112089,14.0,14.0,15.033296378372908,35.0,25.019992006393608,22.5,22.0,22.0,7.0,13.0,2.0,3.0,9.055385138137417,10.04987562112089,10.0,27.0,29.0,30.01666203960727
207,207,6.0,50.0,5.0,9.0,13.0,14.035668847618199,15.033296378372908,35.014282800023196,26.019223662515376,23.0,22.0,22.0,7.0,13.0,2.0,3.0,9.055385138137417,10.198039027185569,10.0,27.0,29.0,30.01666203960727
208,208,12.0,51.0,4.0,10.0,14.035668847618199,15.0,15.033296378372908,41.012193308819754,31.016124838541646,25.0,23.0,23.0,8.0,18.0,7.0,4.0,9.055385138137417,10.04987562112089,10.0,27.0,28.0,31.016124838541646
209,209,11.0,50.0,4.0,10.0,14.035668847618199,15.0,14.035668847618199,39.01281840626232,29.017236257093817,23.5,22.0,22.0,8.0,17.0,6.0,4.0,10.04987562112089,10.04987562112089,10.0,27.0,28.0,29.0
210,210,2.0,49.0,6.0,10.0,13.0,14.035668847618199,15.033296378372908,33.015148038438355,23.021728866442675,22.0,21.0,21.0,6.0,12.0,1.0,1.0,10.04987562112089,10.04987562112089,10.0,28.0,29.0,30.0
211,211,2.0,50.00999900019995,6.082762530298219,11.0,13.0,15.033296378372908,15.132745950421556,34.0147027033899,23.021728866442675,22.0,20.0,21.0,5.5,13.5,1.5,0.5,10.04987562112089,11.045361017187261,11.0,27.0,28.0,31.0
212,212,2.0,50.00999900019995,6.0,11.0,14.0,15.0,15.132745950421556,34.058772731852805,23.08679276123039,22.0,20.0,21.0,5.5,13.5,1.5,0.5,10.04987562112089,10.04987562112089,10.5,27.0,28.0,30.0
213,213,8.0,51.0,5.0,10.0,13.0,14.035668847618199,15.033296378372908,38.01315561749642,28.0178514522438,24.0,21.0,21.0,6.0,17.0,6.0,2.0,10.04987562112089,10.04987562112089,10.0,28.0,28.0,31.0
214,214,9.0,51.0098029794274,4.0,10.0,14.035668847618199,15.033296378372908,15.033296378372908,38.01315561749642,28.0178514522438,23.5,20.0,21.0,5.5,17.5,6.5,2.5,9.055385138137417,10.04987562112089,10.0,28.0,28.0,29.0
215,215,10.04987562112089,51.0,4.0,9.0,13.038404810405298,15.033296378372908,15.132745950421556,38.01315561749642,29.017236257093817,24.0,21.0,21.0,6.0,17.0,6.0,2.0,10.04987562112089,10.04987562112089,10.0,27.0,28.0,31.0
216,216,11.0,51.0,3.0,9.0,14.035668847618199,15.033296378372908,15.033296378372908,38.01315561749642,29.017236257093817,23.5,21.0,21.0,6.0,17.0,7.0,3.0,10.04987562112089,10.04987562112089,10.0,27.0,28.0,31.0
217,217,11.0,51.0,3.0,9.0,14.035668847618199,15.033296378372908,15.033296378372908,38.01315561749642,29.017236257093817,23.5,21.0,21.0,6.0,17.0,7.0,3.0,10.04987562112089,10.04987562112089,10.0,27.0,28.0,31.0
218,218,7.0710678118654755,52.009614495783374,5.0,10.0,13.038404810405298,15.033296378372908,15.132745950421556,37.013511046643494,27.018512172212592,23.5,20.0,21.0,5.5,16.5,5.5,0.5,9.055385138137417,10.04987562112089,10.0,28.0,28.0,30.01666203960727
219,219,2.0,49.01020301937138,6.082762530298219,10.0,14.035668847618199,15.033296378372908,15.132745950421556,33.015148038438355,23.021728866442675,22.0,20.0,21.0,5.5,12.5,1.5,0.5,9.055385138137417,9.055385138137417,10.0,27.0,28.0,31.0
220,220,1.0,49.0,6.082762530298219,11.0,14.035668847618199,15.0,15.132745950421556,33.015148038438355,22.02271554554524,21.5,20.0,20.0,5.0,13.0,1.0,1.0,9.055385138137417,10.04987562112089,10.0,28.0,28.0,30.0
221,221,0.0,49.01020301937138,5.0,9.0,13.038404810405298,13.038404810405298,15.033296378372908,29.017236257093817,20.024984394500787,20.0,19.0,20.0,4.5,9.5,0.5,0.5,10.04987562112089,10.04987562112089,10.0,28.0,28.0,31.0
222,222,1.0,48.010415536631214,5.0,9.0,12.041594578792296,13.038404810405298,16.0312195418814,30.0,21.0,21.0,20.0,21.0,4.5,9.5,0.5,0.5,10.198039027185569,11.045361017187261,11.0,28.0,28.0,30.0
223,223,1.4142135623730951,47.01063709417264,5.0,11.0,12.041594578792296,13.0,16.0312195418814,33.0,22.0,21.5,21.0,22.0,5.5,11.5,0.5,0.5,11.045361017187261,11.045361017187261,10.5,29.0,29.0,31.016124838541646
224,224,2.0,46.0,5.0,10.04987562112089,12.041594578792296,13.0,16.0312195418814,33.0,23.021728866442675,22.0,22.0,22.0,6.0,11.0,0.0,1.0,10.04987562112089,10.04987562112089,10.0,28.0,28.0,29.017236257093817
225,225,2.0,46.0,5.0,10.04987562112089,12.041594578792296,13.0,16.0312195418814,33.0,23.021728866442675,22.0,22.0,22.0,6.0,11.0,0.0,1.0,10.04987562112089,10.04987562112089,10.0,28.0,28.0,29.017236257093817
226,226,1.4142135623730951,43.0,6.0,11.0,12.041594578792296,12.0,16.0312195418814,34.0,23.0,22.5,23.0,23.0,7.0,11.0,1.0,1.0,11.045361017187261,11.045361017187261,11.0,29.0,30.0,31.0
227,227,3.1622776601683795,44.0,6.0,13.0,12.041594578792296,13.0,16.0312195418814,38.0,25.0,23.5,24.0,24.0,8.0,14.0,0.0,2.0,11.180339887498949,10.04987562112089,10.0,29.0,29.0,30.0
228,228,9.0,50.0,6.0,11.0,13.038404810405298,14.0,15.033296378372908,41.012193308819754,30.01666203960727,25.5,23.0,23.0,8.0,18.0,6.0,2.0,10.04987562112089,11.180339887498949,10.5,28.0,29.0,31.064449134018133
229,229,17.029386365926403,53.03772242470448,3.0,9.0,13.038404810405298,15.033296378372908,14.035668847618199,43.0,34.0,25.5,19.0,21.0,6.0,23.0,12.0,3.0,9.055385138137417,10.04987562112089,10.0,28.0,29.0,32.01562118716424
230,230,16.0,53.009433122794285,3.0,10.0,13.038404810405298,16.0312195418814,14.0,43.0,33.0,25.0,19.0,20.0,5.5,23.5,12.5,2.5,9.055385138137417,10.04987562112089,10.0,28.0,29.0,31.0
231,231,15.033296378372908,55.00909015790027,3.0,10.0,15.033296378372908,17.029386365926403,13.038404810405298,41.0,31.0,23.5,17.0,18.0,4.5,23.5,12.5,1.5,10.04987562112089,11.180339887498949,11.0,27.0,28.0,32.01562118716424
232,232,14.0,57.0087712549569,3.0,9.055385138137417,14.035668847618199,16.0312195418814,13.038404810405298,39.0,30.01666203960727,23.0,15.0,16.0,2.5,23.5,12.5,0.5,9.055385138137417,10.198039027185569,10.0,27.0,28.0,31.016124838541646
233,233,14.0,57.0087712549569,3.0,9.055385138137417,14.035668847618199,16.0312195418814,13.038404810405298,39.0,30.01666203960727,23.0,15.0,16.0,2.5,23.5,12.5,0.5,9.055385138137417,10.198039027185569,10.0,27.0,28.0,31.016124838541646
234,234,14.0,58.0,3.0,10.04987562112089,15.033296378372908,16.0312195418814,12.0,39.01281840626232,29.0,22.0,13.0,13.0,1.0,26.0,14.0,2.0,5.0990195135927845,5.0,5.5,27.0,29.0,33.015148038438355
235,235,14.0,58.008620049092706,3.0,9.0,16.0312195418814,16.0312195418814,13.038404810405298,39.01281840626232,30.01666203960727,23.0,14.0,13.0,0.5,25.5,14.5,1.5,4.0,5.0990195135927845,4.5,27.0,31.0,33.0
236,236,12.041594578792296,58.0,3.0,10.04987562112089,15.033296378372908,17.029386365926403,13.038404810405298,38.01315561749642,28.0,22.0,13.0,13.0,0.0,25.0,13.0,2.0,5.0990195135927845,5.0990195135927845,5.5,27.0,28.0,33.015148038438355
237,237,11.0,59.0,3.0,10.0,15.033296378372908,16.0312195418814,13.038404810405298,37.013511046643494,27.018512172212592,21.5,13.0,13.0,0.0,24.0,13.0,2.0,7.0710678118654755,7.0710678118654755,7.0,27.0,29.0,32.01562118716424
238,238,11.0,59.0,3.0,10.0,15.033296378372908,16.0312195418814,13.038404810405298,37.013511046643494,27.018512172212592,21.5,13.0,13.0,0.0,24.0,13.0,2.0,7.0710678118654755,7.0710678118654755,7.0,27.0,29.0,32.01562118716424
239,239,12.041594578792296,57.0087712549569,2.0,9.0,14.035668847618199,16.0312195418814,13.038404810405298,36.0,27.0,21.0,12.0,13.0,0.5,23.5,12.5,2.5,8.06225774829855,9.055385138137417,9.0,27.0,29.0,31.016124838541646
240,240,11.045361017187261,56.0,4.0,9.0,14.035668847618199,15.033296378372908,12.041594578792296,36.0,27.0,21.5,13.0,13.0,1.0,23.0,12.0,2.0,8.06225774829855,9.055385138137417,9.0,27.0,29.0,31.0
241,241,11.0,54.0,3.0,9.0,14.035668847618199,15.033296378372908,13.0,36.0,27.0,21.5,14.0,14.0,1.0,22.0,11.0,2.0,9.055385138137417,9.055385138137417,9.0,27.0,29.0,31.016124838541646
242,242,12.041594578792296,54.00925846556311,3.0,8.0,13.038404810405298,15.132745950421556,13.038404810405298,36.0,28.0,22.0,14.0,15.0,1.5,21.5,11.5,0.5,9.055385138137417,9.219544457292887,9.5,27.0,29.0,30.01666203960727
243,243,8.0,55.036351623268054,3.0,10.0,13.038404810405298,15.033296378372908,14.035668847618199,35.014282800023196,25.019992006393608,21.0,14.0,16.0,1.0,20.0,9.0,1.0,10.04987562112089,10.04987562112089,9.5,27.0,28.0,31.0
244,244,11.045361017187261,55.00909015790027,2.0,9.0,13.038404810405298,15.033296378372908,14.035668847618199,36.0,27.0,21.5,15.0,16.0,1.5,20.5,9.5,0.5,9.219544457292887,10.04987562112089,10.0,28.0,29.0,30.0
245,245,11.045361017187261,54.00925846556311,3.0,9.0,14.035668847618199,15.132745950421556,13.038404810405298,36.0,27.0,21.5,14.0,15.0,1.5,21.5,10.5,0.5,9.055385138137417,9.055385138137417,9.5,27.0,29.0,30.0
246,246,11.045361017187261,55.00909015790027,2.0,9.0,14.035668847618199,15.033296378372908,13.038404810405298,35.0,26.0,20.5,14.0,15.0,1.5,20.5,10.5,0.5,10.04987562112089,10.04987562112089,10.0,28.0,29.0,30.0
247,247,11.045361017187261,54.00925846556311,2.0,9.0,13.038404810405298,15.033296378372908,13.038404810405298,35.0,26.0,20.5,14.0,15.0,1.5,20.5,9.5,0.5,9.055385138137417,9.055385138137417,9.5,27.0,29.0,30.0
248,248,10.0,55.0,3.0,10.0,14.035668847618199,16.0312195418814,13.0,36.0,26.0,21.0,14.0,14.0,1.0,22.0,10.0,1.0,10.198039027185569,10.04987562112089,10.0,27.0,28.0,31.0
249,249,10.0,55.00909015790027,4.0,10.0,15.033296378372908,16.0312195418814,13.0,37.0,27.0,22.0,15.0,16.0,2.5,21.5,9.5,0.5,9.219544457292887,10.04987562112089,10.0,28.0,28.0,30.0
250,250,14.035668847618199,55.00909015790027,3.0,9.0,14.035668847618199,16.0,12.041594578792296,38.0,29.0,22.0,15.0,16.0,3.5,22.5,11.5,0.5,8.06225774829855,7.0710678118654755,7.5,26.0,27.0,31.0
251,251,15.0,54.0,4.0,9.0,14.0,15.033296378372908,12.041594578792296,40.01249804748511,31.016124838541646,23.5,18.0,18.0,6.0,22.0,11.0,3.0,4.0,4.123105625617661,4.0,27.0,29.0,31.0
252,252,14.0,55.0,4.0,11.0,14.035668847618199,16.0312195418814,13.0,42.0,31.0,24.0,19.0,19.0,6.0,23.0,11.0,2.0,3.1622776601683795,4.0,4.5,27.0,27.0,31.0
253,253,14.0,54.0,4.0,11.0,14.035668847618199,16.0312195418814,13.0,42.0,31.0,24.0,19.0,19.0,6.0,23.0,11.0,2.0,4.0,4.0,4.0,27.0,27.0,31.0
254,254,16.0,53.009433122794285,4.0,10.0,14.035668847618199,16.0312195418814,14.035668847618199,44.01136216933077,34.0147027033899,26.0,21.0,22.0,7.5,22.5,11.5,3.5,5.0,5.0990195135927845,5.5,25.0,27.0,31.016124838541646
255,255,16.0,54.0,4.0,10.04987562112089,14.035668847618199,15.033296378372908,14.035668847618199,44.04543109109048,34.0147027033899,26.0,21.0,21.0,7.0,23.0,11.0,3.0,4.0,5.0,5.0,25.0,26.0,31.0
256,256,16.0,53.0,5.0,10.0,14.035668847618199,16.0,13.038404810405298,44.01136216933077,34.0147027033899,26.0,23.0,23.0,10.0,21.0,10.0,5.0,6.082762530298219,6.082762530298219,6.5,25.0,26.0,31.0
257,257,18.0,51.0098029794274,4.0,10.0,14.0,16.0312195418814,14.035668847618199,46.010868281309364,36.013886210738214,27.0,25.0,24.0,10.5,21.5,10.5,6.5,7.0,7.0710678118654755,7.5,24.0,26.0,31.016124838541646
258,258,19.026297590440446,51.0,5.0,9.055385138137417,14.0,15.033296378372908,14.142135623730951,47.042533945356304,38.01315561749642,28.5,25.0,25.0,11.0,22.0,11.0,7.0,9.0,9.055385138137417,9.0,25.0,28.0,32.01562118716424
259,259,21.0,51.0,5.0,9.0,14.0,16.0312195418814,13.038404810405298,48.010415536631214,39.01281840626232,28.5,25.0,25.0,12.0,23.0,12.0,8.0,8.0,9.0,9.0,25.0,27.0,31.0
260,260,22.0,52.03844732503075,5.0,10.0,14.0,16.0,13.038404810405298,50.00999900019995,40.01249804748511,29.0,27.0,25.0,13.0,24.0,13.0,8.0,9.055385138137417,9.055385138137417,9.5,26.0,28.0,30.0
261,261,22.0,51.03920062069938,5.0,10.0,14.0,16.0,13.038404810405298,50.00999900019995,40.01249804748511,29.0,27.0,25.0,13.0,24.0,13.0,8.0,9.0,9.055385138137417,9.0,26.0,28.0,30.0
262,262,21.02379604162864,52.009614495783374,6.0,10.04987562112089,13.0,15.0,14.035668847618199,51.0098029794274,41.0,30.5,27.0,26.0,12.5,24.5,13.5,7.5,9.0,9.055385138137417,9.0,25.0,28.0,31.0
263,263,18.0,52.03844732503075,4.0,8.06225774829855,13.038404810405298,15.033296378372908,14.035668847618199,44.04543109109048,36.013886210738214,27.0,25.0,23.0,10.0,20.0,11.0,6.0,9.055385138137417,10.04987562112089,10.0,26.0,28.0,32.0
264,264,15.0,52.009614495783374,4.0,9.0,14.035668847618199,15.0,13.038404810405298,41.012193308819754,32.01562118716424,24.5,23.0,22.0,9.5,18.5,8.5,5.5,10.04987562112089,9.055385138137417,9.5,26.0,29.0,30.01666203960727
265,265,14.0,50.039984012787215,4.0,9.0,13.0,14.035668847618199,13.152946437965905,40.049968789001575,31.064449134018133,24.0,23.0,21.0,9.0,18.0,8.0,5.0,10.0,9.055385138137417,9.5,27.0,29.0,31.0
266,266,13.038404810405298,50.00999900019995,5.0990195135927845,9.055385138137417,13.0,14.035668847618199,13.038404810405298,40.049968789001575,31.016124838541646,24.5,23.0,22.0,9.5,17.5,7.5,5.5,10.0,10.04987562112089,10.0,26.0,28.0,30.01666203960727
267,267,8.0,48.041648597857254,7.0,10.0,12.0,14.035668847618199,14.142135623730951,39.05124837953327,29.068883707497267,25.0,24.0,22.0,9.0,16.0,5.0,2.0,10.04987562112089,10.04987562112089,10.0,29.0,30.0,31.0
268,268,8.06225774829855,48.041648597857254,6.0,11.0,12.0,13.0,15.033296378372908,40.049968789001575,29.068883707497267,25.0,25.0,23.0,9.0,16.0,4.0,3.0,11.045361017187261,11.045361017187261,11.0,28.0,29.0,31.0
269,269,7.0,49.01020301937138,7.0,11.0,12.0,14.0,15.132745950421556,40.049968789001575,29.068883707497267,25.5,24.0,23.0,8.5,16.5,4.5,2.5,11.045361017187261,10.04987562112089,10.5,29.0,31.0,31.016124838541646
270,270,1.0,49.0,5.0,10.0,13.0,14.0,17.029386365926403,33.015148038438355,23.021728866442675,22.5,21.0,21.0,4.0,12.0,0.0,0.0,10.04987562112089,11.045361017187261,11.0,28.0,30.0,33.0
271,271,1.0,49.0,6.0,10.0,13.0,14.0,16.0312195418814,33.015148038438355,23.021728866442675,22.5,21.0,21.0,5.0,12.0,1.0,0.0,10.04987562112089,11.045361017187261,11.0,28.0,30.0,33.0
272,272,1.0,48.0,5.0990195135927845,10.0,13.0,14.0,16.0312195418814,32.0624390837628,22.090722034374522,21.5,20.0,20.0,4.0,12.0,1.0,0.0,10.04987562112089,10.0,10.0,28.0,30.0,32.01562118716424
273,273,5.0,48.0,5.0,10.0,13.038404810405298,14.0,15.033296378372908,35.014282800023196,25.019992006393608,22.5,21.0,21.0,6.0,14.0,3.0,1.0,10.04987562112089,10.04987562112089,10.5,29.0,31.0,33.0
274,274,6.082762530298219,49.01020301937138,5.0,11.045361017187261,13.0,14.0,16.1245154965971,38.05259518088089,27.018512172212592,24.0,23.0,22.0,6.5,15.5,3.5,2.5,11.180339887498949,11.045361017187261,11.0,28.0,30.0,32.01562118716424
275,275,4.0,49.01020301937138,6.0,11.0,12.0,14.0,16.0312195418814,37.013511046643494,26.019223662515376,24.0,23.0,22.0,6.5,14.5,2.5,1.5,10.04987562112089,11.045361017187261,11.0,28.0,30.0,32.0
276,276,5.0990195135927845,49.01020301937138,6.0,12.0,13.0,14.0,15.132745950421556,38.01315561749642,26.019223662515376,23.5,23.0,22.0,7.5,15.5,2.5,1.5,11.045361017187261,11.045361017187261,11.0,28.0,30.0,32.01562118716424
277,277,7.0,50.0,6.0,11.0,13.038404810405298,15.0,14.142135623730951,38.05259518088089,27.073972741361768,23.5,21.0,21.0,7.0,17.0,4.0,1.0,10.04987562112089,10.04987562112089,10.0,29.0,30.0,32.0
278,278,10.0,53.009433122794285,5.0,10.0,13.038404810405298,15.033296378372908,13.038404810405298,38.01315561749642,28.0178514522438,23.0,20.0,21.0,7.5,17.5,6.5,2.5,10.04987562112089,10.198039027185569,10.0,29.0,30.0,33.0
279,279,11.0,54.00925846556311,4.0,11.0,13.0,14.0,13.152946437965905,39.05124837953327,28.071337695236398,22.5,19.0,20.0,6.5,19.5,7.5,2.5,10.198039027185569,11.045361017187261,11.0,29.0,30.0,31.0
280,280,11.0,54.00925846556311,4.0,11.0,13.0,14.0,13.152946437965905,39.05124837953327,28.071337695236398,22.5,19.0,20.0,6.5,19.5,7.5,2.5,10.198039027185569,11.045361017187261,11.0,29.0,30.0,31.0
281,281,12.0,53.0,4.0,10.04987562112089,14.0,15.0,14.035668847618199,40.049968789001575,30.01666203960727,24.0,21.0,21.0,7.0,19.0,8.0,4.0,10.04987562112089,10.04987562112089,10.0,28.0,29.0,31.0
282,282,13.0,53.0,4.0,10.0,14.0,16.0,14.035668847618199,41.012193308819754,31.016124838541646,24.5,20.0,20.0,6.0,21.0,9.0,3.0,9.055385138137417,10.04987562112089,10.0,28.0,29.0,32.0
283,283,13.0,52.009614495783374,4.0,10.0,14.0,15.0,14.035668847618199,41.012193308819754,31.016124838541646,24.5,21.0,20.0,6.5,20.5,8.5,3.5,9.055385138137417,10.04987562112089,10.0,28.0,29.0,31.0
284,284,5.0,47.01063709417264,7.0,11.0,12.0,14.0,14.035668847618199,37.013511046643494,26.019223662515376,23.5,23.0,22.0,8.5,14.5,2.5,2.5,10.04987562112089,11.045361017187261,11.0,27.0,29.0,33.0
285,285,5.0,47.01063709417264,7.0,11.0,13.0,14.0,14.142135623730951,37.05401462729781,26.076809620810597,23.5,23.0,22.0,8.5,14.5,2.5,2.5,10.198039027185569,11.045361017187261,11.0,27.0,29.0,32.0
286,286,5.0,45.0,6.0,10.0,11.0,13.0,15.033296378372908,36.013886210738214,26.019223662515376,23.5,24.0,24.0,9.0,12.0,1.0,3.0,10.04987562112089,10.04987562112089,10.0,28.0,29.0,33.0
287,287,8.0,48.010415536631214,5.0,11.0,12.041594578792296,14.0,16.0312195418814,40.01249804748511,29.017236257093817,25.0,24.0,25.0,8.5,15.5,2.5,3.5,5.0,6.0,6.0,27.0,30.0,32.0
288,288,11.0,49.0,5.0,11.0,13.038404810405298,15.0,16.0312195418814,43.01162633521314,32.01562118716424,26.5,24.0,24.0,8.0,19.0,6.0,3.0,5.0,5.0990195135927845,5.5,27.0,30.0,33.0
289,289,6.0,46.0,6.0,12.0,13.0,13.0,16.0,40.0,28.0,25.0,25.0,25.0,9.0,15.0,2.0,4.0,6.082762530298219,7.0,7.0,27.0,29.0,32.01562118716424
290,290,7.0,46.010868281309364,6.0,12.0,12.0,14.0,15.0,40.0,28.0,24.5,25.0,24.0,9.5,15.5,2.5,3.5,7.0710678118654755,7.0710678118654755,7.5,27.0,29.0,32.0
291,291,4.0,46.0,6.0,12.0,13.0,13.0,16.0312195418814,38.01315561749642,26.019223662515376,24.0,25.0,25.0,9.0,13.0,0.0,3.0,8.06225774829855,8.06225774829855,8.5,28.0,29.0,33.0
292,292,9.0,49.0,4.0,10.0,12.041594578792296,14.035668847618199,15.033296378372908,38.01315561749642,28.0178514522438,23.5,22.0,22.0,7.0,16.0,5.0,3.0,9.055385138137417,9.055385138137417,9.0,27.0,29.0,31.0
293,293,10.0,51.0,4.0,10.04987562112089,14.0,15.0,15.033296378372908,39.05124837953327,29.017236257093817,24.0,22.0,22.0,7.0,17.0,6.0,4.0,9.055385138137417,9.055385138137417,9.0,28.0,29.0,31.0
294,294,11.045361017187261,51.0,4.0,10.0,13.038404810405298,15.0,15.0,40.01249804748511,30.01666203960727,24.5,22.0,22.0,7.0,18.0,7.0,3.0,8.06225774829855,9.055385138137417,9.0,27.0,28.0,31.016124838541646
295,295,12.0,51.0,4.0,10.0,13.0,15.033296378372908,14.035668847618199,40.01249804748511,30.01666203960727,24.0,21.0,21.0,7.0,19.0,7.0,4.0,9.055385138137417,9.055385138137417,9.0,27.0,29.0,31.016124838541646
296,296,11.0,51.0098029794274,4.0,10.0,13.0,14.0,14.035668847618199,39.01281840626232,29.017236257093817,23.5,21.0,20.0,6.5,18.5,7.5,3.5,10.04987562112089,10.04987562112089,10.0,26.0,28.0,30.0
297,297,11.045361017187261,51.0098029794274,4.0,10.0,13.038404810405298,15.0,15.033296378372908,40.0,30.0,24.5,22.0,21.0,6.5,18.5,7.5,2.5,9.055385138137417,10.04987562112089,10.0,27.0,29.0,31.0
298,298,12.0,50.039984012787215,5.0,11.0,14.0,15.0,14.035668847618199,42.01190307520001,31.016124838541646,25.0,22.0,20.0,7.0,21.0,9.0,3.0,10.04987562112089,10.04987562112089,10.0,27.0,30.0,33.015148038438355
299,299,13.0,50.039984012787215,3.0,11.0,13.038404810405298,14.0,14.035668847618199,41.012193308819754,30.01666203960727,23.5,21.0,19.0,6.0,21.0,9.0,3.0,10.04987562112089,10.04987562112089,10.0,27.0,30.0,31.016124838541646
300,300,13.0,50.039984012787215,4.0,10.0,14.0,15.0,14.035668847618199,41.012193308819754,31.016124838541646,24.5,22.0,20.0,7.0,20.0,9.0,4.0,10.04987562112089,10.04987562112089,10.0,27.0,30.0,33.0
301,301,13.0,50.00999900019995,3.0,9.0,13.038404810405298,15.0,13.038404810405298,38.01315561749642,29.017236257093817,22.5,20.0,19.0,6.5,18.5,7.5,3.5,10.04987562112089,10.04987562112089,10.0,26.0,28.0,31.0
302,302,11.0,50.00999900019995,3.0,10.0,13.0,14.0,13.038404810405298,37.013511046643494,27.018512172212592,21.5,20.0,19.0,6.5,17.5,5.5,3.5,10.04987562112089,10.04987562112089,10.0,27.0,29.0,31.0
303,303,12.0,51.0098029794274,3.0,9.0,13.0,15.0,13.038404810405298,37.013511046643494,28.0178514522438,22.0,20.0,19.0,6.5,17.5,6.5,3.5,10.198039027185569,10.04987562112089,10.0,26.0,28.0,32.0
304,304,10.0,51.0098029794274,4.0,10.0,13.0,15.0,13.0,37.0,27.0,22.0,20.0,19.0,6.5,17.5,6.5,3.5,10.04987562112089,10.04987562112089,10.0,27.0,28.0,32.0
305,305,10.0,52.009614495783374,4.0,10.0,14.0,15.0,13.038404810405298,37.013511046643494,27.018512172212592,22.0,20.0,19.0,6.5,17.5,6.5,3.5,10.198039027185569,10.04987562112089,10.0,27.0,28.0,31.016124838541646
306,306,10.0,51.0098029794274,3.0,10.0,13.038404810405298,15.0,13.038404810405298,36.013886210738214,26.019223662515376,21.0,20.0,19.0,6.5,16.5,5.5,3.5,10.04987562112089,10.04987562112089,10.0,26.0,28.0,31.0
307,307,10.04987562112089,52.009614495783374,3.0,9.0,13.038404810405298,15.0,14.142135623730951,36.013886210738214,27.018512172212592,22.0,21.0,20.0,6.5,15.5,4.5,3.5,9.055385138137417,10.04987562112089,10.0,27.0,28.0,32.0
308,308,10.04987562112089,52.009614495783374,3.0,9.0,13.038404810405298,15.0,14.142135623730951,36.013886210738214,27.018512172212592,22.0,21.0,20.0,6.5,15.5,4.5,3.5,9.055385138137417,10.04987562112089,10.0,27.0,28.0,32.0
309,309,10.0,50.00999900019995,4.0,10.0,13.038404810405298,15.0,13.0,37.0,27.0,22.0,21.0,20.0,7.5,16.5,5.5,3.5,10.04987562112089,10.04987562112089,10.5,27.0,29.0,31.016124838541646
310,310,10.0,51.0098029794274,4.0,10.0,12.0,14.0,14.035668847618199,38.01315561749642,28.0178514522438,23.0,22.0,21.0,7.5,16.5,5.5,4.5,10.04987562112089,10.198039027185569,10.0,27.0,28.0,31.0
311,311,7.0710678118654755,50.0,3.0,10.0,13.038404810405298,14.0,15.132745950421556,35.014282800023196,25.019992006393608,21.5,21.0,21.0,6.0,14.0,3.0,3.0,5.0,6.082762530298219,6.0,26.0,28.0,31.0
312,312,8.0,49.0,3.0,9.0,14.035668847618199,14.0,15.0,35.0,26.0,22.0,21.0,21.0,6.0,14.0,4.0,3.0,6.0,6.082762530298219,6.0,26.0,29.0,31.0
313,313,5.0,48.0,4.0,8.0,14.035668847618199,15.0,17.029386365926403,34.0147027033899,26.019223662515376,23.5,22.0,22.0,5.0,12.0,3.0,1.0,4.0,4.0,4.5,25.0,28.0,31.0
314,314,2.0,48.010415536631214,4.0,8.0,13.038404810405298,14.035668847618199,18.027756377319946,32.01562118716424,24.020824298928627,23.0,22.0,23.0,4.5,9.5,0.5,0.5,5.0,5.0,5.5,26.0,28.0,31.016124838541646
315,315,3.0,50.00999900019995,4.0,9.0,13.0,14.0,18.027756377319946,34.0147027033899,25.019992006393608,23.5,23.0,24.0,5.5,10.5,0.5,1.5,6.0,6.082762530298219,6.5,26.0,28.0,31.016124838541646
316,316,5.0,50.0,5.0,8.0,13.038404810405298,13.038404810405298,18.027756377319946,36.013886210738214,28.0178514522438,25.5,26.0,26.0,8.0,10.0,1.0,3.0,8.0,7.0710678118654755,7.5,26.0,28.0,30.0
317,317,4.0,51.0098029794274,5.0,9.0,13.038404810405298,13.038404810405298,18.027756377319946,36.013886210738214,27.018512172212592,25.0,25.0,26.0,7.5,10.5,0.5,2.5,7.0,8.06225774829855,8.0,26.0,28.0,30.0
318,318,5.0,51.0098029794274,5.0,8.0,13.0,13.038404810405298,18.027756377319946,36.013886210738214,28.0178514522438,25.5,26.0,27.0,8.5,9.5,0.5,3.5,9.055385138137417,9.055385138137417,9.0,26.0,29.0,30.0
319,319,11.0,51.0098029794274,5.0,10.0,12.0,14.0,16.0312195418814,42.01190307520001,32.01562118716424,26.5,26.0,25.0,9.5,16.5,5.5,4.5,10.04987562112089,9.055385138137417,9.0,27.0,29.0,32.01562118716424
320,320,15.0,52.009614495783374,5.0,10.0,14.035668847618199,16.0,16.0312195418814,46.010868281309364,36.013886210738214,28.5,27.0,26.0,10.5,19.5,8.5,5.5,9.055385138137417,9.055385138137417,9.0,26.0,29.0,32.0
321,321,18.0,52.009614495783374,4.0,11.0,14.0,15.0,16.0312195418814,49.01020301937138,38.01315561749642,29.0,27.0,26.0,10.5,22.5,10.5,6.5,9.055385138137417,9.055385138137417,9.5,26.0,29.0,32.01562118716424
322,322,17.029386365926403,51.0098029794274,5.0,10.04987562112089,13.0,15.0,16.0312195418814,48.010415536631214,38.0,29.5,27.0,26.0,10.5,21.5,10.5,6.5,9.055385138137417,10.04987562112089,9.5,26.0,30.0,32.0
323,323,22.0,50.00999900019995,5.0,11.0,13.0,15.033296378372908,15.033296378372908,53.009433122794285,42.01190307520001,31.0,28.0,27.0,12.5,25.5,13.5,8.5,10.04987562112089,10.04987562112089,10.0,26.0,29.0,31.016124838541646
324,324,23.0,53.03772242470448,5.0,10.0,14.0,16.0,15.0,53.0,43.0,31.5,28.0,26.0,12.0,26.0,15.0,7.0,10.04987562112089,10.0,10.0,28.0,30.0,32.01562118716424
325,325,16.0,57.0350769263968,4.0,10.0,14.0,16.0,15.0,45.0,35.0,27.0,23.0,21.0,7.0,23.0,12.0,4.0,9.055385138137417,10.04987562112089,10.0,28.0,29.0,32.0
326,326,14.0,56.00892785976178,4.0,10.04987562112089,14.0,15.0,15.0,43.01162633521314,33.0,26.0,21.0,20.0,5.5,22.5,11.5,2.5,9.055385138137417,10.04987562112089,10.0,27.0,29.0,31.0
327,327,15.0,56.00892785976178,4.0,9.055385138137417,14.0,15.0,14.0,42.01190307520001,33.0,25.5,20.0,19.0,5.5,22.5,11.5,2.5,10.04987562112089,10.04987562112089,10.0,27.0,29.0,31.0
328,328,15.0,55.0,3.0,9.0,15.033296378372908,16.0312195418814,14.035668847618199,41.012193308819754,32.01562118716424,24.5,19.0,19.0,5.0,22.0,11.0,2.0,9.055385138137417,10.04987562112089,10.0,27.0,28.0,32.0
329,329,13.038404810405298,56.00892785976178,3.0,9.0,15.033296378372908,16.0,15.0,40.01249804748511,31.016124838541646,24.5,20.0,19.0,4.5,20.5,10.5,1.5,10.04987562112089,10.04987562112089,10.0,27.0,28.0,32.0
330,330,14.035668847618199,54.037024344425184,4.0,10.0,14.0,15.0,14.035668847618199,42.0,32.0,25.0,21.0,19.0,6.0,22.0,11.0,3.0,9.055385138137417,10.04987562112089,10.0,27.0,28.0,32.0
331,331,14.035668847618199,54.00925846556311,4.0,10.0,13.0,14.0,14.0,42.01190307520001,32.01562118716424,25.0,21.0,20.0,6.5,21.5,10.5,3.5,10.04987562112089,11.045361017187261,11.0,28.0,29.0,31.016124838541646
332,332,14.035668847618199,53.009433122794285,4.0,10.0,13.038404810405298,14.0,14.035668847618199,42.0,32.0,25.0,22.0,21.0,7.5,20.5,9.5,3.5,10.04987562112089,10.198039027185569,10.5,28.0,29.0,31.0
333,333,11.0,52.0,4.0,10.0,14.0,15.033296378372908,14.035668847618199,39.01281840626232,29.017236257093817,23.5,21.0,21.0,7.0,18.0,7.0,4.0,10.198039027185569,10.04987562112089,10.0,26.0,28.0,31.0
334,334,9.0,49.01020301937138,4.0,10.0,13.0,13.038404810405298,13.152946437965905,36.05551275463989,26.076809620810597,21.5,21.0,20.0,7.5,15.5,4.5,4.5,10.198039027185569,10.04987562112089,10.0,27.0,29.0,31.0
335,335,8.0,46.0,5.0,11.0,12.041594578792296,13.0,13.038404810405298,37.013511046643494,26.019223662515376,22.0,22.0,22.0,9.0,15.0,3.0,4.0,10.04987562112089,11.045361017187261,11.0,27.0,28.0,31.0
336,336,9.0,47.0,4.0,10.0,12.165525060596439,13.038404810405298,13.038404810405298,36.013886210738214,26.019223662515376,21.5,21.0,21.0,8.0,15.0,3.0,4.0,10.04987562112089,10.04987562112089,10.5,27.0,28.0,31.0
337,337,6.0,44.0,5.0,11.0,11.0,12.0,14.035668847618199,36.013886210738214,25.019992006393608,22.0,22.0,22.0,8.0,14.0,2.0,4.0,9.055385138137417,10.04987562112089,10.0,27.0,28.0,31.0
338,338,1.0,45.0111097397076,6.0,10.0,12.0,13.038404810405298,16.0312195418814,33.015148038438355,23.021728866442675,22.5,21.0,22.0,5.5,11.5,0.5,0.5,9.055385138137417,9.055385138137417,9.0,27.0,28.0,31.0
339,339,2.0,46.0,5.0,11.0,12.041594578792296,13.038404810405298,17.0,35.0,24.0,23.0,23.0,23.0,6.0,12.0,0.0,1.0,4.0,4.0,4.0,27.0,29.0,31.0
340,340,4.123105625617661,48.0,6.0,11.0,12.0,13.038404810405298,16.0312195418814,37.0,26.0,24.0,24.0,24.0,8.0,13.0,1.0,2.0,4.123105625617661,4.0,4.5,28.0,29.0,31.016124838541646
341,341,4.123105625617661,47.0,6.0,11.0,12.041594578792296,13.0,16.0312195418814,37.0,26.0,24.0,24.0,24.0,8.0,13.0,1.0,2.0,4.0,3.0,3.5,28.0,28.0,32.0
342,342,11.0,49.01020301937138,4.0,9.0,12.041594578792296,13.038404810405298,14.0,38.0,29.0,23.5,23.0,24.0,9.5,14.5,3.5,4.5,5.0990195135927845,6.0,6.5,28.0,28.0,31.0
343,343,12.041594578792296,50.0,4.0,10.0,13.038404810405298,14.0,14.035668847618199,40.0,30.0,24.0,23.0,23.0,9.0,17.0,6.0,5.0,7.0,8.06225774829855,8.0,27.0,28.0,32.01562118716424
344,344,11.0,49.01020301937138,5.0,11.0,12.0,14.0,14.0,41.0,30.0,24.5,23.0,24.0,9.5,17.5,5.5,5.5,8.06225774829855,9.055385138137417,8.5,28.0,28.0,31.0
345,345,6.0,48.010415536631214,6.0,11.0,12.041594578792296,13.038404810405298,15.0,38.0,27.0,24.0,23.0,24.0,8.5,14.5,2.5,2.5,9.055385138137417,10.0,10.0,28.0,29.0,32.0
346,346,6.0,48.010415536631214,6.0,11.0,12.041594578792296,13.038404810405298,15.0,38.0,27.0,24.0,23.0,24.0,8.5,14.5,2.5,2.5,9.055385138137417,10.0,9.5,28.0,29.0,32.0
347,347,9.0,50.0,5.0,10.0,12.041594578792296,13.038404810405298,15.033296378372908,39.01281840626232,29.017236257093817,24.5,23.0,23.0,8.0,16.0,5.0,3.0,9.0,10.04987562112089,10.0,28.0,29.0,33.015148038438355
348,348,13.0,51.0,4.0,10.0,12.041594578792296,14.0,14.0,41.0,31.0,24.5,22.0,22.0,8.0,19.0,7.0,4.0,10.04987562112089,9.055385138137417,9.5,29.0,29.0,33.015148038438355
349,349,12.041594578792296,52.0,4.0,10.0,13.038404810405298,15.033296378372908,14.035668847618199,40.0,30.0,24.0,22.0,22.0,8.0,18.0,7.0,4.0,9.055385138137417,9.055385138137417,9.0,28.0,29.0,33.015148038438355
350,350,15.0,53.009433122794285,4.0,10.0,13.0,15.0,14.0,43.0,33.0,25.5,23.0,22.0,8.5,20.5,9.5,5.5,10.04987562112089,10.04987562112089,10.0,28.0,28.0,31.016124838541646
351,351,16.0,52.009614495783374,4.0,10.0,14.0,15.0,13.0,43.0,33.0,25.0,22.0,21.0,8.5,21.5,10.5,5.5,10.04987562112089,10.04987562112089,10.0,28.0,29.0,32.01562118716424
352,352,14.0,52.0,4.0,10.0,13.038404810405298,15.033296378372908,13.038404810405298,41.012193308819754,31.016124838541646,24.0,22.0,22.0,9.0,19.0,8.0,5.0,9.219544457292887,10.0,10.0,28.0,28.0,32.0
353,353,12.0,51.0,4.0,10.0,13.038404810405298,15.033296378372908,13.038404810405298,39.01281840626232,29.017236257093817,23.0,22.0,22.0,9.0,17.0,6.0,5.0,9.055385138137417,10.04987562112089,10.0,28.0,28.0,33.0
354,354,12.0,51.0098029794274,3.0,10.0,13.038404810405298,15.033296378372908,14.035668847618199,39.01281840626232,29.017236257093817,23.0,21.0,22.0,7.5,17.5,6.5,4.5,9.055385138137417,10.04987562112089,10.0,28.0,28.0,33.0
355,355,13.0,51.0,3.0,10.0,13.038404810405298,14.0,13.038404810405298,39.01281840626232,29.017236257093817,22.5,21.0,21.0,8.0,18.0,7.0,5.0,10.04987562112089,10.04987562112089,10.0,28.0,28.0,32.0
356,356,14.0,50.0,4.0,10.0,13.038404810405298,15.0,13.038404810405298,41.012193308819754,31.016124838541646,24.0,22.0,22.0,9.0,19.0,7.0,5.0,9.055385138137417,10.0,10.0,27.0,27.0,33.015148038438355
357,357,13.0,51.0,5.0,10.04987562112089,13.0,15.033296378372908,14.035668847618199,42.0,32.01562118716424,25.5,23.0,23.0,9.0,19.0,8.0,5.0,10.04987562112089,10.04987562112089,10.5,28.0,27.0,30.0
358,358,14.035668847618199,51.0,4.0,11.0,13.038404810405298,15.033296378372908,13.038404810405298,42.0,31.0,24.0,22.0,22.0,9.0,20.0,8.0,5.0,10.04987562112089,10.04987562112089,10.0,28.0,27.0,30.01666203960727
359,359,13.0,51.0,5.0,10.04987562112089,13.0,15.033296378372908,13.038404810405298,41.0,31.016124838541646,24.5,22.0,22.0,9.0,19.0,8.0,5.0,9.219544457292887,10.04987562112089,10.0,28.0,27.0,30.0
360,360,13.0,51.0098029794274,4.0,11.0,14.035668847618199,15.0,14.0,42.0,31.0,24.5,23.0,22.0,8.5,19.5,7.5,4.5,10.04987562112089,10.04987562112089,10.5,27.0,26.0,30.0
361,361,14.0,51.0098029794274,4.0,10.0,13.038404810405298,15.0,14.035668847618199,42.01190307520001,32.01562118716424,25.0,23.0,22.0,8.5,19.5,8.5,4.5,10.198039027185569,10.04987562112089,10.0,28.0,28.0,29.0
362,362,16.0312195418814,52.03844732503075,4.0,10.0,13.0,15.0,14.035668847618199,44.0,34.0,26.0,24.0,22.0,9.0,21.0,10.0,6.0,5.0,5.0,5.0,28.0,28.0,30.01666203960727
363,363,16.0,51.03920062069938,4.0,10.0,14.0,15.0,14.0,44.0,34.0,26.0,24.0,22.0,9.0,21.0,10.0,6.0,3.0,3.0,3.0,28.0,29.0,30.0
364,364,16.0,51.03920062069938,4.0,10.0,14.0,15.0,14.0,44.0,34.0,26.0,24.0,22.0,9.0,21.0,10.0,6.0,3.0,3.0,3.0,28.0,29.0,30.0
365,365,12.041594578792296,50.00999900019995,5.0,10.0,14.0,15.033296378372908,14.035668847618199,41.0,31.0,25.0,24.0,23.0,9.5,17.5,6.5,5.5,5.0990195135927845,5.0,5.5,27.0,27.0,31.016124838541646
366,366,7.0,49.0,4.0,8.0,14.0,14.035668847618199,16.0,35.0,27.0,23.5,23.0,23.0,7.0,12.0,2.0,3.0,7.0710678118654755,7.0710678118654755,7.5,27.0,28.0,29.017236257093817
367,367,4.0,50.00999900019995,5.0,9.0,12.0,14.035668847618199,16.0312195418814,34.0147027033899,25.019992006393608,23.0,23.0,24.0,7.5,10.5,0.5,2.5,9.055385138137417,9.0,9.0,28.0,28.0,29.0
368,368,11.0,50.0,5.0,10.0,13.0,14.035668847618199,16.0,42.0,32.0,26.5,25.0,25.0,9.0,17.0,6.0,5.0,9.0,9.055385138137417,9.0,27.0,28.0,29.0
369,369,12.0,50.0,5.0,10.0,12.0,14.0,16.0,43.0,33.0,27.0,25.0,25.0,9.0,18.0,7.0,5.0,8.06225774829855,10.04987562112089,9.5,27.0,28.0,29.0
370,370,17.0,51.0,4.0,9.055385138137417,13.038404810405298,14.035668847618199,15.0,45.0111097397076,36.0,27.5,25.0,25.0,10.0,20.0,9.0,6.0,9.055385138137417,10.04987562112089,10.0,28.0,29.0,31.0
371,371,14.0,51.0,4.0,10.0,13.038404810405298,15.0,14.0,42.0,32.0,25.0,23.0,23.0,9.0,19.0,8.0,5.0,10.198039027185569,10.04987562112089,10.0,29.0,29.0,31.0
372,372,12.0,50.00999900019995,5.0,10.0,14.035668847618199,15.0,13.038404810405298,40.01249804748511,30.01666203960727,24.0,23.0,24.0,10.5,16.5,4.5,5.5,10.04987562112089,10.04987562112089,10.0,28.0,29.0,31.0
373,373,12.0,50.00999900019995,5.0,10.04987562112089,13.038404810405298,15.033296378372908,13.038404810405298,40.0,30.01666203960727,24.0,22.0,23.0,9.5,17.5,5.5,4.5,10.198039027185569,10.04987562112089,10.0,29.0,30.0,32.0
374,374,5.0,49.01020301937138,5.0,9.055385138137417,13.038404810405298,13.0,15.033296378372908,34.0,25.019992006393608,22.5,22.0,23.0,7.5,11.5,1.5,2.5,10.04987562112089,10.04987562112089,11.0,29.0,30.0,30.0
375,375,1.0,48.0,5.0,9.0,12.041594578792296,12.041594578792296,15.033296378372908,30.01666203960727,21.02379604162864,20.5,22.0,22.0,7.0,8.0,2.0,2.0,10.04987562112089,10.04987562112089,10.0,28.0,30.0,31.016124838541646
376,376,8.0,47.01063709417264,4.0,9.055385138137417,12.041594578792296,13.0,16.0312195418814,37.05401462729781,28.0178514522438,24.0,24.0,23.0,7.5,13.5,3.5,3.5,10.04987562112089,11.045361017187261,11.0,28.0,31.0,30.0
377,377,13.038404810405298,50.00999900019995,4.0,11.0,13.0,14.0,16.0312195418814,44.0,33.0,26.5,25.0,24.0,8.5,19.5,7.5,5.5,10.198039027185569,10.04987562112089,10.0,28.0,31.0,33.015148038438355
378,378,13.038404810405298,50.00999900019995,4.0,11.0,13.0,14.0,16.0312195418814,44.0,33.0,26.5,25.0,24.0,8.5,19.5,7.5,5.5,10.198039027185569,10.04987562112089,10.0,28.0,31.0,33.015148038438355
379,379,13.038404810405298,52.009614495783374,4.123105625617661,9.0,14.0,14.035668847618199,16.0,42.0,33.0,26.5,24.0,23.0,7.5,18.5,8.5,4.5,11.045361017187261,11.045361017187261,11.0,28.0,30.0,31.0
380,380,12.041594578792296,51.03920062069938,5.0,10.0,13.0,14.0,15.033296378372908,42.0,32.0,26.0,24.0,22.0,8.0,19.0,8.0,4.0,10.04987562112089,11.045361017187261,11.0,28.0,31.0,33.0
381,381,6.082762530298219,47.042533945356304,6.082762530298219,11.045361017187261,13.0,14.0,14.035668847618199,37.05401462729781,26.019223662515376,23.0,23.0,21.0,8.0,15.0,3.0,2.0,11.180339887498949,11.045361017187261,11.0,29.0,31.0,32.0
382,382,3.0,46.010868281309364,5.0,10.0,12.041594578792296,13.0,15.033296378372908,33.015148038438355,23.021728866442675,21.5,21.0,20.0,5.5,12.5,1.5,0.5,11.045361017187261,11.045361017187261,11.0,30.0,31.0,32.0
383,383,3.0,46.010868281309364,5.0,10.0,12.0,13.0,15.033296378372908,33.015148038438355,23.021728866442675,21.5,21.0,20.0,5.5,12.5,1.5,1.5,10.04987562112089,10.04987562112089,10.0,29.0,31.0,32.0
384,384,4.0,46.010868281309364,5.0,10.0,12.0,14.0,16.0312195418814,35.014282800023196,25.019992006393608,23.0,22.0,21.0,5.5,13.5,2.5,1.5,11.180339887498949,11.045361017187261,11.0,29.0,30.0,30.0
385,385,4.0,47.0,5.0,12.041594578792296,13.0,14.0,16.0312195418814,37.0,25.019992006393608,23.0,22.0,22.0,6.0,15.0,2.0,2.0,10.04987562112089,10.04987562112089,10.0,29.0,29.0,30.0
386,386,11.0,49.01020301937138,4.0,10.0,12.0,14.0,14.0,39.0,29.0,23.5,21.0,20.0,6.5,18.5,6.5,3.5,10.04987562112089,10.04987562112089,10.0,29.0,28.0,30.0
387,387,11.045361017187261,49.01020301937138,4.0,10.0,13.0,14.0,15.033296378372908,40.0,30.0,24.5,22.0,21.0,6.5,18.5,7.5,2.5,10.04987562112089,10.04987562112089,10.0,29.0,29.0,31.016124838541646
388,388,12.0,50.0,4.0,10.0,13.038404810405298,15.0,13.038404810405298,39.01281840626232,29.017236257093817,23.0,20.0,20.0,7.0,19.0,8.0,3.0,10.04987562112089,10.04987562112089,10.0,29.0,28.0,31.016124838541646
389,389,13.0,51.0098029794274,3.0,10.0,12.041594578792296,14.0,14.035668847618199,40.01249804748511,30.01666203960727,23.5,19.0,18.0,4.5,21.5,10.5,1.5,9.055385138137417,9.055385138137417,9.0,28.0,28.0,31.0
390,390,13.0,51.0098029794274,3.0,10.04987562112089,13.038404810405298,15.0,14.035668847618199,40.0,30.01666203960727,23.5,19.0,18.0,4.5,21.5,10.5,1.5,10.04987562112089,9.055385138137417,9.5,28.0,28.0,31.0
391,391,12.0,53.009433122794285,5.0,10.0,13.0,15.0,14.0,41.0,31.0,25.0,18.0,17.0,3.5,23.5,11.5,0.5,9.219544457292887,9.055385138137417,9.0,28.0,27.0,32.0
392,392,15.0,54.00925846556311,2.0,9.0,14.035668847618199,15.0,14.0,40.0,31.0,23.5,15.0,16.0,1.5,24.5,14.5,0.5,9.219544457292887,10.198039027185569,10.0,28.0,28.0,31.0
393,393,13.0,54.0,3.0,9.0,13.038404810405298,15.0,14.0,39.0,30.0,23.5,16.0,16.0,2.0,23.0,13.0,0.0,10.04987562112089,10.198039027185569,10.0,28.0,28.0,31.0
394,394,13.0,54.0,2.0,9.0,12.041594578792296,15.0,14.0,38.0,29.0,22.5,16.0,16.0,2.0,22.0,12.0,0.0,10.04987562112089,10.04987562112089,10.0,28.0,28.0,31.0
395,395,13.0,54.00925846556311,2.0,9.0,13.038404810405298,15.0,13.038404810405298,37.013511046643494,28.0178514522438,21.5,15.0,14.0,1.5,22.5,12.5,0.5,10.04987562112089,10.04987562112089,10.0,28.0,28.0,31.016124838541646
396,396,12.0,53.009433122794285,3.0,9.0,14.035668847618199,15.0,13.038404810405298,37.013511046643494,28.0178514522438,22.0,16.0,15.0,2.5,21.5,11.5,0.5,9.055385138137417,10.04987562112089,10.0,27.0,26.0,31.016124838541646
397,397,13.0,51.0,3.0,9.0,14.035668847618199,15.033296378372908,14.0,39.0,30.0,23.5,18.0,18.0,4.0,21.0,10.0,1.0,9.219544457292887,10.04987562112089,10.0,28.0,27.0,30.0
398,398,13.038404810405298,52.009614495783374,4.0,9.0,13.038404810405298,15.033296378372908,14.0,40.01249804748511,31.016124838541646,24.5,18.0,19.0,4.5,21.5,10.5,1.5,4.123105625617661,5.0,5.0,28.0,28.0,32.0624390837628
399,399,12.0,51.03920062069938,3.1622776601683795,9.055385138137417,13.152946437965905,14.035668847618199,14.035668847618199,38.01315561749642,29.0,23.0,18.0,20.0,5.0,19.0,8.0,2.0,3.1622776601683795,3.1622776601683795,3.5,29.0,27.0,31.064449134018133
400,400,12.0,51.03920062069938,3.1622776601683795,9.055385138137417,13.152946437965905,14.035668847618199,14.035668847618199,38.01315561749642,29.0,23.0,18.0,20.0,5.0,19.0,8.0,2.0,3.1622776601683795,3.1622776601683795,3.5,29.0,27.0,31.064449134018133
401,401,4.0,48.16637831516918,4.123105625617661,9.055385138137417,13.152946437965905,13.038404810405298,14.0,31.064449134018133,22.02271554554524,20.0,17.0,21.0,5.0,12.0,1.0,1.0,4.123105625617661,5.0,4.5,31.0,24.0,33.13608305156178
402,402,1.4142135623730951,47.51841748206689,5.0990195135927845,9.219544457292887,12.165525060596439,13.152946437965905,14.0,29.274562336608895,20.09975124224178,19.5,15.0,22.0,4.5,10.5,1.5,0.5,7.280109889280518,7.0710678118654755,7.5,32.0,21.0,32.2490309931942
403,403,1.4142135623730951,46.87216658103186,5.0990195135927845,10.198039027185569,12.165525060596439,13.341664064126334,15.033296378372908,31.400636936215164,21.213203435596427,20.5,15.0,24.0,4.5,11.5,0.5,0.5,8.246211251235321,7.280109889280518,7.5,34.0,20.0,32.55764119219941
404,404,1.4142135623730951,46.87216658103186,5.0990195135927845,10.198039027185569,12.165525060596439,13.341664064126334,15.033296378372908,31.400636936215164,21.213203435596427,20.5,15.0,24.0,4.5,11.5,0.5,0.5,8.246211251235321,7.280109889280518,7.5,34.0,20.0,32.55764119219941
405,405,4.123105625617661,48.05205510693585,6.082762530298219,11.180339887498949,13.152946437965905,14.142135623730951,15.132745950421556,36.49657518178932,25.317977802344327,23.0,15.0,25.0,5.0,16.0,3.0,1.0,8.54400374531753,9.055385138137417,9.0,35.0,19.0,31.575306807693888
406,406,12.041594578792296,50.99019513592785,3.605551275463989,9.486832980505138,13.341664064126334,14.560219778561036,15.132745950421556,39.81205847478876,30.4138126514911,24.0,15.0,25.0,5.0,19.0,7.0,1.0,9.486832980505138,9.219544457292887,9.0,36.0,18.0,31.78049716414141
407,407,12.165525060596439,51.19570294468082,3.1622776601683795,10.198039027185569,13.341664064126334,15.297058540778355,14.317821063276353,39.81205847478876,29.614185789921695,23.0,13.0,24.0,4.5,20.5,7.5,0.5,9.486832980505138,9.055385138137417,9.5,36.0,18.0,30.59411708155671
408,408,11.180339887498949,51.97114584074513,4.123105625617661,10.44030650891055,14.560219778561036,15.297058540778355,13.152946437965905,38.8329756778952,28.442925306655784,22.5,13.0,23.0,5.0,20.0,7.0,0.0,9.486832980505138,10.198039027185569,9.5,36.0,18.0,31.78049716414141
409,409,12.165525060596439,52.952809179494906,3.1622776601683795,10.198039027185569,13.601470508735444,15.297058540778355,13.152946437965905,38.63935817272331,28.442925306655784,22.0,13.0,23.0,5.0,20.0,7.0,0.0,9.486832980505138,8.06225774829855,8.5,36.0,18.0,30.59411708155671
410,410,9.219544457292887,53.150729063673246,3.1622776601683795,10.198039027185569,14.560219778561036,16.492422502470642,13.152946437965905,35.6931365951495,25.495097567963924,20.5,12.0,23.0,4.5,17.5,5.5,0.5,9.486832980505138,9.219544457292887,9.5,36.0,17.0,30.59411708155671
411,411,6.082762530298219,51.97114584074513,3.605551275463989,9.219544457292887,14.560219778561036,14.317821063276353,14.142135623730951,32.7566787083184,23.53720459187964,20.0,12.0,22.0,3.0,15.0,4.0,1.0,9.486832980505138,9.055385138137417,9.0,35.0,17.0,30.805843601498726
412,412,1.0,51.78802950489621,5.385164807134504,10.198039027185569,14.317821063276353,14.317821063276353,15.033296378372908,30.59411708155671,20.396078054371138,20.0,13.0,22.0,2.5,12.5,0.5,3.5,9.486832980505138,10.04987562112089,10.0,36.0,18.0,30.59411708155671
413,413,1.0,51.78802950489621,5.385164807134504,9.219544457292887,14.142135623730951,15.297058540778355,15.033296378372908,29.614185789921695,20.396078054371138,20.0,13.0,22.0,2.5,11.5,0.5,2.5,9.486832980505138,9.055385138137417,9.0,36.0,18.0,30.59411708155671
414,414,1.0,51.78802950489621,5.385164807134504,9.219544457292887,14.142135623730951,15.297058540778355,15.033296378372908,29.614185789921695,20.396078054371138,20.0,13.0,22.0,2.5,11.5,0.5,2.5,9.486832980505138,9.055385138137417,9.0,36.0,18.0,30.59411708155671
415,415,1.4142135623730951,51.97114584074513,5.0990195135927845,9.219544457292887,15.297058540778355,15.524174696260024,16.1245154965971,29.614185789921695,20.396078054371138,20.5,13.0,23.0,2.0,11.0,0.0,3.0,9.486832980505138,9.055385138137417,9.0,35.0,18.0,29.614185789921695
416,416,1.0,51.19570294468082,5.0990195135927845,9.486832980505138,13.152946437965905,13.341664064126334,15.033296378372908,29.614185789921695,20.223748416156685,20.0,13.0,24.0,3.5,10.5,0.5,1.5,9.486832980505138,10.04987562112089,10.0,34.0,18.0,31.575306807693888
417,417,2.8284271247461903,51.78802950489621,5.0990195135927845,9.055385138137417,13.341664064126334,15.297058540778355,16.0312195418814,32.38826948140329,23.345235059857504,22.0,16.0,25.0,4.5,11.5,0.5,1.5,9.486832980505138,9.055385138137417,9.5,33.0,19.0,31.400636936215164
418,418,8.06225774829855,52.46903848937962,6.0,9.219544457292887,13.152946437965905,14.317821063276353,15.033296378372908,38.2099463490856,29.068883707497267,25.0,20.0,27.0,8.5,14.5,3.5,2.5,8.246211251235321,8.06225774829855,8.5,32.0,21.0,31.25699921617557
419,419,8.06225774829855,52.46903848937962,6.0,9.219544457292887,13.152946437965905,14.317821063276353,15.033296378372908,38.2099463490856,29.068883707497267,25.0,20.0,27.0,8.5,14.5,3.5,2.5,8.246211251235321,8.06225774829855,8.5,32.0,21.0,31.25699921617557
420,420,15.033296378372908,51.15662224971465,5.0990195135927845,10.04987562112089,13.038404810405298,15.033296378372908,15.0,45.09988913511872,35.05709628591621,27.5,23.0,27.0,10.0,20.0,9.0,5.0,4.123105625617661,5.0,5.0,29.0,23.0,31.144823004794873
421,421,16.0312195418814,53.08483775994799,5.0,10.0,14.035668847618199,15.033296378372908,14.0,45.0111097397076,35.014282800023196,27.0,23.0,26.0,10.5,20.5,9.5,5.5,4.123105625617661,4.0,4.0,28.0,23.0,32.0624390837628
422,422,18.0,52.0,5.0,10.04987562112089,14.035668847618199,15.0,14.035668847618199,47.0,37.013511046643494,28.0,26.0,26.0,12.0,21.0,10.0,7.0,6.0,6.0,6.0,26.0,25.0,30.01666203960727
423,423,20.024984394500787,51.0098029794274,5.0,9.055385138137417,13.0,15.0,13.038404810405298,47.01063709417264,38.0,28.0,26.0,25.0,12.5,21.5,11.5,7.5,7.0,6.082762530298219,6.0,26.0,27.0,31.016124838541646
424,424,20.024984394500787,51.0098029794274,5.0,9.055385138137417,13.0,15.0,13.038404810405298,47.01063709417264,38.0,28.0,26.0,25.0,12.5,21.5,11.5,7.5,7.0,6.082762530298219,6.0,26.0,27.0,31.016124838541646
425,425,24.0,52.08646657242167,5.0990195135927845,9.0,13.0,16.0312195418814,13.038404810405298,51.03920062069938,42.04759208325728,30.0,28.0,25.0,13.5,24.5,14.5,9.5,7.0,8.0,7.5,25.0,28.0,31.0
426,426,26.0,52.15361924162119,5.0,10.0,13.038404810405298,15.033296378372908,13.152946437965905,54.037024344425184,44.04543109109048,31.0,29.0,25.0,14.0,27.0,16.0,10.0,8.06225774829855,7.0710678118654755,7.5,25.0,28.0,32.01562118716424
427,427,26.0,52.15361924162119,5.0,8.0,13.0,16.0,13.038404810405298,52.009614495783374,44.01136216933077,31.0,29.0,25.0,14.0,25.0,16.0,10.0,8.0,8.06225774829855,8.5,24.0,29.0,31.016124838541646
428,428,9.0,51.088159097779204,5.0,8.06225774829855,13.038404810405298,13.0,17.029386365926403,39.05124837953327,31.016124838541646,26.5,26.0,23.0,7.5,14.5,6.5,3.5,9.055385138137417,10.04987562112089,9.5,24.0,30.0,31.016124838541646
429,429,9.0,51.088159097779204,5.0,8.06225774829855,13.038404810405298,13.0,17.029386365926403,39.05124837953327,31.016124838541646,26.5,26.0,23.0,7.5,14.5,6.5,3.5,9.055385138137417,10.04987562112089,9.5,24.0,30.0,31.016124838541646
430,430,6.0,48.16637831516918,6.0,8.06225774829855,12.041594578792296,13.038404810405298,16.1245154965971,36.124783736376884,28.071337695236398,25.0,26.0,22.0,8.0,12.0,4.0,3.0,8.0,9.055385138137417,9.0,24.0,31.0,32.0624390837628
431,431,13.0,47.51841748206689,5.0990195135927845,9.055385138137417,13.038404810405298,14.035668847618199,16.1245154965971,43.18564576337837,34.132096331752024,27.5,28.0,21.0,8.5,18.5,9.5,4.5,10.0,10.198039027185569,9.5,25.0,32.0,31.016124838541646
432,432,13.0,47.51841748206689,6.082762530298219,10.198039027185569,11.180339887498949,13.152946437965905,15.132745950421556,44.28317965096906,34.132096331752024,27.5,26.0,19.0,7.5,21.5,10.5,3.5,10.0,9.219544457292887,9.0,24.0,33.0,33.06055050963308
433,433,14.035668847618199,48.662100242385755,5.0990195135927845,10.04987562112089,12.041594578792296,13.341664064126334,15.132745950421556,44.28317965096906,34.23448553724738,27.0,27.0,19.0,8.0,21.0,11.0,4.0,10.0,9.219544457292887,9.5,24.0,33.0,33.06055050963308
434,434,13.0,48.662100242385755,4.0,9.219544457292887,12.041594578792296,13.152946437965905,15.297058540778355,41.30375285612676,32.14031735997639,25.5,25.0,17.0,6.0,20.0,10.0,3.0,9.0,9.219544457292887,9.0,22.0,32.0,32.2490309931942
435,435,12.0,50.80354318352215,3.1622776601683795,9.219544457292887,12.165525060596439,14.317821063276353,15.132745950421556,39.319206502675,30.14962686336267,24.0,25.0,16.0,5.5,18.5,9.5,3.5,9.0,9.219544457292887,9.0,23.0,34.0,30.14962686336267
436,436,11.0,49.64876634922564,4.123105625617661,10.04987562112089,13.152946437965905,14.142135623730951,14.317821063276353,39.319206502675,29.274562336608895,23.5,24.0,16.0,6.0,19.0,9.0,4.0,10.0,9.486832980505138,9.5,23.0,33.0,30.14962686336267
437,437,11.0,50.635955604688654,3.0,9.219544457292887,12.165525060596439,14.142135623730951,15.297058540778355,38.3275357934736,29.154759474226502,23.5,24.0,16.0,5.0,18.0,9.0,4.0,10.0,9.219544457292887,9.5,23.0,33.0,30.14962686336267
438,438,13.0,49.49747468305833,3.0,9.219544457292887,13.038404810405298,15.033296378372908,14.142135623730951,39.20459156782532,30.066592756745816,23.5,23.0,16.0,5.5,19.5,9.5,3.5,9.0,9.486832980505138,9.5,22.0,32.0,31.144823004794873
439,439,11.0,50.48762224545735,4.0,9.219544457292887,14.0,15.033296378372908,14.317821063276353,38.3275357934736,29.154759474226502,23.5,24.0,17.0,6.5,17.5,7.5,3.5,9.0,9.219544457292887,9.5,22.0,31.0,29.154759474226502
440,440,6.0,49.49747468305833,3.1622776601683795,9.055385138137417,13.038404810405298,14.035668847618199,14.142135623730951,32.2490309931942,23.194827009486403,20.0,22.0,15.0,4.5,13.5,4.5,2.5,10.0,9.219544457292887,9.5,22.0,30.0,29.154759474226502
441,441,2.0,48.373546489791295,4.123105625617661,9.055385138137417,13.038404810405298,14.142135623730951,14.142135623730951,29.274562336608895,20.223748416156685,19.0,21.0,15.0,4.0,11.0,2.0,1.0,9.0,9.219544457292887,9.5,22.0,31.0,30.14962686336267
442,442,2.23606797749979,48.373546489791295,4.123105625617661,9.219544457292887,13.038404810405298,14.035668847618199,14.317821063276353,29.427877939124322,20.223748416156685,19.0,21.0,15.0,4.0,11.0,2.0,1.0,10.0,10.198039027185569,10.0,22.0,31.0,30.14962686336267
443,443,5.0,49.49747468305833,6.0,12.041594578792296,13.038404810405298,14.142135623730951,13.341664064126334,36.22154055254967,24.186773244895647,21.5,22.0,15.0,5.5,17.5,5.5,1.5,9.0,9.219544457292887,9.5,23.0,31.0,29.154759474226502
444,444,9.0,50.35871324805669,4.0,10.198039027185569,13.152946437965905,14.142135623730951,14.317821063276353,37.33630940518894,27.16615541441225,22.5,22.0,16.0,5.0,18.0,8.0,3.0,9.055385138137417,9.219544457292887,9.0,22.0,31.0,29.068883707497267
445,445,7.0,50.35871324805669,5.0,10.198039027185569,12.041594578792296,13.152946437965905,13.341664064126334,35.35533905932738,25.179356624028344,21.5,22.0,16.0,6.0,16.0,5.0,2.0,9.055385138137417,9.219544457292887,9.5,22.0,30.0,29.154759474226502
446,446,6.0,47.265209192385896,5.0,11.045361017187261,12.041594578792296,13.038404810405298,13.341664064126334,35.22782990761707,24.186773244895647,21.0,21.0,16.0,5.5,16.5,4.5,1.5,10.04987562112089,10.198039027185569,10.0,23.0,31.0,29.068883707497267
447,447,6.0,47.265209192385896,5.0,11.045361017187261,12.041594578792296,13.038404810405298,13.341664064126334,35.22782990761707,24.186773244895647,21.0,21.0,16.0,5.5,16.5,4.5,1.5,10.04987562112089,10.198039027185569,10.0,23.0,31.0,29.068883707497267
448,448,5.0,48.25971404805462,5.0990195135927845,11.045361017187261,12.041594578792296,13.038404810405298,14.142135623730951,35.22782990761707,24.186773244895647,21.5,22.0,17.0,5.5,15.5,4.5,1.5,10.0,10.198039027185569,9.5,24.0,30.0,29.068883707497267
449,449,10.0,48.16637831516918,3.0,9.055385138137417,12.041594578792296,13.038404810405298,14.142135623730951,36.124783736376884,27.073972741361768,22.0,21.0,17.0,5.0,17.0,7.0,3.0,4.123105625617661,5.385164807134504,4.5,25.0,31.0,31.064449134018133
450,450,11.0,50.15974481593781,3.1622776601683795,10.0,13.0,14.035668847618199,14.035668847618199,38.05259518088089,28.071337695236398,22.5,22.0,18.0,6.0,18.0,8.0,4.0,4.123105625617661,4.123105625617661,4.0,25.0,31.0,31.064449134018133
451,451,13.0,50.08991914547278,3.0,10.04987562112089,14.0,15.033296378372908,13.152946437965905,39.11521443121589,29.068883707497267,22.5,20.0,17.0,5.5,20.5,9.5,2.5,5.0,5.0990195135927845,5.0,25.0,30.0,32.01562118716424
452,452,13.0,50.15974481593781,3.0,10.04987562112089,13.0,15.033296378372908,14.142135623730951,40.11234224026316,30.066592756745816,23.5,22.0,18.0,6.0,20.0,9.0,3.0,4.0,5.0990195135927845,5.0,25.0,30.0,31.064449134018133
453,453,11.0,49.09175083453431,5.0,11.0,13.0,14.035668847618199,14.142135623730951,41.048751503547585,30.066592756745816,24.5,22.0,19.0,6.5,20.5,8.5,2.5,6.0,6.082762530298219,6.0,25.0,29.0,31.016124838541646
454,454,2.0,48.010415536631214,5.0,10.0,14.0,14.0,16.1245154965971,33.06055050963308,23.08679276123039,22.0,20.0,19.0,3.5,13.5,2.5,0.5,8.06225774829855,7.0710678118654755,7.5,26.0,29.0,31.016124838541646
455,455,2.0,49.01020301937138,5.0,10.0,13.0,15.0,16.1245154965971,33.06055050963308,23.08679276123039,22.0,20.0,19.0,3.5,13.5,1.5,0.5,8.06225774829855,8.06225774829855,8.5,26.0,29.0,30.0
456,456,1.0,47.01063709417264,5.0,10.0,15.0,15.0,16.1245154965971,32.0624390837628,22.090722034374522,21.5,21.0,20.0,4.5,11.5,0.5,0.5,10.0,9.055385138137417,9.0,26.0,29.0,30.01666203960727
457,457,1.0,47.01063709417264,5.0,10.0,15.0,15.0,16.1245154965971,32.0624390837628,22.090722034374522,21.5,21.0,20.0,4.5,11.5,0.5,0.5,10.0,9.055385138137417,9.0,26.0,29.0,30.01666203960727
458,458,1.4142135623730951,48.010415536631214,6.0,10.04987562112089,14.0,15.0,16.278820596099706,33.13608305156178,23.08679276123039,22.5,21.0,20.0,4.5,12.5,1.5,0.5,10.04987562112089,10.198039027185569,10.0,27.0,29.0,31.016124838541646
459,459,4.123105625617661,47.042533945356304,6.0,11.045361017187261,14.0,15.033296378372908,17.11724276862369,38.05259518088089,27.018512172212592,25.0,25.0,23.0,7.0,14.0,2.0,2.0,10.04987562112089,10.04987562112089,10.0,28.0,30.0,31.0
460,460,4.0,49.01020301937138,6.0,12.0,14.0,16.0312195418814,16.1245154965971,38.05259518088089,26.076809620810597,24.0,23.0,22.0,6.5,15.5,3.5,1.5,10.04987562112089,10.198039027185569,10.0,28.0,31.0,31.016124838541646
461,461,5.0,48.010415536631214,6.0,11.0,14.0,16.0,16.1245154965971,38.05259518088089,27.073972741361768,24.5,23.0,22.0,6.5,15.5,3.5,1.5,10.04987562112089,10.198039027185569,10.0,28.0,31.0,31.016124838541646
462,462,8.0,50.00999900019995,4.0,10.0,13.0,14.0,16.1245154965971,38.05259518088089,28.071337695236398,24.0,22.0,21.0,5.5,16.5,4.5,2.5,10.04987562112089,11.045361017187261,10.5,27.0,30.0,30.01666203960727
463,463,10.0,50.0,3.0,10.0,13.0,14.0,15.132745950421556,38.05259518088089,28.071337695236398,23.0,20.0,20.0,5.0,18.0,7.0,2.0,10.04987562112089,10.04987562112089,10.0,27.0,30.0,32.0
464,464,11.0,51.0,3.0,10.0,13.0,14.0,15.132745950421556,39.05124837953327,29.068883707497267,23.5,20.0,20.0,5.0,19.0,8.0,2.0,10.198039027185569,11.045361017187261,10.5,28.0,31.0,31.0
465,465,11.0,52.009614495783374,4.0,10.0,14.0,14.0,14.035668847618199,39.01281840626232,29.017236257093817,23.5,20.0,19.0,5.5,19.5,7.5,1.5,10.04987562112089,10.04987562112089,10.0,28.0,30.0,31.016124838541646
466,466,11.0,51.03920062069938,4.0,10.0,13.0,14.0,14.035668847618199,39.01281840626232,29.017236257093817,23.5,20.0,18.0,5.0,20.0,9.0,2.0,10.04987562112089,10.198039027185569,10.0,28.0,30.0,31.016124838541646
467,467,14.035668847618199,52.03844732503075,3.0,9.0,14.0,16.0,14.142135623730951,40.01249804748511,31.016124838541646,24.0,20.0,18.0,5.0,21.0,11.0,3.0,10.04987562112089,10.04987562112089,10.0,28.0,30.0,31.016124838541646
468,468,14.0,52.03844732503075,3.0,10.0,13.0,16.0312195418814,14.035668847618199,41.012193308819754,31.016124838541646,24.0,20.0,18.0,5.0,22.0,11.0,3.0,10.04987562112089,11.045361017187261,10.5,27.0,29.0,30.0
469,469,16.0,54.037024344425184,3.0,10.0,14.0,16.0312195418814,13.038404810405298,42.01190307520001,32.01562118716424,24.0,19.0,17.0,5.0,24.0,13.0,3.0,10.04987562112089,10.04987562112089,10.0,27.0,29.0,31.0
470,470,16.0,55.036351623268054,3.0,10.0,15.0,16.0312195418814,14.035668847618199,43.01162633521314,33.015148038438355,25.0,20.0,18.0,5.0,24.0,13.0,3.0,10.04987562112089,10.04987562112089,10.5,29.0,30.0,33.0
471,471,16.0,55.036351623268054,3.0,10.0,15.0,16.0312195418814,14.035668847618199,43.01162633521314,33.015148038438355,25.0,20.0,18.0,5.0,24.0,13.0,3.0,10.04987562112089,10.04987562112089,10.5,29.0,30.0,33.0
472,472,16.0,54.00925846556311,3.0,9.0,15.0,16.0,14.035668847618199,42.01190307520001,33.015148038438355,25.0,19.0,18.0,4.5,23.5,12.5,1.5,11.180339887498949,11.045361017187261,11.0,29.0,31.0,32.0
473,473,12.0,55.00909015790027,5.0,10.0,14.0,16.0,15.0,42.0,32.0,26.0,20.0,19.0,4.5,22.5,11.5,0.5,12.165525060596439,11.045361017187261,11.5,31.0,32.0,33.0
474,474,13.0,55.00909015790027,4.0,9.0,14.0,17.0,15.0,41.0,32.0,25.5,19.0,18.0,3.5,22.5,12.5,0.5,12.041594578792296,12.041594578792296,12.0,30.0,31.0,33.015148038438355
475,475,13.0,55.00909015790027,5.0,10.0,14.0,16.0,15.0,43.0,33.0,26.5,19.0,18.0,3.5,24.5,13.5,1.5,12.165525060596439,11.045361017187261,11.5,31.0,32.0,35.0
476,476,12.0,55.036351623268054,5.0,10.0,14.0,16.0,16.0,43.0,33.0,27.0,20.0,18.0,3.0,24.0,13.0,1.0,12.165525060596439,12.041594578792296,12.0,30.0,32.0,34.0
477,477,13.038404810405298,56.0,5.0,9.0,13.0,15.0,16.0312195418814,43.0,34.0,27.5,18.0,18.0,2.0,25.0,15.0,2.0,11.045361017187261,11.045361017187261,11.5,29.0,31.0,35.0
478,478,12.0,56.00892785976178,4.0,9.0,13.0,15.0,16.0,41.0,32.0,26.0,18.0,17.0,1.5,23.5,12.5,1.5,11.180339887498949,11.045361017187261,11.0,30.0,31.0,34.0
479,479,12.0,56.00892785976178,4.0,9.0,13.0,15.0,16.0,41.0,32.0,26.0,18.0,17.0,1.5,23.5,12.5,1.5,11.180339887498949,11.045361017187261,11.0,30.0,31.0,34.0
480,480,12.0,53.009433122794285,3.0,9.0,12.041594578792296,14.0,16.0,40.0,31.0,25.0,19.0,18.0,2.5,21.5,11.5,0.5,11.045361017187261,10.04987562112089,10.5,29.0,31.0,34.0
481,481,12.0,51.0098029794274,3.0,9.0,12.041594578792296,13.038404810405298,15.0,39.0,30.0,24.0,20.0,19.0,4.5,19.5,9.5,1.5,10.04987562112089,11.045361017187261,11.0,28.0,31.0,33.015148038438355
482,482,8.0,50.00999900019995,5.0,10.0,12.041594578792296,13.0,16.0312195418814,39.01281840626232,29.017236257093817,25.0,22.0,21.0,5.5,17.5,6.5,0.5,10.04987562112089,11.045361017187261,11.0,27.0,31.0,33.015148038438355
483,483,9.0,49.01020301937138,4.123105625617661,10.0,13.0,14.0,16.0312195418814,39.05124837953327,29.068883707497267,24.5,21.0,20.0,4.5,18.5,7.5,0.5,10.04987562112089,10.04987562112089,10.0,28.0,32.0,33.015148038438355
484,484,9.0,49.01020301937138,4.123105625617661,10.0,13.0,14.0,16.0312195418814,39.05124837953327,29.068883707497267,24.5,21.0,20.0,4.5,18.5,7.5,0.5,10.04987562112089,10.04987562112089,10.0,28.0,32.0,33.015148038438355
485,485,12.0,51.03920062069938,4.0,10.0,12.0,14.0,15.132745950421556,41.048751503547585,31.064449134018133,25.0,21.0,19.0,5.0,21.0,10.0,2.0,10.04987562112089,10.198039027185569,10.5,27.0,32.0,33.06055050963308
486,486,10.04987562112089,52.08646657242167,6.0,10.0,13.0,14.0,14.035668847618199,40.049968789001575,30.066592756745816,25.0,21.0,18.0,5.5,20.5,9.5,0.5,10.04987562112089,10.198039027185569,10.0,27.0,31.0,32.01562118716424
487,487,12.0,51.03920062069938,4.0,9.0,12.041594578792296,14.035668847618199,14.142135623730951,39.05124837953327,30.066592756745816,24.0,21.0,19.0,6.0,19.0,8.0,2.0,9.055385138137417,9.219544457292887,9.5,26.0,30.0,32.01562118716424
488,488,8.0,51.0098029794274,5.0,10.0,13.0,14.035668847618199,15.132745950421556,38.05259518088089,28.071337695236398,24.0,20.0,19.0,4.5,18.5,7.5,0.5,10.04987562112089,10.04987562112089,10.5,28.0,31.0,32.01562118716424
489,489,8.0,51.0098029794274,5.0,10.0,13.0,14.035668847618199,15.132745950421556,38.05259518088089,28.071337695236398,24.0,20.0,19.0,4.5,18.5,7.5,0.5,10.04987562112089,10.04987562112089,10.5,28.0,31.0,32.01562118716424
490,490,3.1622776601683795,49.01020301937138,6.0,11.0,13.038404810405298,14.035668847618199,15.132745950421556,35.014282800023196,24.020824298928627,22.5,19.0,20.0,4.5,15.5,2.5,0.5,10.198039027185569,10.198039027185569,10.0,27.0,29.0,32.0
491,491,6.082762530298219,50.08991914547278,4.0,10.0,12.041594578792296,14.142135623730951,14.0,34.0147027033899,24.020824298928627,21.0,17.0,20.0,4.5,15.5,4.5,0.5,10.198039027185569,9.055385138137417,10.0,28.0,28.0,31.0
492,492,10.04987562112089,51.088159097779204,3.0,10.0,14.035668847618199,15.033296378372908,14.0,37.013511046643494,27.018512172212592,22.0,17.0,20.0,4.5,18.5,6.5,1.5,6.082762530298219,6.082762530298219,6.0,28.0,28.0,32.0
493,493,12.041594578792296,52.08646657242167,4.0,10.04987562112089,14.142135623730951,15.033296378372908,13.0,39.05124837953327,29.017236257093817,23.0,17.0,20.0,5.5,20.5,8.5,1.5,4.123105625617661,5.0990195135927845,4.5,28.0,29.0,32.0
494,494,12.041594578792296,52.08646657242167,3.0,10.0,15.033296378372908,17.029386365926403,14.0,39.01281840626232,29.017236257093817,23.0,17.0,20.0,4.5,20.5,8.5,2.5,4.0,4.0,4.5,27.0,28.0,32.0
495,495,14.035668847618199,53.08483775994799,3.0,10.0,14.035668847618199,16.0312195418814,14.0,41.012193308819754,31.016124838541646,24.0,17.0,20.0,4.5,22.5,11.5,1.5,6.082762530298219,6.0,6.5,28.0,28.0,33.0
496,496,14.0,52.009614495783374,3.1622776601683795,10.0,15.033296378372908,17.029386365926403,13.0,40.01249804748511,30.01666203960727,23.0,17.0,18.0,4.5,22.5,10.5,1.5,7.280109889280518,7.0710678118654755,7.5,28.0,27.0,31.0
497,497,13.038404810405298,53.03772242470448,3.0,10.04987562112089,15.033296378372908,15.033296378372908,13.0,39.05124837953327,29.017236257093817,22.5,16.0,18.0,4.0,22.0,11.0,1.0,8.246211251235321,9.055385138137417,9.0,30.0,28.0,31.016124838541646
498,498,12.041594578792296,53.03772242470448,4.0,9.0,14.035668847618199,16.0312195418814,13.0,38.01315561749642,29.017236257093817,23.0,16.0,18.0,4.0,21.0,10.0,1.0,9.219544457292887,9.055385138137417,9.0,30.0,28.0,31.016124838541646
499,499,12.0,53.03772242470448,3.0,9.055385138137417,14.035668847618199,16.0312195418814,14.0,38.01315561749642,29.0,23.0,16.0,18.0,3.0,21.0,10.0,1.0,9.055385138137417,9.055385138137417,9.0,29.0,28.0,32.0
500,500,11.045361017187261,54.037024344425184,3.0,9.0,15.033296378372908,16.1245154965971,14.035668847618199,37.0,28.0,22.5,16.0,18.0,3.0,20.0,9.0,0.0,9.219544457292887,9.055385138137417,9.0,29.0,27.0,31.016124838541646
501,501,11.0,53.08483775994799,3.0,9.0,14.142135623730951,15.033296378372908,14.0,37.0,28.0,22.5,16.0,19.0,3.5,19.5,8.5,0.5,9.219544457292887,10.0,9.5,29.0,27.0,30.0
502,502,13.038404810405298,54.037024344425184,3.0,9.0,14.035668847618199,16.1245154965971,13.0,38.01315561749642,29.017236257093817,22.5,16.0,18.0,4.0,21.0,10.0,1.0,9.055385138137417,9.055385138137417,9.5,29.0,28.0,31.0
503,503,13.038404810405298,54.037024344425184,3.0,9.0,14.035668847618199,16.1245154965971,13.0,38.01315561749642,29.017236257093817,22.5,16.0,18.0,4.0,21.0,10.0,1.0,9.055385138137417,9.055385138137417,9.5,29.0,28.0,31.0
504,504,13.038404810405298,54.037024344425184,3.0,10.0,15.033296378372908,16.0312195418814,14.0,40.01249804748511,30.01666203960727,23.5,17.0,19.0,4.0,22.0,11.0,1.0,9.219544457292887,9.055385138137417,9.0,28.0,27.0,31.016124838541646
505,505,13.038404810405298,53.009433122794285,4.0,10.0,15.033296378372908,16.0312195418814,13.0,40.01249804748511,30.01666203960727,23.5,17.0,18.0,4.5,22.5,10.5,1.5,9.055385138137417,10.04987562112089,10.0,28.0,26.0,31.016124838541646
506,506,14.035668847618199,54.00925846556311,4.0,10.0,14.035668847618199,16.0,13.0,41.012193308819754,31.016124838541646,24.0,18.0,19.0,5.5,22.5,11.5,1.5,9.219544457292887,9.055385138137417,9.5,28.0,26.0,30.01666203960727
507,507,14.0,55.00909015790027,4.0,10.0,14.035668847618199,16.0,13.0,41.0,31.0,24.0,18.0,19.0,5.5,22.5,11.5,1.5,8.06225774829855,9.055385138137417,9.0,29.0,27.0,31.016124838541646
508,508,15.0,54.037024344425184,4.123105625617661,9.0,15.0,17.029386365926403,13.038404810405298,41.0,32.0,24.5,18.0,20.0,6.0,22.0,11.0,3.0,9.055385138137417,10.0,10.0,28.0,26.0,31.016124838541646
509,509,16.0,53.0,3.0,9.0,15.033296378372908,16.0312195418814,13.0,41.0,32.0,24.0,20.0,20.0,7.0,21.0,11.0,4.0,9.219544457292887,9.055385138137417,9.5,28.0,25.0,32.0624390837628
510,510,15.0,55.00909015790027,3.0,9.055385138137417,14.035668847618199,16.0312195418814,14.0,41.012193308819754,32.0,24.5,19.0,20.0,5.5,21.5,11.5,2.5,9.055385138137417,10.04987562112089,9.5,28.0,26.0,30.01666203960727
511,511,13.0,55.036351623268054,4.0,9.0,13.038404810405298,15.033296378372908,14.035668847618199,40.01249804748511,31.016124838541646,24.5,19.0,21.0,6.0,20.0,9.0,2.0,9.219544457292887,10.04987562112089,10.0,28.0,27.0,31.0
512,512,16.0312195418814,55.036351623268054,3.0,9.0,13.038404810405298,15.0,15.0,43.01162633521314,34.0147027033899,26.0,21.0,23.0,7.0,21.0,10.0,4.0,11.180339887498949,11.045361017187261,11.0,30.0,29.0,33.015148038438355
513,513,16.0312195418814,55.036351623268054,3.0,9.0,13.038404810405298,15.0,15.0,43.01162633521314,34.0147027033899,26.0,21.0,23.0,7.0,21.0,10.0,4.0,11.180339887498949,11.045361017187261,11.0,30.0,29.0,33.015148038438355
514,514,15.033296378372908,52.009614495783374,4.123105625617661,10.0,13.038404810405298,14.0,14.0,43.04648650006177,33.06055050963308,25.5,24.0,25.0,10.5,18.5,7.5,6.5,11.180339887498949,11.045361017187261,11.5,29.0,28.0,34.0147027033899
515,515,11.045361017187261,45.044422518220834,5.0,10.04987562112089,11.045361017187261,13.038404810405298,14.0,40.049968789001575,30.01666203960727,24.5,25.0,27.0,12.0,14.0,3.0,7.0,12.041594578792296,12.041594578792296,11.5,31.0,30.0,33.015148038438355
516,516,6.082762530298219,42.0,6.0,11.0,11.0,12.041594578792296,16.0312195418814,39.0,28.0,25.0,27.0,27.0,11.0,12.0,0.0,5.0,11.045361017187261,11.045361017187261,11.5,30.0,30.0,31.016124838541646
517,517,6.082762530298219,43.0,6.082762530298219,11.0,11.0,12.0,17.0,40.049968789001575,29.068883707497267,26.0,28.0,28.0,11.0,12.0,1.0,5.0,11.180339887498949,12.041594578792296,11.5,29.0,30.0,31.016124838541646
518,518,6.082762530298219,43.0,6.082762530298219,11.0,11.0,12.0,17.0,40.049968789001575,29.068883707497267,26.0,28.0,28.0,11.0,12.0,1.0,5.0,11.180339887498949,12.041594578792296,11.5,29.0,30.0,31.016124838541646
519,519,8.0,46.0,6.082762530298219,13.0,13.0,13.0,17.0,44.01136216933077,31.016124838541646,27.0,27.0,27.0,10.0,17.0,3.0,4.0,10.04987562112089,11.045361017187261,11.0,28.0,29.0,32.01562118716424
520,520,14.035668847618199,52.03844732503075,4.0,10.0,13.038404810405298,15.0,17.0,45.0111097397076,35.014282800023196,28.0,24.0,26.0,8.0,20.0,9.0,4.0,9.055385138137417,9.055385138137417,9.0,28.0,28.0,31.0
521,521,16.0,52.0,3.0,10.0,14.035668847618199,15.0,15.0,44.0,34.0,26.0,23.0,23.0,8.0,21.0,9.0,5.0,4.123105625617661,5.0,5.0,26.0,29.0,32.01562118716424
522,522,13.038404810405298,52.0,4.0,10.04987562112089,13.038404810405298,15.0,15.033296378372908,42.01190307520001,32.0,25.5,23.0,23.0,8.0,19.0,7.0,4.0,5.0990195135927845,5.0990195135927845,5.5,27.0,29.0,32.01562118716424
523,523,13.0,51.0098029794274,3.0,10.0,14.035668847618199,15.0,16.0312195418814,42.01190307520001,32.01562118716424,25.5,23.0,24.0,7.5,18.5,7.5,4.5,5.0990195135927845,5.0,5.5,26.0,28.0,32.0
524,524,10.04987562112089,51.0098029794274,4.0,10.0,13.038404810405298,14.0,15.033296378372908,39.0,29.0,24.0,22.0,23.0,7.5,16.5,4.5,3.5,6.0,7.0710678118654755,7.0,29.0,29.0,31.016124838541646
525,525,8.0,50.00999900019995,5.0,12.0,13.038404810405298,15.033296378372908,15.0,40.0,28.0,24.0,22.0,23.0,7.5,17.5,4.5,2.5,8.06225774829855,8.06225774829855,8.0,29.0,28.0,32.01562118716424
526,526,9.0,48.010415536631214,4.123105625617661,10.0,13.038404810405298,15.033296378372908,14.035668847618199,37.0,27.0,22.5,22.0,23.0,8.5,14.5,3.5,4.5,8.246211251235321,8.0,8.5,28.0,28.0,33.015148038438355
527,527,2.23606797749979,49.0,5.0,9.0,13.038404810405298,13.038404810405298,15.033296378372908,31.0,22.0,21.0,21.0,21.0,6.0,10.0,0.0,1.0,9.055385138137417,9.055385138137417,9.5,30.0,29.0,31.0
528,528,2.0,48.010415536631214,5.0,9.055385138137417,12.0,13.038404810405298,15.0,31.016124838541646,22.0,21.0,21.0,22.0,6.5,9.5,0.5,2.5,9.055385138137417,9.0,9.5,29.0,29.0,31.016124838541646
529,529,2.23606797749979,46.0,6.0,11.0,12.041594578792296,13.0,14.035668847618199,33.0,22.0,21.0,22.0,22.0,8.0,11.0,1.0,2.0,10.04987562112089,10.0,10.0,29.0,29.0,31.016124838541646
530,530,3.0,45.0,6.0,12.041594578792296,12.041594578792296,13.0,15.033296378372908,36.0,24.020824298928627,22.5,23.0,23.0,8.0,13.0,0.0,2.0,9.055385138137417,9.055385138137417,9.5,29.0,29.0,32.01562118716424
531,531,4.123105625617661,47.0,6.0,11.0,11.045361017187261,12.041594578792296,15.033296378372908,36.0,25.0,23.0,23.0,23.0,8.0,13.0,1.0,2.0,9.055385138137417,10.04987562112089,10.0,29.0,29.0,31.016124838541646
532,532,7.0,48.0,7.0,12.041594578792296,13.038404810405298,14.0,14.035668847618199,40.0,28.0178514522438,24.5,23.0,23.0,9.0,17.0,4.0,2.0,9.055385138137417,9.055385138137417,9.0,28.0,28.0,33.015148038438355
533,533,12.0,48.010415536631214,4.0,9.0,12.041594578792296,15.0,14.0,39.0,30.0,24.0,22.0,23.0,8.5,16.5,6.5,4.5,10.04987562112089,10.04987562112089,10.0,27.0,27.0,31.016124838541646
534,534,3.1622776601683795,48.010415536631214,6.0,10.0,13.038404810405298,13.038404810405298,14.035668847618199,33.0,23.0,21.5,22.0,23.0,8.5,10.5,0.5,2.5,10.04987562112089,10.0,10.0,29.0,28.0,33.015148038438355
535,535,12.0,50.039984012787215,4.123105625617661,10.04987562112089,13.038404810405298,14.035668847618199,14.035668847618199,40.01249804748511,30.0,24.0,21.0,23.0,8.0,18.0,6.0,4.0,9.055385138137417,10.0,10.0,29.0,28.0,32.01562118716424
536,536,12.0,50.00999900019995,4.123105625617661,10.0,13.038404810405298,15.0,14.035668847618199,40.0,30.0,24.0,21.0,22.0,7.5,18.5,6.5,3.5,10.04987562112089,10.0,10.0,29.0,27.0,34.0147027033899
537,537,14.0,51.0,3.0,10.04987562112089,14.035668847618199,15.0,15.0,42.01190307520001,32.0,25.0,21.0,21.0,6.0,21.0,10.0,3.0,10.04987562112089,10.04987562112089,10.0,29.0,28.0,32.01562118716424
538,538,13.038404810405298,53.0,3.0,9.0,14.0,16.0,15.0,40.01249804748511,31.016124838541646,24.5,19.0,19.0,4.0,21.0,11.0,2.0,9.219544457292887,9.055385138137417,9.5,29.0,27.0,31.016124838541646
539,539,13.0,54.0,4.123105625617661,8.0,14.035668847618199,15.033296378372908,14.035668847618199,39.0,31.0,24.5,18.0,18.0,4.0,21.0,11.0,1.0,9.219544457292887,9.055385138137417,9.5,28.0,26.0,31.016124838541646
540,540,12.0,50.00999900019995,3.1622776601683795,9.0,13.038404810405298,15.0,15.132745950421556,39.01281840626232,30.01666203960727,24.0,20.0,19.0,4.5,19.5,8.5,1.5,9.055385138137417,10.04987562112089,10.0,28.0,26.0,32.01562118716424
541,541,12.0,51.0098029794274,3.1622776601683795,9.055385138137417,13.038404810405298,14.0,15.132745950421556,39.0,30.01666203960727,24.0,20.0,19.0,4.5,19.5,8.5,1.5,9.219544457292887,10.04987562112089,10.0,28.0,26.0,31.016124838541646
542,542,8.06225774829855,50.0,4.0,10.0,13.038404810405298,15.0,15.033296378372908,37.0,27.0,23.0,19.0,19.0,4.0,18.0,7.0,0.0,10.04987562112089,9.0,9.5,28.0,27.0,30.0
543,543,5.0990195135927845,48.010415536631214,5.0,11.0,12.041594578792296,13.038404810405298,16.0312195418814,37.0,26.0,23.5,20.0,21.0,4.5,16.5,4.5,0.5,9.055385138137417,10.04987562112089,10.0,29.0,28.0,31.016124838541646
544,544,3.1622776601683795,46.010868281309364,5.0,11.0,13.038404810405298,14.0,16.0312195418814,35.0,24.0,22.5,20.0,21.0,4.5,14.5,1.5,0.5,10.04987562112089,10.04987562112089,10.0,28.0,26.0,30.0
545,545,1.4142135623730951,46.04345773288535,6.0,10.0,12.041594578792296,13.038404810405298,16.0312195418814,33.0,23.0,22.5,20.0,22.0,5.0,12.0,0.0,0.0,10.04987562112089,10.04987562112089,10.5,28.0,26.0,30.01666203960727
546,546,2.23606797749979,45.044422518220834,5.0,11.0,12.041594578792296,13.038404810405298,16.0312195418814,34.0,23.0,22.0,20.0,22.0,5.0,13.0,1.0,0.0,10.04987562112089,10.04987562112089,10.0,28.0,26.0,31.016124838541646
547,547,2.0,47.042533945356304,6.0,11.045361017187261,13.038404810405298,14.035668847618199,15.0,34.0147027033899,23.0,22.0,19.0,21.0,5.0,14.0,1.0,0.0,10.04987562112089,10.04987562112089,10.0,29.0,25.0,30.01666203960727
548,548,5.0990195135927845,49.040799340956916,6.0,12.0,14.035668847618199,15.033296378372908,15.0,38.01315561749642,26.019223662515376,23.5,20.0,22.0,6.0,17.0,3.0,0.0,10.04987562112089,10.04987562112089,10.0,29.0,25.0,31.016124838541646
549,549,9.055385138137417,50.039984012787215,6.0,11.0,14.0,15.0,14.0,40.01249804748511,29.017236257093817,24.5,19.0,21.0,6.0,20.0,8.0,1.0,10.198039027185569,10.04987562112089,10.0,29.0,26.0,31.016124838541646
550,550,9.055385138137417,51.0098029794274,5.0,11.0,13.038404810405298,14.0,13.038404810405298,38.0,27.0,22.5,19.0,20.0,6.5,18.5,6.5,1.5,10.04987562112089,10.04987562112089,10.0,29.0,25.0,30.066592756745816
551,551,9.0,51.0098029794274,5.0,10.04987562112089,13.038404810405298,15.033296378372908,13.0,37.013511046643494,27.0,22.5,19.0,20.0,6.5,17.5,6.5,1.5,10.198039027185569,10.04987562112089,10.0,29.0,26.0,31.016124838541646
552,552,11.045361017187261,51.0098029794274,3.0,10.0,13.038404810405298,14.035668847618199,14.035668847618199,38.0,28.0,22.5,19.0,20.0,5.5,18.5,7.5,2.5,10.04987562112089,10.04987562112089,10.0,28.0,26.0,30.01666203960727
553,553,11.045361017187261,51.0098029794274,4.0,10.0,13.038404810405298,15.0,13.0,38.01315561749642,28.0178514522438,22.5,19.0,20.0,6.5,18.5,6.5,2.5,9.219544457292887,10.04987562112089,10.0,28.0,26.0,30.01666203960727
554,554,11.0,51.0098029794274,4.123105625617661,10.0,13.038404810405298,15.033296378372908,13.038404810405298,38.0,28.0,22.5,19.0,20.0,6.5,18.5,6.5,3.5,10.198039027185569,10.04987562112089,10.0,28.0,26.0,30.01666203960727
555,555,10.04987562112089,52.03844732503075,4.0,10.0,14.035668847618199,15.0,13.0,37.013511046643494,27.018512172212592,22.0,18.0,20.0,6.0,18.0,7.0,2.0,9.219544457292887,10.04987562112089,10.0,28.0,25.0,30.0
556,556,9.055385138137417,51.03920062069938,4.0,11.0,13.038404810405298,15.033296378372908,13.0,37.013511046643494,26.019223662515376,21.5,18.0,20.0,6.0,18.0,6.0,2.0,9.219544457292887,10.04987562112089,10.0,29.0,26.0,30.01666203960727
557,557,8.0,50.00999900019995,4.0,11.045361017187261,13.038404810405298,15.033296378372908,14.0,37.013511046643494,26.0,22.0,19.0,20.0,5.5,17.5,5.5,1.5,9.219544457292887,10.04987562112089,10.0,28.0,26.0,31.016124838541646
558,558,6.0,50.00999900019995,4.0,10.04987562112089,14.035668847618199,15.0,15.0,35.014282800023196,25.0,22.0,20.0,21.0,5.5,14.5,3.5,1.5,4.123105625617661,4.0,4.5,28.0,27.0,32.01562118716424
559,559,3.1622776601683795,48.010415536631214,5.0,9.0,13.038404810405298,13.038404810405298,15.033296378372908,32.0,23.0,21.5,20.0,21.0,5.5,11.5,1.5,0.5,3.0,4.0,4.0,29.0,27.0,33.015148038438355
560,560,3.0,49.01020301937138,4.123105625617661,9.0,14.035668847618199,15.033296378372908,16.0312195418814,32.0,23.0,21.5,19.0,20.0,3.5,12.5,2.5,0.5,3.1622776601683795,4.0,4.0,29.0,27.0,33.0
561,561,1.0,49.040799340956916,5.0,9.0,13.038404810405298,14.035668847618199,16.0,31.0,22.0,21.5,19.0,21.0,4.0,11.0,1.0,0.0,5.0990195135927845,5.0,5.0,28.0,26.0,32.01562118716424
562,562,1.4142135623730951,48.041648597857254,5.0,10.0,15.033296378372908,16.0312195418814,15.033296378372908,31.0,21.0,20.5,19.0,21.0,5.0,11.0,0.0,0.0,6.082762530298219,6.0,6.0,28.0,26.0,31.064449134018133
563,563,2.23606797749979,51.03920062069938,5.0,10.0,14.035668847618199,15.033296378372908,15.033296378372908,32.0,22.0,21.0,19.0,21.0,5.0,12.0,1.0,0.0,7.0710678118654755,7.0,7.0,28.0,26.0,32.01562118716424
564,564,12.0,50.039984012787215,4.123105625617661,9.0,14.035668847618199,15.033296378372908,14.142135623730951,39.01281840626232,30.01666203960727,24.0,21.0,23.0,8.0,17.0,6.0,4.0,8.06225774829855,7.0710678118654755,7.5,27.0,25.0,31.016124838541646
565,565,11.045361017187261,50.039984012787215,4.0,10.0,14.035668847618199,14.035668847618199,14.0,39.01281840626232,29.017236257093817,23.5,21.0,23.0,8.0,17.0,6.0,4.0,8.06225774829855,7.0,7.5,27.0,25.0,30.01666203960727
566,566,16.0312195418814,50.0,5.0,10.0,14.0,16.0,14.035668847618199,45.0,35.0,27.0,24.0,24.0,10.0,21.0,9.0,6.0,9.055385138137417,9.0,8.5,26.0,26.0,31.0
567,567,20.0,50.0,5.0,11.0,14.035668847618199,17.029386365926403,14.0,50.0,39.0,29.0,26.0,26.0,12.0,24.0,12.0,7.0,9.055385138137417,9.055385138137417,8.5,27.0,27.0,31.016124838541646
568,568,21.02379604162864,51.0098029794274,5.0,10.0,14.0,16.0,15.0,51.0098029794274,41.012193308819754,30.5,27.0,26.0,11.5,24.5,13.5,7.5,9.055385138137417,9.055385138137417,9.0,28.0,28.0,32.01562118716424
569,569,19.0,53.009433122794285,5.0,10.0,14.0,15.033296378372908,14.0,48.0,38.0,28.5,26.0,25.0,11.5,22.5,11.5,7.5,9.055385138137417,9.055385138137417,9.5,28.0,28.0,32.0
570,570,19.026297590440446,53.009433122794285,5.0990195135927845,10.0,14.0,15.033296378372908,14.035668847618199,48.010415536631214,38.01315561749642,28.5,26.0,25.0,11.5,22.5,11.5,7.5,9.055385138137417,9.055385138137417,9.0,28.0,28.0,32.0
571,571,15.033296378372908,50.0,4.0,10.0,13.0,14.0,15.0,44.01136216933077,34.0147027033899,26.5,26.0,26.0,11.0,18.0,7.0,7.0,10.0,9.055385138137417,9.5,27.0,28.0,32.0
572,572,10.04987562112089,48.0,6.0,10.0,13.038404810405298,14.0,14.035668847618199,40.0,30.0,25.0,25.0,25.0,11.0,15.0,4.0,5.0,10.0,10.04987562112089,10.0,28.0,29.0,31.0
573,573,9.055385138137417,49.0,5.0,10.0,12.041594578792296,14.035668847618199,15.033296378372908,39.0,29.0,24.5,24.0,24.0,9.0,15.0,4.0,4.0,10.04987562112089,10.04987562112089,10.0,28.0,29.0,31.0
574,574,9.0,47.0,5.0990195135927845,9.0,11.045361017187261,13.038404810405298,15.132745950421556,38.01315561749642,29.017236257093817,24.5,24.0,24.0,9.0,14.0,4.0,4.0,10.04987562112089,10.04987562112089,10.0,29.0,29.0,32.0
575,575,9.0,47.0,5.0990195135927845,9.0,11.045361017187261,13.038404810405298,15.132745950421556,38.01315561749642,29.017236257093817,24.5,24.0,24.0,9.0,14.0,4.0,4.0,10.04987562112089,10.04987562112089,10.0,29.0,29.0,32.0
576,576,4.0,47.01063709417264,6.082762530298219,11.0,11.0,12.041594578792296,15.033296378372908,36.0,25.0,23.0,24.0,23.0,8.5,12.5,0.5,2.5,10.198039027185569,10.04987562112089,10.0,29.0,30.0,33.015148038438355
577,577,5.0,48.010415536631214,6.0,12.0,12.0,13.0,15.0,38.0,26.0,23.5,24.0,23.0,8.5,14.5,1.5,2.5,9.055385138137417,10.04987562112089,10.0,28.0,29.0,32.0
578,578,5.0990195135927845,48.010415536631214,6.0,12.0,13.0,14.035668847618199,15.033296378372908,38.0,26.0,23.5,24.0,23.0,8.5,14.5,2.5,2.5,10.04987562112089,11.045361017187261,10.5,28.0,29.0,31.016124838541646
579,579,12.0,49.0,5.0990195135927845,10.0,13.0,14.0,14.142135623730951,41.012193308819754,31.016124838541646,25.0,23.0,23.0,9.0,18.0,6.0,5.0,10.04987562112089,10.04987562112089,10.0,28.0,28.0,31.016124838541646
580,580,9.0,47.095647357266465,5.0,11.045361017187261,12.0,13.0,13.038404810405298,38.05259518088089,27.018512172212592,22.5,23.0,20.0,8.5,16.5,5.5,4.5,10.04987562112089,10.04987562112089,10.0,28.0,29.0,31.016124838541646
581,581,4.0,44.10215414239989,6.0,12.0,11.0,13.0,15.033296378372908,37.013511046643494,25.019992006393608,23.0,24.0,21.0,7.5,14.5,2.5,2.5,10.04987562112089,10.04987562112089,10.0,29.0,30.0,31.0
582,582,3.0,44.04543109109048,6.0,13.0,12.0,13.0,15.033296378372908,37.013511046643494,24.020824298928627,22.5,23.0,21.0,7.0,15.0,1.0,2.0,10.198039027185569,10.04987562112089,10.0,28.0,29.0,30.0
583,583,3.1622776601683795,44.10215414239989,6.0,12.041594578792296,14.0,15.033296378372908,15.033296378372908,36.013886210738214,24.0,22.5,24.0,21.0,7.5,13.5,1.5,2.5,10.04987562112089,10.198039027185569,10.5,27.0,28.0,31.016124838541646
584,584,7.0710678118654755,48.010415536631214,5.0,11.0,14.0,15.033296378372908,15.033296378372908,38.0,27.0,23.5,23.0,22.0,7.5,15.5,3.5,2.5,9.055385138137417,10.04987562112089,10.0,27.0,27.0,31.016124838541646
585,585,10.04987562112089,51.0098029794274,4.0,11.0,14.0,16.0,14.0,39.01281840626232,28.0178514522438,23.0,21.0,22.0,7.5,17.5,5.5,4.5,9.055385138137417,10.04987562112089,10.0,28.0,29.0,32.01562118716424
586,586,6.082762530298219,49.0,6.0,11.0,13.0,14.035668847618199,14.035668847618199,37.0,26.0,23.0,22.0,22.0,8.0,15.0,3.0,2.0,10.04987562112089,11.180339887498949,11.0,27.0,28.0,33.015148038438355
587,587,6.0,51.0,6.0,12.0,14.0,15.033296378372908,15.0,39.0,27.0,24.0,22.0,22.0,7.0,17.0,4.0,2.0,9.055385138137417,10.04987562112089,10.0,28.0,29.0,32.01562118716424
