,video_id,frame_seq,time_seconds,m1,m3,m4,m5,m6,m7,m8,m9,m10,m11,m12,m13,m14,m15,m16,m17,e1,e2,e3,b1,b2,b3,label_measures
0,239,0,0.0,47.58159888991963,133.2662347150897,19.03263955596788,31.72106592661305,41.23738570459727,44.409492297258566,53.92581207524222,152.26111644774278,120.54005052112971,96.74925107616993,104.67951755782316,101.50741096516184,49.16765218625028,49.16765218625028,17.44658625963723,30.135012630282404,22.20474614862917,19.03263955596776,20.61869285229841,41.237385704597045,53.92581207524228,57.44929379154606,"{'others': ['m1', 'm3', 'm12', 'e1', 'e2']}"
1,239,1,0.0333666666666666,57.53375924207785,131.0880919899552,19.44245527471729,28.766879621038925,38.35583949471902,44.7484794105053,54.431367512085245,159.81599789466077,131.04911827362184,102.28223865258292,108.67487856836932,105.47855861047616,52.73927930523803,52.73927930523803,23.972399684199104,33.561359557878745,19.44245527471721,19.44245527471721,19.177919747359283,41.55215945261182,54.337439284184654,64.24523604426662,"{'others': ['m1', 'm3', 'm12', 'e1', 'e2']}"
2,239,2,0.0667333333333332,63.442131853226215,123.75281846480304,22.20474614862917,28.724646895772963,41.35920985687382,44.409492297258566,47.58159888991963,161.80853232139614,133.22847689177502,101.50741096516184,107.85162415048455,104.67951755782326,58.683971964234274,55.51186537157287,23.790799444959816,39.6513324082664,19.03263955596788,22.430180823173654,20.618692852298523,38.06527911193564,50.75370548258087,54.75904993780673,"{'others': ['m1', 'm3', 'm12', 'e1', 'e2']}"
3,239,3,0.1000999999999998,69.8342503638534,127.19663680411756,19.026059766179745,28.539089649269613,38.18401635603469,44.50724572551525,50.73615937647935,168.0934404609322,139.5604678374451,104.6433287139887,114.15635859707857,104.6433287139887,58.66368427905434,58.66368427905422,30.12459462978461,42.80863447390448,19.28850057415545,22.422426466543765,22.197069727209737,38.05211953235949,50.73615937647935,44.84485293308752,"{'others': ['m1', 'm3', 'm12', 'e1', 'e2']}"
4,239,4,0.1334666666666664,82.37381513761659,126.88725866509738,15.841118295695424,25.5430357442369,38.15046483829124,44.46813811486557,50.69157854622563,174.28110090597528,148.90651197953764,107.71960441072927,114.05605172900756,107.71960441072927,60.19624952364279,63.36447318278192,34.85046025053009,44.35513122794737,19.27155216141571,19.009341954834667,19.009341954834667,38.01868390966911,53.85980220536459,44.80544867385826,"{'others': ['m1', 'm3', 'm12', 'e1', 'e2']}"
5,239,5,0.166833333333333,94.21255088207728,126.79076988477756,16.23389458033671,29.22101024460619,39.096395394253626,45.45490482494279,52.04982560742739,191.6699847509277,162.46876505306474,115.26065152039088,123.37759881055932,116.88404097842454,68.1823572374143,71.42913615348175,38.96134699280822,51.948462657077584,19.48067349640405,19.480673496404165,19.480673496404165,35.71456807674082,51.94846265707753,42.70470917895074,"{'others': ['m1', 'm3', 'm12', 'e1', 'e2']}"
6,239,6,0.2001999999999996,102.3810289603914,140.08711388242028,20.758649559121583,30.903321602504786,40.95241158415638,51.30414506281158,51.1905144801957,204.87578303808755,174.08120387002057,122.85723475246972,129.6826366831624,122.85723475246972,75.0794212376203,78.49212220296681,44.36511254950301,54.60321544554199,20.758649559121583,17.401428816358177,17.0635048267319,37.53971061881021,58.01591641088845,48.8624417642998,"{'others': ['m1', 'm3', 'm12', 'e1', 'e2']}"
7,239,7,0.2335666666666662,102.25018928625438,135.52516257735311,16.48339207727122,26.578671098644676,42.98342771041811,46.27108653640656,49.55994368370831,194.7553057723393,168.2598310282983,117.0320837486255,125.2737797872611,115.38374454089842,70.87858593226622,74.17526434772049,47.80183702408647,54.395193854995,16.809827570441314,16.809827570441314,18.13173128499841,32.96678415454238,56.04353306272208,43.983175946447,"{'others': ['m1', 'm3', 'm12', 'e1', 'e2']}"
8,239,8,0.2669333333333328,65.49977725297443,125.24181899407807,18.95088736726582,25.118017965166462,34.411896161470075,40.62123743612473,46.83633546537656,156.27302062884058,131.18466065240915,98.13846078906624,115.2737475935063,102.8117208266408,62.31013383432765,46.73260037574585,21.80854684201472,43.61709368402933,18.950887367265786,15.88602941579076,15.577533458581913,31.155066917163825,56.07912045089489,41.566043670417535,"{'others': ['m1', 'm3', 'm12', 'e1', 'e2']}"
9,239,9,0.3002999999999994,48.367273596976325,138.94304293131347,16.405295663901246,22.7500518097473,41.94902281313635,45.15756346332246,48.367273596976325,135.73985752727253,113.01991275569046,88.47693748859683,106.1723249863162,93.30295226070211,51.47749090245634,35.39077499543873,12.869372725614085,35.39077499543873,16.405295663901246,16.086715907017492,14.478044316315732,28.956088632631747,54.69483408385992,42.92471190529325,"{'others': ['m1', 'm3', 'm12', 'e1', 'e2']}"
10,239,10,0.333666666666666,43.295766500668606,150.7922463517005,20.258297399292985,26.85089453373384,43.80514598261306,43.80514598261351,46.62621007764301,136.71055078781265,109.95508772747952,88.25675478982441,106.5741944631842,89.92197657831161,51.62187544310484,38.30010113520689,14.986996096385267,34.96965755823226,16.981996787912838,20.25829739929287,18.317439673359672,29.973992192770535,59.94798438554113,45.29893009322595,"{'others': ['m1', 'm3', 'm12', 'e1', 'e2']}"
11,239,11,0.3670333333333326,40.300576578736354,148.71980605615158,20.150288289368177,23.74734248712693,37.09453479274528,44.17261042993863,47.13712893560186,131.14898548455304,107.52066611409396,87.31791592059551,110.82658559152514,94.03467868371833,55.41329279576257,28.546241743271597,8.395953453903417,35.263004506394395,20.42823643021264,20.42823643021268,20.150288289368177,30.225432434052323,57.092483486543244,43.65895796029751,"{'others': ['m1', 'm3', 'm12', 'e1', 'e2']}"
12,239,12,0.4003999999999992,36.00635374780791,141.70045737743283,13.093219544657472,16.690645488490645,39.41581037197085,39.82147262360505,45.82626840630098,111.3404925604341,94.92584169876636,76.92266482486241,101.47245147109504,85.10592704027329,47.46292084938318,18.003176873903953,4.909957329246595,34.36970130472571,16.690645488490645,16.366524430821755,16.366524430821755,22.91313420315055,55.64618306479406,34.1743063086704,"{'others': ['m1', 'm3', 'm12', 'e1', 'e2']}"
13,239,13,0.4337666666666658,4.752149162798926,139.23878141460304,17.13411747512473,20.439766407950323,37.56903783826756,37.56903783826756,47.16373377978896,87.36719935385236,67.28949244815891,65.52539951538927,94.08775315030256,73.92609176095198,36.96304588047599,3.360276898225152,13.44110759290038,23.52193828757561,18.09564489454886,20.16166138935057,18.481522940237937,26.88221518580076,57.12470726982656,43.683599676926,"{'others': ['m1', 'm3', 'm12', 'e1', 'e2']}"
14,239,14,0.4671333333333324,3.377723067447164,145.86915187756762,13.9267089811703,16.88861533723616,37.30817069603589,37.76409193990563,50.66584601170837,84.51060414734093,67.63885171457603,65.865599815221,87.82079975362785,74.30990748383897,30.399507607025043,3.3777230674472776,13.510892269788885,20.266338404683324,15.105636775962134,13.92670898117019,13.510892269788885,27.02178453957788,57.42129214660287,41.780126943510766,"{'others': ['m1', 'm3', 'm12', 'e1', 'e2']}"
15,239,15,0.5004999999999991,3.292208947000745,126.18225625576234,19.75325368200401,26.542637091973944,36.363636363636246,36.36363636363669,46.558865430144095,93.117730860288,66.58080547756184,65.84417894001353,95.47405946301956,79.01301472801617,41.1526118375084,4.938313420501004,21.399358155504387,24.69156710250513,17.729087759121356,16.461044735003384,16.461044735003384,29.629880523006136,52.67534315201078,43.9235457997941,"{'others': ['m1', 'm3', 'm12', 'e1', 'e2']}"
16,239,16,0.5338666666666656,7.427813527082104,130.61129485931755,19.93091516489756,23.48880878058812,33.38386973705517,33.38386973705517,46.62395418074578,96.8468396223005,73.38138446640882,69.75820307714162,96.3327566303384,79.72366065959045,41.52273992687003,8.304547985373915,14.948186373673252,24.913643956122087,16.93802089159593,16.609095970747944,16.609095970747944,26.57455355319678,53.149107106393615,37.87456611792008,"{'others': ['m1', 'm3', 'm12', 'e1', 'e2']}"
17,239,17,0.5672333333333321,13.510892269788885,122.76524887769418,17.223075832425923,30.39950760702493,30.58658326570554,37.30817069603587,50.778311957000994,111.66938407889168,81.34634355526839,74.30990748383897,104.7094150908639,87.82079975362785,45.599261410537565,15.199753803512408,15.199753803512522,28.710646073301405,20.54588731239193,20.266338404683324,20.266338404683324,27.02178453957788,50.665846011708425,45.064446467531,"{'others': ['m1', 'm3', 'm12', 'e1', 'e2']}"
18,239,18,0.6005999999999987,23.82655161603668,116.17859357314651,20.42275852803141,30.634137792047117,34.207697174483755,37.59612348482432,51.170230302639816,125.98633306337057,95.3669691139049,83.39293065612833,115.72896499217802,105.51758572816232,59.56637904009165,15.317068896023557,15.317068896023557,39.14362051206024,17.35600737597104,20.42275852803141,20.42275852803141,27.23034470404184,47.65310323207325,45.41226392396119,"{'others': ['m1', 'm3', 'm12', 'e1', 'e2']}"
19,239,19,0.6339666666666652,16.87598473584751,118.18010041396757,23.626378630186423,30.56370827368538,37.12716641886482,37.12716641886482,50.627954207542416,121.55395879419316,91.13031757357636,82.69232520565254,111.38149925659332,108.00630230942376,59.065946575466114,11.813189315093268,18.56358320943218,35.43956794527969,21.346619809405254,20.251181683016966,20.251181683016966,27.001575577355997,47.25275726037296,45.03074381940024,"{'others': ['m1', 'm3', 'm12', 'e1', 'e2']}"
20,239,20,0.6673333333333318,21.359719655519257,125.0552353209898,21.359719655519257,28.7012608823659,32.236747987228455,35.77708763999692,60.623819780285,131.91056075843193,103.30000527158218,92.55878517391682,113.91850482943607,103.23864500167645,48.05936922491833,23.139696293479236,5.339929913879814,30.25960284531891,21.654350396377872,21.359719655519257,19.579743017559395,35.59953275919872,53.39929913879814,47.49570069130888,"{'others': ['m1', 'm3', 'm12', 'e1', 'e2']}"
21,239,21,0.7006999999999983,38.81513604242832,130.98846000200322,17.643243655649258,28.44887557357549,35.46248085848105,35.46248085848105,60.090722592046085,144.8466249074576,116.49886023389956,97.0378401060708,112.91675939615504,102.33081320276553,47.63675787025295,37.05081167686342,8.821621827824629,29.99351421460369,17.99264873664557,21.46393228430104,19.407568021214274,35.286487311298515,49.40108223581785,46.412127758947385,"{'others': ['m1', 'm3', 'm12', 'e1', 'e2']}"
22,239,22,0.7340666666666649,65.25884661473287,137.39273406928515,19.57765398441984,26.306682088232886,42.41825029957636,48.94413496104971,52.6133641764656,163.44051752293896,137.1988681140071,104.41415458357255,117.46592390651917,107.67709691430925,60.36443311862786,50.57560612641805,24.472067480524856,40.78677913420802,13.453455879926288,16.314711653683162,16.314711653683162,29.36648097662976,45.68119263031298,42.917305706350696,"{'others': ['m1', 'm3', 'm12', 'e1', 'e2']}"
23,239,23,0.7674333333333314,81.63605321754824,150.52944439142263,19.59265277221152,26.326836103747585,42.45074767312508,45.71618980182711,52.34901966652911,179.71802120067215,153.5105148644289,112.65775344021654,124.0868008906732,114.29047450456744,66.94156363838954,60.410679380985584,34.28714235137022,47.34891086617802,16.650553134759075,16.65055313475919,14.6944895791587,32.654421287019204,45.71618980182694,42.95018541509384,"{'others': ['m1', 'm3', 'm12', 'e1', 'e2']}"
24,239,24,0.800799999999998,85.7631699465403,152.0571842539414,19.791500756893925,26.59403005462075,46.29782510352464,52.77733535171728,52.880315616179736,184.83844274120815,158.36636257200476,115.45042108188125,128.64475491981045,118.74900454136356,70.91954437886989,61.02379400042287,34.63512632456434,51.12804362197596,16.492917297411623,16.492917297411623,14.843625567670417,32.98583459482319,49.47875189223481,46.64901465019457,"{'others': ['m1', 'm3', 'm12', 'e1', 'e2']}"
25,239,25,0.8341666666666645,70.957999077012,148.52855583093415,22.554257330883843,25.77629409243877,45.22344100003605,48.43783357846666,48.43783357846675,167.66979029548423,141.915998154024,106.32721313130968,115.99332341597426,106.32721313130968,62.82971685031941,56.385643327209664,30.60934923477089,43.49749628099039,10.188974871306144,13.284797897513526,11.277128665441865,32.22036761554841,48.33055142332262,45.22344100003559,"{'others': ['m1', 'm3', 'm12', 'e1', 'e2']}"
26,239,26,0.867533333333331,48.75340658349136,156.65610636346312,20.841218375609287,24.31475477154413,45.2893736538752,48.62950954308872,52.21870212115444,146.05384146261775,121.77209988492376,97.25901908617686,104.20609187804666,93.78548269024202,46.89274134512095,46.89274134512095,22.577986573576823,29.52505936544651,10.984286546646649,13.8941455837396,13.8941455837396,41.68243675121869,55.576582334958175,45.2893736538752,"{'others': ['m1', 'm3', 'm12', 'e1', 'e2']}"
27,239,27,0.9008999999999976,17.572381698985044,148.22785310816133,20.67736550386735,27.56982067182309,37.90850342375643,41.3547310077347,51.80816065726357,117.37428206494512,89.86662061737752,80.98634822348038,89.60191718342514,86.15568959944721,36.18538963176786,29.29293446381212,1.7231137919890216,15.508024127900512,13.784910335911604,13.784910335911604,13.784910335911604,41.3547310077347,55.1396413436463,44.9333103086887,"{'others': ['m1', 'm3', 'm12', 'e1', 'e2']}"
28,239,28,0.934266666666664,3.3056722349637084,155.40175779016363,19.83403340978259,19.83403340978248,42.97373905452878,43.10069276997461,49.5850835244562,92.55882257898496,72.7247891692025,71.0719530517207,82.64180587409373,79.33613363913003,31.40388623215574,11.569852822373036,11.56985282237315,11.56985282237315,9.91701670489124,13.222688939854947,13.222688939854947,39.66806681956496,49.58508352445631,46.74926507445881,"{'others': ['m1', 'm3', 'm12', 'e1', 'e2']}"
29,239,29,0.9676333333333308,3.3328704667986813,143.35217914161123,19.99722280079197,19.99722280079197,40.1330749448195,39.99444560158372,53.32592746877867,96.6532435371613,76.65602073636933,74.98958550296993,86.65463213676526,83.32176166996658,31.662269434587188,11.66504663379544,11.665046633795214,14.997917100593895,13.331481867194611,13.331481867194723,13.331481867194723,39.99444560158406,49.99305700197999,50.43548205972723,"{'others': ['m1', 'm3', 'm12', 'e1', 'e2']}"
30,239,30,1.0009999999999972,16.391240239301055,134.40816996226886,16.391240239301055,26.22598438288173,36.0607285264623,39.47533392105012,55.730216813623656,114.7386816751075,88.51269729222577,80.3170771725753,91.79094534008595,91.79094534008595,36.0607285264623,22.947736335021546,3.2782480478601883,22.947736335021432,13.516562968302566,16.71585076643671,16.391240239301055,39.3389765743226,49.173720717903166,52.86016144941126,"{'others': ['m1', 'm3', 'm12', 'e1', 'e2']}"
31,239,31,1.0343666666666638,19.666186209093556,127.83021035910816,19.666186209093556,26.22158161212485,39.46870687349036,42.61007011970287,52.44316322424959,117.99711725456154,91.7755356424367,81.94244253788997,95.05323334395234,95.05323334395234,42.61007011970276,22.9438839106092,6.555395403031184,26.22158161212485,19.937456764423636,16.388488507578018,16.388488507578018,42.61007011970276,52.44316322424959,52.54549144491649,"{'others': ['m1', 'm3', 'm12', 'e1', 'e2']}"
32,239,32,1.0677333333333303,16.240851237803213,129.92680990242525,19.48902148536388,32.48170247560631,38.97804297072753,42.226213218288194,48.72255371340964,116.93412891218304,84.45242643657673,76.33200081767507,94.1969371792586,94.1969371792586,45.47438346584897,22.73719173292443,9.744510742681882,25.98536198048509,19.757848273891398,19.48902148536388,19.48902148536388,38.97804297072764,51.97072396097025,49.153735160052975,"{'others': ['m1', 'm3', 'm12', 'e1', 'e2']}"
33,239,33,1.1010999999999969,19.80160275708738,128.7104179210678,19.801602757087267,29.702404135631014,39.60320551417499,43.03021877362392,46.20373976653718,115.50934941634284,85.80694528071183,75.90614390216808,92.40747953307424,92.40747953307424,46.20373976653707,23.10186988326859,9.900801378543632,26.4021370094498,23.10186988326859,19.80160275708738,19.80160275708738,39.60320551417476,56.10454114508087,52.90730684666544,"{'others': ['m1', 'm3', 'm12', 'e1', 'e2']}"
34,239,34,1.1344666666666634,13.10375381619292,131.0784809962862,19.65563072428938,32.7593845404823,39.31126144857853,42.58719990262671,45.86313835667522,111.38190743763982,78.62252289715752,72.07064598906106,91.72627671335044,88.45033825930216,44.22516912965102,21.29359995131358,11.46578458916872,24.56953840536164,19.65563072428938,22.931569178337558,22.931569178337558,42.58719990262705,55.69095371881997,52.82292036819903,"{'others': ['m1', 'm3', 'm12', 'e1', 'e2']}"
35,239,35,1.16783333333333,9.744510742681882,133.21458609291403,19.757848273891398,32.643706984209906,38.97804297072753,42.35095858080989,45.47438346584897,107.38629653336596,74.77849475138706,69.83566032255374,90.94876693169796,87.70059668413728,43.85029834206864,17.864936361583545,14.61676611402288,24.36127685670476,22.96803208498522,22.737191732924543,22.737191732924543,42.22621321828831,55.218894208530855,52.375171492377135,"{'others': ['m1', 'm3', 'm12', 'e1', 'e2']}"
36,239,36,1.2011999999999965,7.198157507486997,141.7872594523401,16.095569499491262,28.97202509908425,38.76326448552953,41.97211015767577,48.39389333291029,100.00000000000004,71.11255035964368,67.60139189786332,86.91607529725286,80.47784749745631,35.4102528988808,16.095569499491262,12.876455599592989,22.5337972992877,22.762572680299208,22.762572680299208,22.5337972992877,41.84848069867729,57.94405019816856,58.30063233422038,"{'others': ['m1', 'm3', 'm12', 'e1', 'e2']}"
37,239,37,1.234566666666663,3.117303763076393,134.0803046307982,18.70382257845881,24.9384301046116,37.40764515691717,40.52494891999368,49.97418100461159,96.68668267523486,71.76572202788753,70.13933466922026,84.1672016030642,81.0498978399878,32.731689512302864,14.02786693384394,10.91056317076766,17.14517069692056,22.042666298897068,21.82112634153509,21.82112634153509,40.52494891999396,56.11146773537621,56.88545557679731,"{'others': ['m1', 'm3', 'm12', 'e1', 'e2']}"
