,video_id,frame_seq,time_seconds,m1,m3,m4,m5,m6,m7,m8,m9,m10,m11,m12,m13,m14,m15,m16,m17,e1,e2,e3,b1,b2,b3,label_measures
0,252,0,0.0,7.079646017699133,134.5132743362833,28.31858407079642,35.39823008849555,39.09862306968963,39.09862306968963,42.477876106194685,113.2743362831858,77.87610619469024,74.33628318584067,77.87610619469024,77.87610619469024,35.39823008849555,35.39823008849555,0.0,10.6194690265487,21.531902762117557,21.23893805309729,21.23893805309729,63.716814159292085,60.17699115044252,63.81506682237188,"{'others': ['m1', 'm3', 'm12', 'e1', 'e2']}"
1,252,1,0.0333666666666666,7.079646017699133,134.55984289379276,24.77876106194685,35.39823008849555,35.39823008849589,42.4778761061948,42.477876106194685,109.73451327433622,74.33628318584067,70.7964601769911,77.87610619469024,74.33628318584067,33.628318584070826,33.62831858407071,1.76991150442484,8.849557522123973,21.23893805309729,21.23893805309729,23.00884955752213,63.716814159292085,60.17699115044252,63.81506682237142,"{'others': ['m1', 'm3', 'm12', 'e1', 'e2']}"
2,252,2,0.0667333333333332,10.619053220873866,141.63161542211944,24.777790848705763,38.93652847653766,42.62344456546053,42.62344456546053,42.62344456546075,116.86320470506922,77.95346281543735,72.56353034263839,74.3333725461174,77.87305695307532,33.62700186610061,40.70637068001668,1.7698422034790156,12.388895424352768,21.531059679724848,17.698422034789814,19.46826423826883,60.17463491828551,56.63495051132759,63.81256814123625,"{'others': ['m1', 'm3', 'm12', 'e1', 'e2']}"
3,252,3,0.1000999999999998,17.543184716556766,140.34547773245413,24.8098097533709,35.08636943311353,38.59500637642486,42.24958359552809,38.75416171711424,115.7850191292746,80.69864969616106,71.92705733788262,73.6813758095384,73.6813758095384,35.08636943311353,42.10364331973619,7.017273886622661,10.525910829934103,21.051821659868097,21.051821659868097,21.051821659868097,63.15546497960429,59.64682803629296,63.252852030481655,"{'others': ['m1', 'm3', 'm12', 'e1', 'e2']}"
4,252,4,0.1334666666666664,10.61905322087398,141.58737627831852,24.777790848705763,35.39684406957963,38.93652847653766,46.15183819899753,42.47621288349558,113.26990102265496,77.87305695307532,72.56353034263827,74.33337254611729,74.33337254611729,31.85715966262171,38.93652847653766,0.0,7.0793688139159485,21.23810644174785,21.23810644174785,21.23810644174785,63.71431932524354,60.17463491828551,67.34708890302407,"{'others': ['m1', 'm3', 'm12', 'e1', 'e2']}"
5,252,5,0.166833333333333,7.079646017699133,145.13274336283166,28.53896548070277,35.39823008849555,38.93805309734489,42.625113553247175,38.93805309734512,109.79159234881992,74.42051696151727,70.7964601769911,70.7964601769911,70.7964601769911,31.858407079645986,38.93805309734512,0.0,3.5398230088495666,21.531902762117515,17.69911504424772,19.46902654867256,60.17699115044252,56.63716814159295,67.34972598385983,"{'others': ['m1', 'm3', 'm12', 'e1', 'e2']}"
6,252,6,0.2001999999999996,7.0793688139159485,141.58737627831897,24.777790848705763,35.39684406957963,38.93652847653766,42.62344456546053,38.93652847653766,106.190532208739,70.79368813915937,67.25400373220145,70.79368813915937,70.79368813915937,31.85715966262171,35.39684406957963,0.0,7.0793688139159485,18.048919863038883,21.23810644174785,21.23810644174785,63.71431932524342,60.17463491828551,67.34708890302407,"{'others': ['m1', 'm3', 'm12', 'e1', 'e2']}"
7,252,7,0.2335666666666662,7.077152355247335,138.04982983435875,24.770033243365788,35.38576177623679,39.08485136867231,38.924337953860686,39.08485136867216,106.21624522513538,70.8599327356665,67.23294737485003,67.23294737485003,70.7715235524737,30.077897509801343,37.15504986504857,1.7692880888118907,5.307864266435558,21.23145706574212,21.23145706574212,21.23145706574212,63.694371197226246,56.61721884197891,63.7925892527882,"{'others': ['m1', 'm3', 'm12', 'e1', 'e2']}"
8,252,8,0.2669333333333328,3.506614013304443,140.30838636062796,28.052912106435542,38.57275414634887,38.57275414634887,42.07936815965331,38.73181772487546,108.76157799723012,70.21989089395923,68.37897325943663,70.13228026608886,73.6388942793933,33.312833126392206,36.81944713969665,1.7533070066522214,8.766535033261107,21.329900328346927,21.039684079826657,21.039684079826657,63.11905223947997,56.105824212871084,66.99376665765725,"{'others': ['m1', 'm3', 'm12', 'e1', 'e2']}"
9,252,9,0.3002999999999994,10.615728532871003,148.78860767225194,28.308609420989452,35.38576177623679,39.084851368672304,46.00149030910825,39.08485136867221,113.28971444472342,77.92905659604915,72.54081164128547,70.7715235524737,77.84867590772103,35.38576177623679,38.92433795386046,3.538576177623668,7.077152355247335,21.52431858385524,21.231457065742006,21.231457065742006,63.69437119722636,56.61721884197891,70.85993273566663,"{'others': ['m1', 'm3', 'm12', 'e1', 'e2']}"
10,252,10,0.333666666666666,24.339545608519416,149.55477726893065,20.86246766444515,34.7707794407421,38.24785738481614,41.7249353288903,38.24785738481626,118.22065009852292,83.44987065778082,71.28009785352117,69.5415588814841,73.01863682555825,33.03224046870491,46.94055224500176,12.169772804259653,12.169772804259765,20.86246766444515,20.86246766444515,20.86246766444515,62.587402993335786,55.633247105187365,59.2125037340807,"{'others': ['m1', 'm3', 'm12', 'e1', 'e2']}"
11,252,11,0.3670333333333326,34.77734975871624,153.05985355203484,20.86640985522968,27.821879806973016,41.73281971045935,48.688289662202806,38.255084734587854,121.7207241555068,93.89884434853376,76.51016946917571,69.55469951743248,73.0324344933041,33.03848227078038,50.42715715013856,19.127542367293927,12.1720724155507,20.86640985522979,21.15423600153941,20.86640985522968,62.59922956568926,55.64375961394603,66.07696454156121,"{'others': ['m1', 'm3', 'm12', 'e1', 'e2']}"
12,252,12,0.4003999999999992,35.08232077228115,161.41680400560725,21.04939246336869,31.57408869505309,42.09878492673761,45.741749991749394,38.74968982506136,126.3450708301552,94.78721108153454,77.18110569901853,70.16464154456241,73.67287362179047,33.32820473366712,54.37759719703581,22.80350850198272,12.278812270298433,21.04939246336869,21.04939246336869,21.04939246336869,63.14817739010607,59.63994531287801,70.16464154456253,"{'others': ['m1', 'm3', 'm12', 'e1', 'e2']}"
13,252,13,0.4337666666666658,35.39684406957963,155.78633239976,21.23810644174785,31.85715966262171,46.01589729045372,46.01589729045372,35.39684406957974,123.88895424352891,92.03179458090722,74.3333725461174,70.79368813915937,74.3333725461174,37.16668627305864,51.32542390089054,19.46826423826883,15.9285798313108,21.23810644174785,21.23810644174785,23.007948645226747,63.71431932524342,60.17463491828551,70.88212501079097,"{'others': ['m1', 'm3', 'm12', 'e1', 'e2']}"
14,252,14,0.4671333333333324,31.5777324898022,161.54977679939643,24.560458603179427,31.577732489802088,42.24958359552854,45.61228026304798,35.261364879948864,122.85240617571256,91.29200937858236,75.43569428119406,66.66410192291562,73.6813758095384,35.08636943311353,52.62955414967018,21.051821659868097,10.525910829934103,21.051821659868097,21.34220533119439,21.051821659868097,63.15546497960429,59.64682803629296,70.26040003577879,"{'others': ['m1', 'm3', 'm12', 'e1', 'e2']}"
15,252,15,0.5004999999999991,35.08636943311353,161.43543224563467,21.051821659868097,28.06909554649076,42.10364331973642,49.12091720635908,38.75416171711424,122.85240617571256,94.79814996073252,77.19001275284973,70.17273886622695,73.6813758095384,33.33205096145775,50.87523567801463,22.806140131523875,12.280229301589657,21.342205331194357,21.051821659868097,21.051821659868097,63.15546497960429,59.64682803629296,70.26040003577879,"{'others': ['m1', 'm3', 'm12', 'e1', 'e2']}"
16,252,16,0.5338666666666656,35.08771929824559,161.55599204521178,21.0526315789474,28.070175438596493,42.10526315789457,45.748788808439805,38.75565269188508,122.85713263166028,94.80179709548274,77.19298245614027,66.66666666666663,73.68421052631572,31.57894736842104,52.63157894736844,21.0526315789474,10.526315789473642,21.0526315789474,21.0526315789474,22.80701754385961,59.649122807017534,56.140350877192986,73.68421052631584,"{'others': ['m1', 'm3', 'm12', 'e1', 'e2']}"
17,252,17,0.5672333333333321,35.08636943311353,168.45111761555347,24.8098097533709,28.06909554649076,42.24958359552854,49.12091720635908,35.261364879948864,122.80229301589723,94.73319746940648,77.19001275284973,66.66410192291562,70.17273886622695,33.33205096145775,54.38387262132596,22.806140131523875,8.771592358278326,21.342205331194357,17.543184716556766,21.051821659868097,63.15546497960429,56.13819109298163,73.76486748030143,"{'others': ['m1', 'm3', 'm12', 'e1', 'e2']}"
18,252,18,0.6005999999999987,35.39684406957963,166.40281908340273,21.531059679724887,28.317475255663798,42.47621288349592,49.555581697411526,39.09709216175919,123.88895424352891,95.57147898786512,77.87305695307532,70.79368813915937,74.33337254611729,33.62700186610073,51.32542390089054,19.46826423826883,12.38889542435288,21.531059679724848,21.531059679724887,21.23810644174785,63.71431932524342,60.17463491828551,70.79368813915926,"{'others': ['m1', 'm3', 'm12', 'e1', 'e2']}"
19,252,19,0.6339666666666652,35.39268698948115,170.0323031282615,21.23561219368878,28.31414959158508,42.61843877814284,49.54976178527341,38.93195568842941,123.87440446318442,95.56025487159934,77.86391137685871,67.24610528001438,74.32464267791067,31.853418290533117,53.08903048422189,24.774880892636816,10.617806096844332,21.528531026619,24.774880892636816,23.0052465431628,60.16756788211808,56.62829918316993,70.87380046438133,"{'others': ['m1', 'm3', 'm12', 'e1', 'e2']}"
20,252,20,0.6673333333333318,38.93805309734512,169.94837358099542,21.2389380530974,31.858407079645986,46.01769911504425,49.557522123893705,35.57478095971993,127.48278304686092,95.64075105208,76.10619469026551,67.25663716814154,70.7964601769911,33.62831858407071,58.40707964601779,26.54867256637181,12.389380530973312,21.531902762117515,21.23893805309729,23.00884955752213,60.17699115044252,56.63716814159295,70.79646017699088,"{'others': ['m1', 'm3', 'm12', 'e1', 'e2']}"
21,252,21,0.7006999999999983,38.595006376424976,168.4511176155537,21.051821659868097,31.577732489802088,42.10364331973642,49.12091720635908,35.26136487994879,126.35965163120729,94.79814996073254,75.43569428119395,66.66410192291562,70.17273886622695,33.33205096145787,57.892509564637294,22.80614013152376,12.28022930158977,21.342205331194357,21.051821659868097,21.051821659868097,59.64682803629296,59.64682803629296,66.6641019229155,"{'others': ['m1', 'm3', 'm12', 'e1', 'e2']}"
22,252,22,0.7340666666666649,38.93652847653766,169.94171924658593,21.23810644174785,28.317475255663798,46.01589729045372,46.01589729045372,35.39684406957963,123.88895424352891,95.57147898786512,76.1032147495963,67.25400373220145,70.79368813915937,33.62700186610073,54.86510830784857,23.00794864522686,12.38889542435288,21.23810644174785,21.23810644174785,21.23810644174785,60.17463491828551,60.17463491828551,70.79368813915971,"{'others': ['m1', 'm3', 'm12', 'e1', 'e2']}"
23,252,23,0.7674333333333314,38.93652847653766,173.48065140951334,21.23810644174785,28.317475255663798,46.01589729045372,49.68183816114029,35.39684406957963,123.88895424352891,95.57147898786512,76.1032147495963,63.71431932524342,67.25400373220145,30.08731745914281,58.40479271480649,26.54763305218478,8.849211017394964,21.23810644174785,21.53105967972481,21.23810644174785,60.17463491828551,60.17463491828551,67.25400373220145,"{'others': ['m1', 'm3', 'm12', 'e1', 'e2']}"
24,252,24,0.800799999999998,35.39684406957974,173.48065140951334,21.23810644174785,31.85715966262171,42.47621288349546,49.68183816114029,35.39684406957963,123.88895424352891,92.03179458090722,74.33337254611729,63.71431932524342,67.25400373220145,30.08731745914281,58.40479271480649,26.54763305218478,8.849211017394964,21.23810644174785,21.53105967972481,21.23810644174785,60.17463491828551,60.17463491828551,67.25400373220145,"{'others': ['m1', 'm3', 'm12', 'e1', 'e2']}"
25,252,25,0.8341666666666645,35.71428571428578,175.0364393548978,21.42857142857133,32.14285714285711,42.85714285714312,50.0,35.71428571428578,125.0,92.85714285714288,75.0,64.28571428571433,67.85714285714289,30.35714285714289,58.92857142857133,26.78571428571422,8.928571428571558,21.428571428571445,21.428571428571445,21.428571428571445,60.71428571428567,60.71428571428567,75.0,"{'others': ['m1', 'm3', 'm12', 'e1', 'e2']}"
26,252,26,0.867533333333331,35.39823008849555,173.48744431635876,21.2389380530974,28.31858407079642,42.625113553247175,49.68378353139176,38.93805309734512,123.89380530973447,95.57522123893808,77.87610619469035,63.71681415929197,67.25663716814154,26.54867256637169,58.40707964601768,26.54867256637169,5.309734513274293,24.77876106194685,24.77876106194685,24.77876106194685,63.716814159292085,60.17699115044252,70.88490051150693,"{'others': ['m1', 'm3', 'm12', 'e1', 'e2']}"
27,252,27,0.9008999999999976,28.31414959158508,169.92176093229185,21.235612193688667,31.853418290533117,46.01049308632537,49.54976178527341,39.092500516712725,120.38717258213404,88.55247455616121,74.32464267791056,63.70683658106623,67.24610528001438,26.544515242110837,54.858664833696025,23.00524654316291,5.308903048422167,21.235612193688667,21.528531026619,21.23561219368878,63.70683658106623,60.16756788211808,74.40886326320566,"{'others': ['m1', 'm3', 'm12', 'e1', 'e2']}"
28,252,28,0.934266666666664,31.762285068731813,168.5088502211237,17.53778805882189,28.27883353305094,45.59824895293696,45.73295603800243,38.58313372940813,115.7494011882244,87.75906340830966,71.90493104116968,59.628479399994376,66.64359462352309,24.5529032823506,52.61336417646567,21.045345670586244,7.01511522352871,24.552903282350712,24.5529032823506,24.5529032823506,63.136037011758845,56.12092178823002,73.74217583399619,"{'others': ['m1', 'm3', 'm12', 'e1', 'e2']}"
29,252,29,0.9676333333333308,31.559526119739985,164.8481588087954,17.533070066522214,31.559526119739985,45.58598217295776,49.0925961862622,38.57275414634887,119.22487645235104,87.66535033261107,71.88558727274108,63.11905223947997,66.62566625278441,26.29960509978332,54.35251720621886,22.79299108647888,8.766535033261107,24.5462980931311,24.5462980931311,24.5462980931311,66.62566625278441,56.105824212871084,73.72233781242946,"{'others': ['m1', 'm3', 'm12', 'e1', 'e2']}"
30,252,30,1.0009999999999972,24.75453986687353,159.29342185822813,21.21817702874887,32.02312748741691,38.89999121937262,46.10853023994493,38.89999121937274,116.75354261832231,84.87270811499513,72.49543818155837,60.118168248121606,67.19089392437115,24.75453986687364,53.04544257187206,21.218177028748755,7.072725676249547,21.510855365284574,24.75453986687364,24.75453986687364,67.19089392437127,56.58180540999683,63.75268770752184,"{'others': ['m1', 'm3', 'm12', 'e1', 'e2']}"
