,video_id,frame_seq,time_seconds,m1,m3,m4,m5,m6,m7,m8,m9,m10,m11,m12,m13,m14,m15,m16,m17,e1,e2,e3,b1,b2,b3,label_measures
0,186,0,0.0,5.0,160.0195300580526,17.67766952966369,32.5,37.5,42.5,52.5,107.52906583803284,75.04165509901817,72.5,75.0,72.5,21.25,33.75,1.25,3.75,15.0,15.0,16.25,55.0,60.0,77.54031209635411,"{'others': ['m1', 'm3', 'm12', 'e1', 'e2']}"
1,186,1,0.0333666666666666,5.623548993035325,163.47029170195674,20.11942051716392,35.2089859050368,40.23884103432784,42.75376859897324,50.29855129290968,110.68538787724556,75.48973076205617,72.93289937471911,75.44782693936463,75.44782693936463,25.149275646454957,35.2089859050368,2.514927564645518,5.029855129291036,17.604492952518513,15.297707156639705,15.089565387872996,57.84333398684629,60.35826155149175,70.46286691939048,"{'others': ['m1', 'm3', 'm12', 'e1', 'e2']}"
2,186,2,0.0667333333333332,5.193053743239943,168.79421875721565,20.93386888938362,33.75484933105986,41.544429945919774,46.80955386872978,54.58885136554658,114.24718235127932,80.49233302021946,77.89580614859949,77.89580614859949,80.49233302021946,24.667005280389844,35.053112766869845,1.2982634358099858,6.491317179049929,15.79405636360253,15.79405636360253,16.87742466552993,59.72011804725969,57.12359117563972,67.55961341841184,"{'others': ['m1', 'm3', 'm12', 'e1', 'e2']}"
3,186,3,0.1000999999999998,7.731644201313884,167.53878125093263,20.7781694563766,33.50379153902668,41.235435740340336,43.88838544934922,48.96707994165445,110.85019711457625,77.35938366710903,73.45061991248156,77.3164420131385,79.89365674690976,29.637969438369737,32.215184172140994,3.865822100656942,9.02025156819957,15.463288402627654,15.676585215116395,15.463288402627654,61.85315361051079,54.1215094091969,64.48189203771724,"{'others': ['m1', 'm3', 'm12', 'e1', 'e2']}"
4,186,4,0.1334666666666664,7.922043358507267,171.72550527233062,21.125448956019227,36.96953567303376,42.25089791203845,47.532260151043374,52.8795982088886,118.85998765749687,81.90369526126662,77.90009302532098,79.22043358507221,84.50179582407702,29.04749231452649,36.96953567303376,0.0,7.922043358507267,15.84408671701442,15.84408671701442,17.164427276765537,60.73566574855533,52.81362239004813,63.59602290583862,"{'others': ['m1', 'm3', 'm12', 'e1', 'e2']}"
5,186,5,0.166833333333333,10.540925533894535,166.25439204970507,20.452399702596608,35.882888670596216,40.904799405193216,43.53647708073455,51.19487310932354,117.62908359410754,81.96922744765878,76.69649888473714,79.25304884756167,84.36614877321074,30.678599553894852,35.79169947954392,2.5565499628245334,10.226199851298247,15.55088632070462,15.55088632070462,15.339299776947428,58.80064914496501,48.57444929366676,59.02253917546207,"{'others': ['m1', 'm3', 'm12', 'e1', 'e2']}"
6,186,6,0.2001999999999996,13.014384777919986,165.9800195278213,20.418646750775,35.82367051379659,43.389624345396896,46.01279864719094,51.04661687693749,119.95954966080308,84.26558065267689,77.84609073732963,79.12225615925308,84.22691784694689,30.62797012616249,38.28496265770309,0.0,12.7616542192344,18.04770447515717,18.581249017005312,16.590150485004642,58.703609408478144,48.494286033090646,58.92513324998905,"{'others': ['m1', 'm3', 'm12', 'e1', 'e2']}"
7,186,7,0.2335666666666662,20.828813681835666,170.82362491558604,20.66797101467648,33.684671587384315,46.5746432832622,49.15437088947898,49.15437088947909,124.03473458920844,90.42237318920968,80.0883876818715,74.92139492820229,85.25538043554047,31.001956522014662,43.91943840618751,7.750489130503752,10.333985507338184,18.084474637841936,15.714794958170536,16.792726449424663,62.0039130440295,49.08643115985672,62.48644104550688,"{'others': ['m1', 'm3', 'm12', 'e1', 'e2']}"
8,186,8,0.2669333333333328,24.47869474354509,161.05256512390517,17.05004814633753,29.329966761012287,41.40725978396267,46.34275570907951,43.91058774339267,114.50480369223509,85.25024073168777,73.0716349128752,68.20019258535024,77.94307724040027,29.2286539651501,41.40725978396267,9.742884655050034,12.17860581881257,14.815913429188909,14.815913429188909,14.614326982575108,60.89302909406263,46.278702111487576,53.80683918192074,"{'others': ['m1', 'm3', 'm12', 'e1', 'e2']}"
9,186,9,0.3002999999999994,14.546790400216535,155.63857225208392,19.395720533622125,31.611156988356804,41.28715235157278,43.70766556784015,46.06483626735235,111.55174283669648,80.00734720119101,72.7339520010828,70.30948693437995,82.43181226789375,30.3058133337845,35.154743467189974,1.2122325333514254,10.910092800162374,9.99632555563569,9.99632555563569,9.697860266811064,58.187161600866204,41.21590613394687,53.55818387058191,"{'others': ['m1', 'm3', 'm12', 'e1', 'e2']}"
10,186,10,0.333666666666666,11.891077176895235,152.5027750498107,21.40393891841154,30.91680065992773,40.49954951047978,42.87388848179558,42.87388848179548,107.04611594651313,76.14004448056271,70.15735534368218,66.59003219061356,76.10289393212975,28.538585224548683,35.673231530685825,0.0,7.134646306137142,7.520577542366814,7.520577542366742,8.323754023826723,59.45538588447636,42.80787783682297,49.99911625646226,"{'others': ['m1', 'm3', 'm12', 'e1', 'e2']}"
11,186,11,0.3670333333333326,7.416880974558126,153.7798453052146,14.833761949116363,27.30737599516753,37.16672329788277,39.864537403559645,51.97699762471552,101.48456801867592,74.2100032004351,70.46036925830253,61.80734145465135,74.1688097455816,16.06990877820931,33.37596438551179,1.2361468290930588,1.2361468290929452,17.48175610787855,17.48175610787852,16.069908778209424,61.80734145465135,46.97357950553504,54.61475199033509,"{'others': ['m1', 'm3', 'm12', 'e1', 'e2']}"
12,186,12,0.4003999999999992,0.0,162.4911845281624,20.61044658873448,25.89155308906693,38.73036900738376,41.30132426502786,49.0175612836424,95.32331547289664,69.60795025405736,69.56025723697871,61.831339766203314,69.56025723697871,16.74598785334672,29.62751697130568,1.288152911795919,3.864458735387757,15.671056530333264,15.4578349415508,15.4578349415508,64.40764558979498,51.52611647183596,59.47863863881484,"{'others': ['m1', 'm3', 'm12', 'e1', 'e2']}"
13,186,13,0.4337666666666658,2.590801817742204,171.1694744010518,15.544810906452994,28.616341400947174,41.53371272973021,44.34738367968416,54.4068381725856,101.07448084218956,72.54245089678079,71.24704998790969,64.7700454435543,72.54245089678079,14.249409997581893,32.38502272177709,1.2954009088711018,1.2954009088711018,15.759232220390532,15.75923222039068,15.544810906453108,67.36084726129633,54.40683817258548,65.23472291111091,"{'others': ['m1', 'm3', 'm12', 'e1', 'e2']}"
14,186,14,0.4671333333333324,2.609867642287668,172.5673220226105,15.659205853725323,28.70854406516321,39.23491377483458,41.839361148764624,54.80722048803898,101.78483804921518,73.07629398405197,71.7713601629082,62.63682341490164,73.07629398405197,13.049338211437885,33.92827934973832,1.1368683772161605e-13,2.6098676422874405,13.049338211437773,13.049338211437885,11.744404390294108,65.24669105718931,54.80722048803898,65.45514747025874,"{'others': ['m1', 'm3', 'm12', 'e1', 'e2']}"
15,186,15,0.5004999999999991,5.183887597946978,171.2449229845014,18.14360659281465,31.103325587682207,41.55202008156257,44.13921239148706,49.31509405696704,103.71014619561912,72.62069633220459,69.98248257228511,62.20665117536453,69.98248257228511,16.847634693327905,37.58318508511593,3.887915698460233,1.2959718994867444,18.14360659281465,18.14360659281465,18.14360659281465,67.3905387733115,57.02276357741744,62.422272796507855,"{'others': ['m1', 'm3', 'm12', 'e1', 'e2']}"
16,186,16,0.5338666666666656,5.723989677538123,166.4687361380443,17.91892203007501,33.27799805585357,40.95753606874291,43.59260664443696,48.70439186344385,105.07848251771344,71.85830163440677,69.1158421160037,63.99615010741081,69.1158421160037,17.91892203007501,38.39769006444647,2.559846004296446,2.559846004296446,15.570935358267908,15.359076025778675,15.359076025778563,63.99615010741081,53.75676609022503,58.932080650759325,"{'others': ['m1', 'm3', 'm12', 'e1', 'e2']}"
17,186,17,0.5672333333333321,8.055287905036456,168.19934949220269,15.283834192992911,33.11497408481807,40.836416898264,45.922206557104886,48.46579627980549,104.56371863493176,71.50627848491752,67.5036010190521,61.135336771971765,66.22994816963603,15.283834192992911,40.75689118131447,5.094611397664266,0.0,10.189222795328646,12.73652849416078,11.462875644744711,63.68264247080396,56.0407253743075,63.733568222621535,"{'others': ['m1', 'm3', 'm12', 'e1', 'e2']}"
18,186,18,0.6005999999999987,10.568592052697712,171.75755305145506,15.379560475530525,30.75912095106105,43.57542134733626,46.20982824052031,46.42261445373477,102.81836554988388,72.18205920784528,66.64476206063205,61.51824190212199,64.08150198137707,16.66119051515807,39.73053122845374,6.408150198137605,3.844890118882631,10.25304031702035,10.568592052697822,8.971410277392806,64.08150198137707,56.39172174361181,64.13274669326991,"{'others': ['m1', 'm3', 'm12', 'e1', 'e2']}"
19,186,19,0.6339666666666652,5.128205128205195,161.53846153846143,15.596827000764636,33.43180720616737,41.02564102564088,46.22501635210224,46.43787250326883,100.52459376365468,67.10898629898674,64.10256410256409,64.10256410256409,64.10256410256409,17.9487179487179,35.89743589743591,0.0,2.564102564102541,10.572065706711854,10.572065706711854,10.256410256410163,61.53846153846155,58.974358974359006,66.71595810901385,"{'others': ['m1', 'm3', 'm12', 'e1', 'e2']}"
20,186,20,0.6673333333333318,5.770017691983269,167.7478215683705,18.063012506911377,36.12602501382276,41.28688573008321,46.51936984501178,49.6355689830304,108.86847607560549,72.98559218453973,69.67161966951528,67.09118931138505,69.67161966951528,19.353227685976435,39.99667055101816,1.2902151790651717,3.870645537195287,7.741291074390574,10.321721432520803,10.321721432520915,61.93032859512471,59.34989823699448,67.28939118872118,"{'others': ['m1', 'm3', 'm12', 'e1', 'e2']}"
21,186,21,0.7006999999999983,13.156296027227004,165.13036349399067,15.480971577561604,36.21429841700747,41.28259087349784,46.514530680749175,49.29392445086244,113.9952799806555,77.79091942430101,70.95445306382408,67.08421016943373,67.08421016943373,18.061133507155205,46.442914732684926,7.740485788780802,2.5801619295936007,10.320647718374405,8.159188429570818,7.740485788780916,59.343724380652816,59.343724380652816,67.28239142887585,"{'others': ['m1', 'm3', 'm12', 'e1', 'e2']}"
22,186,22,0.7340666666666649,10.703725131364248,163.57078604412078,15.791062387328502,31.1524159794302,41.53655463924042,44.20887732881475,49.59717263410111,106.94276497657448,75.99777862715021,70.0929359537181,67.49690128876557,64.90086662381304,16.874225322191364,40.2385373067641,6.490086662381373,1.2980173324762063,10.384138659810104,10.384138659810104,11.682155992286312,62.30483195886052,62.30483195886052,62.35889256075245,"{'others': ['m1', 'm3', 'm12', 'e1', 'e2']}"
23,186,23,0.7674333333333314,5.695140381156393,157.9926789457221,12.986918210168634,28.13191825401028,40.830621739074985,43.29805151447749,51.00251799351167,97.31860149341902,69.19068215197164,66.2205493750829,66.22054937508301,61.126660961615016,12.73472103366987,33.110274687541505,2.546944206733997,2.546944206733997,10.501319986919142,10.501319986919032,8.914304723568875,58.57971675488102,63.67360516834901,66.26951097095876,"{'others': ['m1', 'm3', 'm12', 'e1', 'e2']}"
24,186,24,0.800799999999998,2.529822128134697,151.8104080753359,12.899612397277668,27.9427987145168,37.94733192202057,40.47715405015538,50.65964863676018,93.91059578130678,65.96969000988251,64.51046426743483,65.77537533150223,63.245553203367535,13.914021704740776,29.092954473549185,1.2649110640674053,3.794733192201989,10.1192885125389,10.119288512538787,11.384199576606193,58.18590894709814,63.245553203367535,63.29612942352789,"{'others': ['m1', 'm3', 'm12', 'e1', 'e2']}"
25,186,25,0.8341666666666645,8.104242643198395,153.78854785068543,13.06769860884362,28.190652009487167,38.441798194755165,41.00458474107222,48.96196821946576,97.92393643893163,69.95045952013267,65.35105693108392,64.06966365792539,61.506877111608446,14.095326004743583,34.59761837527981,3.8441798194755847,3.844179819475471,12.813932731585057,12.813932731585057,11.532539458426529,61.50687711160833,66.63245020424233,66.63245020424256,"{'others': ['m1', 'm3', 'm12', 'e1', 'e2']}"
26,186,26,0.867533333333331,7.633408628210304,152.75296466880584,15.477403994044153,28.10458469676471,40.79094985724317,43.33075493959624,48.61202235742673,99.75488917976544,71.65291289511242,67.42844288252377,66.15620811115548,61.06726902568198,15.266817256420609,35.622573598314375,7.633408628210191,5.088939085473612,20.355756341893997,20.982233371741344,19.08352157052559,55.97832994020837,63.61173856841867,68.70067765389217,"{'others': ['m1', 'm3', 'm12', 'e1', 'e2']}"
27,186,27,0.9008999999999976,8.088321388232528,153.65681984589395,15.558196831688228,30.799410250042445,41.00388069438078,43.55694368870287,51.21893994863144,105.36571551801794,74.57063862368248,70.33817459424176,71.61705049595525,63.94379508567431,16.625386722275266,37.08740114969112,6.394379508567454,3.836627705140472,20.46201442741574,18.62071419845385,17.90426262398887,56.270539675393366,66.50154688910129,66.55071624656847,"{'others': ['m1', 'm3', 'm12', 'e1', 'e2']}"
28,186,28,0.934266666666664,7.978804532522015,151.7232149388441,15.347536953606394,30.382382487862994,37.93080373471097,42.96717737154282,50.714074963810674,104.2143056094209,73.86322004579927,69.38578715212225,73.17046645132893,63.0779883201111,17.66183672963109,35.323673459262295,5.046239065608916,5.046239065608916,22.708075795240006,20.34204000323601,18.92339649603332,50.46239065608893,63.0779883201111,70.8273404508008,"{'others': ['m1', 'm3', 'm12', 'e1', 'e2']}"
29,186,29,0.9676333333333308,5.90152832488665,161.33962480431845,16.05389269348226,34.41152776848049,39.6765327736513,44.9447007001651,50.422680110928255,106.391314894908,72.03733371555558,68.62033622905142,71.2595799301688,60.70260512569939,15.835462206704278,39.58865551676036,5.278487402234646,2.6392437011174934,18.66227118263968,16.05389269348226,17.15508405726291,55.42411772346463,68.62033622905153,71.30843806407499,"{'others': ['m1', 'm3', 'm12', 'e1', 'e2']}"
