,video_id,frame_seq,time_seconds,m1,m3,m4,m5,m6,m7,m8,m9,m10,m11,m12,m13,m14,m15,m16,m17,e1,e2,e3,b1,b2,b3,label_measures
0,231,0,0.0,19.314683399389423,132.6103021185733,13.272746630174474,25.95332598211032,32.35169430419907,35.556275179822066,54.81953435729152,113.0821151501836,87.15420197718399,77.25873359755803,80.47784749745631,93.3543030970493,32.19113899898241,25.752911199186087,3.219113899898161,16.09556949949115,12.8764555995931,16.414324592058964,14.486012549542238,54.72493629827022,32.191138998982524,45.18241668173695,"{'others': ['m1', 'm3', 'm12', 'e1', 'e2']}"
1,231,1,0.0333666666666666,9.824191839958644,132.00861130413085,16.69791529907618,26.40172226082612,32.91063535653862,39.83881734304176,59.036045698276666,111.77342075436076,85.3945267629746,80.23090002632944,81.86826533298915,98.241918399587,31.10994082653588,21.28574898657712,8.186826533298927,14.736287759938024,13.502060214160228,16.69791529907618,16.37365306659774,52.39568981311311,29.47257551987616,46.31168446474891,"{'others': ['m1', 'm3', 'm12', 'e1', 'e2']}"
2,231,2,0.0667333333333332,26.633395703409175,135.1907204470214,16.97552555061528,20.25057767991278,33.45778927341955,37.221302040296166,60.017546155227606,123.58369143676788,103.41897076184154,89.88771049900606,83.22936157315371,106.53358281363684,34.956331860724504,28.297982934872262,4.993761694389264,18.31045954609374,13.726537956753514,13.726537956753404,13.316697851704587,49.93761694389224,26.633395703409175,43.788453393511226,"{'others': ['m1', 'm3', 'm12', 'e1', 'e2']}"
3,231,3,0.1000999999999998,39.99444560158395,138.62497682176084,13.741776971112628,20.273059593780463,33.494933652634096,37.26262461981641,60.08417681261087,133.68924080669365,113.51347777339988,93.32037307036262,89.98750260356394,113.3175958711546,41.66088083498335,31.6622694345873,8.332176166996646,24.99652850098994,13.331481867194723,13.741776971112518,13.331481867194723,49.993057001979935,26.662963734389336,40.13307494481994,"{'others': ['m1', 'm3', 'm12', 'e1', 'e2']}"
4,231,4,0.1334666666666664,47.571705905475326,147.6602897590967,16.946718543287716,23.96627920163708,37.89401465834764,41.23314582664794,57.71844354165115,146.09604765606684,122.2045253173604,98.29096755106866,91.5122801337535,115.23768609435626,45.756140066876696,42.36679635821929,15.252046688959012,25.42007781493146,13.557374834630195,13.974622112317675,13.557374834630082,50.84015562986304,27.11474966926028,37.43652487345457,"{'others': ['m1', 'm3', 'm12', 'e1', 'e2']}"
5,231,5,0.166833333333333,46.27467092265124,140.23342974249704,16.85396071569166,23.37223829041618,36.95475350695734,40.21111919859752,56.19067183464779,142.28299979762178,119.03790950340826,95.85467548263456,92.54934184530237,112.38134366929567,46.27467092265124,39.66400364798676,13.221334549328958,26.4426690986578,13.221334549328958,13.628239714627854,13.221334549328844,52.885338197315605,33.05333637332228,36.50860330658747,"{'others': ['m1', 'm3', 'm12', 'e1', 'e2']}"
6,231,6,0.2001999999999996,37.76601820077951,145.622433976386,16.047471979706263,22.91173021518695,41.0340527815746,44.507679280309794,50.35469093437269,126.2402872601397,103.90422347675778,84.97354095175399,81.82637276835567,97.56221368534716,39.33960229247873,36.19243410908041,14.162256825292276,20.45659319208892,15.735840916991378,12.976106841734504,12.588672733593173,50.35469093437274,31.471681833982984,31.62864880190188,"{'others': ['m1', 'm3', 'm12', 'e1', 'e2']}"
7,231,7,0.2335666666666662,18.994147046832328,135.17728736304437,15.613092696141392,21.85832977459779,34.49044908473789,37.98829409366439,53.08451516688058,109.33624860913392,87.48906237412027,78.06546348070674,74.94284494147848,90.55593763761988,29.6648761226686,26.542257583440232,1.5613092696140711,14.051783426527209,12.490474156913024,12.87488606575016,12.490474156913024,49.96189662765232,34.34880393151093,37.601306473607735,"{'others': ['m1', 'm3', 'm12', 'e1', 'e2']}"
8,231,8,0.2669333333333328,15.92666118762392,131.77956464693844,15.926661187624031,22.08630521496935,34.921514788478994,37.99871628126893,53.09907904212605,106.24408161421889,84.33383141984734,76.52514332541705,74.96340570653092,87.45730665761948,28.111277139949152,24.98780190217701,0.0,9.370425713316422,12.493900951088447,12.87841832433569,12.493900951088564,49.975603804353966,37.48170285326546,37.611622490148974,"{'others': ['m1', 'm3', 'm12', 'e1', 'e2']}"
9,231,9,0.3002999999999994,14.191789398747206,138.3672709351803,14.191789398747206,24.338718025255936,34.59181773379507,38.48289214420204,58.61539500553532,110.35938062313345,86.1191755813638,79.16633378081053,79.16633378081053,92.9343918296471,27.536116097673244,24.094101585464045,3.4420145122090844,10.32604353662748,17.210072561045877,17.550899163823985,17.210072561045763,55.07223219534637,34.420145122091526,38.01829291374808,"{'others': ['m1', 'm3', 'm12', 'e1', 'e2']}"
10,231,10,0.333666666666666,10.335231091083756,138.49038264124457,17.566515003642344,24.1155392125288,34.62259566031103,35.133030007285,55.12123248578018,106.85293925207718,82.75359004258266,77.51423318312834,75.7916946679477,89.57200278939274,27.560616242889974,24.115539212528915,3.445077030361176,10.335231091083642,20.670462182167512,17.225385151806222,17.225385151806336,55.12123248578018,37.89584733397385,38.05211953235962,"{'others': ['m1', 'm3', 'm12', 'e1', 'e2']}"
11,231,11,0.3670333333333326,6.8840290244182825,145.21875135814935,17.550899163823985,27.536116097673244,38.01829291374808,41.87391380721717,55.179690311566766,106.70244987848378,79.16633378081053,75.72431926860145,75.72431926860133,89.49237731743801,27.53611609767313,24.09410158546416,6.8840290244182825,10.326043536627369,17.210072561045763,14.191789398747316,15.489065304941164,55.07223219534649,34.420145122091526,41.87391380721717,"{'others': ['m1', 'm3', 'm12', 'e1', 'e2']}"
12,231,12,0.4003999999999992,10.156370535983,142.83258077835444,16.927284226638335,27.083654762621336,37.393593064751634,41.1858600934015,54.16730952524256,108.33461905048524,81.2509642878639,76.17277901987245,77.86550744253623,91.4073348238469,30.469111607949003,23.69819791729367,6.770913690655334,13.541827381310668,16.927284226638335,17.262510516752023,16.92728422663845,54.16730952524256,33.85456845327656,34.52502103350432,"{'others': ['m1', 'm3', 'm12', 'e1', 'e2']}"
13,231,13,0.4337666666666658,10.604530722617367,149.51176562181246,17.674217871028873,24.995118617545916,39.0436234163871,46.49360819811623,56.55749718729237,109.63714958228304,84.83624578093861,79.53398041962987,77.76655863252711,95.44077650355598,30.04617038074923,22.976483232337387,5.302265361308741,12.37195250972036,17.674217871028873,18.024236362373305,17.674217871028873,56.55749718729237,35.348435742057745,35.52473826088622,"{'others': ['m1', 'm3', 'm12', 'e1', 'e2']}"
14,231,14,0.4671333333333324,6.825401930692806,137.57037400244897,20.476205792078304,20.75864955912148,34.29722023381054,38.15515672696833,54.603215445542105,102.4378915190438,81.90482316831321,78.49212220296681,75.07942123762041,92.14292606435232,29.00795820544431,18.76985530940499,5.119051448019604,8.531752413366007,17.401428816358177,14.07092654877052,15.3571543440587,54.603215445542105,34.1270096534638,38.15515672696833,"{'others': ['m1', 'm3', 'm12', 'e1', 'e2']}"
15,231,15,0.5004999999999991,3.410839390413571,140.5083684845612,17.391936609449807,20.747326040872984,34.27851163727641,37.67395243876093,58.08450181147392,98.973132426633,78.44930597951259,76.74388628430586,75.03846658909902,88.68182415075341,23.875875732895224,17.054196952067855,6.821678780827256,6.821678780827256,17.05419695206797,17.391936609449807,18.759616647274697,57.98426963703105,37.51923329454951,38.13434368649356,"{'others': ['m1', 'm3', 'm12', 'e1', 'e2']}"
16,231,16,0.5338666666666656,0.0,141.7139380466384,17.541160386140536,20.92533924420839,34.572623160375784,34.572623160375784,61.92188245384034,100.0,79.19715493066924,79.1224053576849,75.68230077691601,89.44271909999156,20.640627484613447,17.200522903844558,6.880209161537778,3.440104580768889,20.640627484613447,17.541160386140422,17.200522903844558,55.04167329230256,34.401045807689115,41.85067848841654,"{'others': ['m1', 'm3', 'm12', 'e1', 'e2']}"
17,231,17,0.5672333333333321,3.4379438306019665,134.47591013647224,14.17500554851258,20.912195914055665,34.55090788994991,35.06028535775096,58.44504512023366,96.50768224608284,75.71285904290961,73.91579235794256,72.19682044264164,82.51065193444754,18.908691068310983,18.908691068310876,5.156915745903007,5.156915745903007,17.189719153009946,13.751775322407866,15.47074723770902,58.44504512023366,37.81738213662175,37.97333076581052,"{'others': ['m1', 'm3', 'm12', 'e1', 'e2']}"
18,231,18,0.6005999999999987,7.319332236545802,134.56428591368814,13.496181790506034,23.145760818978857,32.89630697595901,36.15483418700813,55.74237359996758,98.19914658493065,75.35713758647773,72.0127074956157,75.2860123817801,85.10592704027317,24.54978664623252,18.003176873904067,8.183262215410764,8.183262215410764,13.093219544657472,16.6906454884906,14.72987198773967,52.37287817862966,36.00635374780791,32.89630697595899,"{'others': ['m1', 'm3', 'm12', 'e1', 'e2']}"
19,231,19,0.6339666666666652,6.770913690655334,135.5874409918848,13.541827381310668,23.938794927456083,34.023420216215584,37.39359306475209,54.16730952524256,98.23660111906833,74.48005059720856,71.0945937518809,74.48005059720856,81.2509642878639,23.69819791729367,20.312741071966,6.770913690655334,10.156370535983,16.927284226638335,17.262510516752023,15.234555803974558,54.16730952524256,37.24002529860422,34.023420216215584,"{'others': ['m1', 'm3', 'm12', 'e1', 'e2']}"
20,231,20,0.6673333333333318,6.386932928370243,128.09741974419623,15.967332320925491,22.354265249295736,32.09394076528118,35.27298999320495,47.90199696277671,92.61052746136818,70.25626221207244,67.06279574788732,70.25626221207244,79.8366616046278,27.144464945573414,17.564065553018054,7.983666160462803,11.177132624647925,15.967332320925609,16.283547816884045,15.967332320925609,51.09546342696172,35.12813110603611,35.27298999320494,"{'others': ['m1', 'm3', 'm12', 'e1', 'e2']}"
21,231,21,0.7006999999999983,6.446374417729885,129.28958842642962,16.435094473965137,22.56231046205471,32.23187208864965,35.60126634789379,48.455128593847455,93.4724290570838,70.91011859502908,67.68693138616413,74.13330580389402,83.80286743048896,30.620278484217124,14.504342439892298,8.057968022162413,14.504342439892298,12.892748835459884,16.435094473965048,16.115936044324826,51.57099534183931,35.45505929751448,36.03632851614901,"{'others': ['m1', 'm3', 'm12', 'e1', 'e2']}"
22,231,22,0.7340666666666649,10.080830694675342,131.22300777659544,10.62612856723704,20.43976640795021,33.770364879688,33.77036487968799,57.51867543671669,97.44803004852758,77.35938366710907,72.24595331183946,77.28636865917713,84.0069224556272,23.52193828757561,16.801384491125418,6.72055379645019,10.080830694675228,17.13411747512473,13.854776582704938,15.1212460420129,53.76443037160141,36.96304588047599,37.11547145861066,"{'others': ['m1', 'm3', 'm12', 'e1', 'e2']}"
23,231,23,0.7674333333333314,22.046560660333967,116.91424149182248,12.98575689773485,19.15771330094656,28.52001396437589,31.495086657619595,53.63419993209426,107.1296009276442,88.18624264133564,77.16296231116871,81.8872253098117,91.33575130709757,33.06984099050089,20.471806327452896,1.574754332880957,20.47180632745301,15.747543328809911,19.157713300946448,17.322297661690982,47.24262998642979,31.49508665761988,34.787460240100565,"{'others': ['m1', 'm3', 'm12', 'e1', 'e2']}"
24,231,24,0.800799999999998,48.8097897202928,120.83078689555865,16.23389458033671,22.727452412471507,32.629724275754484,39.096395394253626,55.29065260645461,142.8582723069634,120.13081989449188,95.7799780239868,94.15658856595314,107.14370423022253,45.4549048249429,42.20812590887556,16.23389458033671,29.22101024460619,19.480673496404165,16.555389049349007,16.23389458033671,51.94846265707753,35.71456807674082,35.861845270955726,"{'others': ['m1', 'm3', 'm12', 'e1', 'e2']}"
25,231,25,0.8341666666666645,50.4670045736308,120.65681710190266,15.740226263443674,22.26004145658339,31.63746323918188,37.90748464856941,50.36872404301994,138.6570102489367,116.52020773572846,91.29331232797358,88.14526707528489,103.88549333872857,45.64665616398679,42.4986109112981,17.314248889788132,26.758384647854317,15.740226263443788,19.148811706738325,17.31424888978802,50.36872404302,34.628497779576264,37.907484648569856,"{'others': ['m1', 'm3', 'm12', 'e1', 'e2']}"
26,231,26,0.867533333333331,36.17058185814959,132.0086113041304,16.373653066597853,19.91940867152071,33.39583059815233,39.838817343041306,58.94515103975221,131.15285885583654,111.38898824575466,93.32982247960764,91.6924571729478,108.06611023954564,40.93413266649452,31.10994082653588,8.186826533298927,21.28574898657712,19.6483836799174,19.6483836799174,19.648383679917515,52.39568981311305,36.022036746515255,42.6972633814872,"{'others': ['m1', 'm3', 'm12', 'e1', 'e2']}"
27,231,27,0.9008999999999976,9.750942763674402,137.13090862757167,16.57341580930078,16.57341580930087,33.146831618601446,32.66525398786597,61.84144626967411,104.06082991317405,87.75848487307019,82.88301349123299,84.50817061851205,97.5094276367447,29.252828291023437,13.001257018232536,6.500628509116382,9.750942763674516,19.50188552734892,16.251571272790784,16.25157127279067,48.75471381837241,35.753456800139816,39.00377105469806,"{'others': ['m1', 'm3', 'm12', 'e1', 'e2']}"
28,231,28,0.934266666666664,3.277697701515649,141.54949185709214,16.713044539686155,16.71304453968627,32.94045422386587,32.94045422386587,62.36245188053847,98.3855441743913,81.94244253788997,80.3035936871322,85.22014023940562,98.330931045468,29.499279313640383,6.555395403031184,13.110790806062482,9.833093104546831,19.666186209093556,16.388488507578018,16.388488507577904,49.165465522734,32.77697701515592,42.73594947849545,"{'others': ['m1', 'm3', 'm12', 'e1', 'e2']}"
29,231,29,0.9676333333333308,3.251065660627773,140.13563819887975,19.775460384006077,16.57724724351266,32.672805525406794,32.672805525406794,58.51918189130049,97.74846724353708,81.34163684116844,79.65110868538125,81.27664151569513,91.02983849757857,27.634058115336305,11.378729812197436,8.127664151569434,8.127664151569434,16.577247243512545,19.77546038400596,19.506393963766868,48.76598490941712,35.76172226690585,39.01278792753328,"{'others': ['m1', 'm3', 'm12', 'e1', 'e2']}"
30,231,30,1.0009999999999972,19.50961619052009,136.91525609713594,13.006410793680176,19.509616190520205,35.915125688509455,39.154481425680856,65.11329329297779,117.10284958342832,97.60225928554908,87.79327285734087,87.79327285734087,97.54808095260093,27.638622936570187,24.387020238150285,1.6258013492100645,11.380609444469997,16.25801349210019,16.25801349210019,16.25801349210019,48.77404047630051,39.01923238104041,45.52243777788044,"{'others': ['m1', 'm3', 'm12', 'e1', 'e2']}"
31,231,31,1.0343666666666638,19.92675567984764,137.9399619185977,16.379692270241208,19.65563072428938,36.03532299453036,39.44752272872416,58.96689217286814,114.70463546551557,95.05868008481625,85.17439980525398,85.17439980525398,95.00221516739872,31.12141531345821,24.569538405361754,1.6379692270242003,14.741723043217007,16.379692270241094,16.379692270241094,18.01766149726518,49.1390768107234,39.31126144857876,45.97998730619938,"{'others': ['m1', 'm3', 'm12', 'e1', 'e2']}"
32,231,32,1.0677333333333303,10.53763303794245,146.96126225381332,16.99142272177549,26.86579824377401,33.48912168790894,40.126111144912144,56.64896662979368,110.01611879454065,83.30730386734365,78.30886563530294,79.97501171264992,89.97188817673111,28.32448331489684,24.992191160202992,1.6661460773468662,8.330730386734444,20.269541858577867,16.661460773468775,18.32760685081564,49.9843823204061,46.652090165712366,43.44777405943459,"{'others': ['m1', 'm3', 'm12', 'e1', 'e2']}"
33,231,33,1.1010999999999969,7.212184459746018,142.2465121578252,16.126934718260145,25.803095549216096,35.479256380172046,35.62556321275861,54.831578042084175,103.26276656998829,77.47645306952337,74.1838997039963,77.40928664764829,87.08544747860435,27.4157890210422,20.965015133738007,4.838080415478089,11.288854302782056,19.35232166191201,19.35232166191213,17.739628190086137,45.15541721112811,41.93003026747613,45.155417211128224,"{'others': ['m1', 'm3', 'm12', 'e1', 'e2']}"
34,231,34,1.1344666666666634,9.754808095260046,143.21824258886355,16.25801349210019,26.01282158736024,35.76762968262028,39.154481425680856,52.02564317472047,104.05128634944094,78.03846476208071,73.16106071445063,78.03846476208071,84.54167015892074,29.26442428578025,22.76121888894022,3.2516026984200157,13.00641079368006,16.25801349210019,16.258013492100076,16.258013492100076,45.52243777788044,45.52243777788044,52.0256431747207,"{'others': ['m1', 'm3', 'm12', 'e1', 'e2']}"
35,231,35,1.16783333333333,9.677104677830926,142.07741574955787,16.12850779638495,25.80561247421588,38.70841871132416,38.70841871132416,51.61122494843187,103.22244989686362,77.41683742264775,72.57828508373234,77.41683742264775,83.86824054120177,29.03131403349289,22.579910914938864,3.225701559277013,12.90280623710794,16.12850779638495,19.354209355661965,17.741358576023572,41.93412027060083,41.93412027060083,48.38552338915497,"{'others': ['m1', 'm3', 'm12', 'e1', 'e2']}"
36,231,36,1.2011999999999965,9.676160830956064,145.28569227461446,16.44631096456901,25.803095549216096,38.70464332382426,38.70464332382426,54.926360443064695,106.43776914051648,80.63467359130038,75.79659317582241,80.63467359130038,87.08544747860446,29.028482492868196,22.577708605564,3.225386943652097,12.90154777460816,16.12693471826003,16.126934718260145,16.12693471826003,41.93003026747624,41.93003026747624,51.60619109843219,"{'others': ['m1', 'm3', 'm12', 'e1', 'e2']}"
37,231,37,1.234566666666663,15.997952393132095,140.81833534837017,19.19754287175863,25.596723829011356,35.195495264890724,38.52817136178333,51.29333740697361,112.03136586288724,86.44817429286364,78.38996672634755,83.18935244428712,86.38894292291354,33.59570002557757,27.196519068324505,1.5997952393131527,14.398157153818945,19.197542871758515,19.197542871758515,19.197542871758515,41.59467622214356,44.79426670076998,51.29333740697351,"{'others': ['m1', 'm3', 'm12', 'e1', 'e2']}"
