,video_id,frame_seq,time_seconds,m1,m3,m4,m5,m6,m7,m8,m9,m10,m11,m12,m13,m14,m15,m16,m17,e1,e2,e3,b1,b2,b3
0,231,0,0.0,3.1949941706386653,160.03699967754463,19.43439082568181,19.434390825681735,41.53492421830197,41.65762736367137,54.40879016868749,96.32788207537304,76.94564896886983,75.08236301000738,79.87485426596527,89.45983677788115,30.352444621066752,11.182479597235215,11.182479597235101,14.377473767873653,12.779976682554434,10.103458690178563,11.182479597235101,47.92491255957913,41.53492421830191,60.78890989029258
1,231,1,0.0333666666666666,7.0210022687099976,139.0442097126158,21.979213680222074,28.432892129689893,37.80925432826877,40.93912648244798,50.62916736996579,107.49243897937617,79.06035136714789,75.35730404647575,81.63707938368213,97.33651772669793,39.2485958575395,17.26938217731731,14.129494508714288,17.269382177317425,9.419663005809412,12.946088510225199,12.559550674412776,50.238202697650536,37.67865202323793,59.65786570345972
2,231,2,0.0667333333333332,7.000328148073166,132.8218878989963,19.04295137149732,28.349168322255057,34.57907023054803,38.085902742994605,56.698336644510164,110.68490658249698,82.35433100092237,78.26604801948315,84.52733186104183,103.31118338571787,37.56770304935196,15.653209603896585,15.653209603896698,15.653209603896698,12.907967315359636,15.963204244125473,14.087888643507085,50.090270732469264,37.56770304935196,59.56452483385569
3,231,3,0.1000999999999998,21.737846337174716,108.68923168587344,21.737846337174634,24.784958188227822,30.89528452733207,34.37055292611005,55.42085132836751,123.5811381093285,98.80562576798069,87.61457775442193,95.30006703112565,110.67104558453298,47.65003351556288,19.982272119429467,7.68548927670372,26.130663540792625,12.675233628960404,12.67523362896046,13.83388069806665,49.18713137090356,30.741957106814766,55.42085132836764
4,231,4,0.1334666666666664,38.1396991904196,116.80534499746254,19.003977724474225,29.20133624936553,32.30055108432554,38.53222787635128,57.36277915056603,143.406947876415,114.41909757125894,95.01988862237101,91.8525590016252,117.19119596759072,47.509944311185336,38.00795544894845,6.334659241491522,25.33863696596552,16.150275542162667,20.031951404147453,17.420312914101373,57.01193317342256,34.84062582820269,57.099846769472734
5,231,5,0.166833333333333,44.45558968803872,129.86051445057385,19.266113938175565,29.20133624936553,35.41182169567989,38.53222787635083,57.79834181452677,150.50649122191047,121.39593940885977,98.18721824311649,88.68522938087949,117.19119596759072,45.9262795008126,45.926279500812484,14.252983293355555,26.922301776338486,16.150275542162735,22.39640253082289,20.587642534846964,60.17926279416815,34.840625828202576,53.93767985992151
6,231,6,0.2001999999999996,24.362667142159342,129.19813632325776,18.380994934294723,27.859775738721453,36.761989868589424,39.399672694372654,54.72743265025389,125.21411863316118,97.45066856863725,84.61087468016285,78.56724077443698,102.74177639734069,36.261803434355556,33.239986481492565,3.0218169528628778,18.130901717177835,15.40830360915366,18.380994934294723,16.61999324074634,54.392705151533335,33.23998648149262,54.727432650253995
7,231,7,0.2335666666666662,24.572517964348354,115.37615937192848,15.541024922548942,24.572517964348354,34.07595134142994,37.699769798023475,55.19883410523155,119.83887619256572,95.26651202799702,82.29183508520566,79.24398934130909,103.6267552924811,36.57414892675797,27.430611695068592,3.0478457438964597,18.287074463378985,18.539321889102514,18.53932188910255,19.810997335327215,57.90906913403353,33.52630318286151,49.14503592869689
8,231,8,0.2669333333333328,26.81606092615958,108.60484488339247,18.013119058278797,20.939825569362117,27.302192243261853,30.199845915842776,51.12062907923617,116.85098126424577,95.91263038038299,81.43680961327641,79.95614034758057,100.68551006732366,39.97807017379023,25.171377516830944,1.4806692656959513,22.21003898543904,21.55886992789342,23.87507452004902,23.69070825113488,62.18810915922927,38.49740090809428,44.813183668747456
9,231,9,0.3002999999999994,33.4590408818997,107.44468568239274,17.956005569729314,27.099757662739936,27.59103193758637,30.519340928743418,45.77901139311536,124.0062654719286,96.92732453366207,79.30569126630462,77.8093574688271,101.75069822846626,44.890013924323284,32.91934354450382,2.9926675949549235,23.941340759639047,30.51934092874362,30.0759371046556,29.92667594954878,68.83135468396245,41.897346329368474,48.71709888203169
10,231,10,0.333666666666666,32.366068055049254,104.48520547157429,17.89773691075788,24.263403141254273,30.006402289266997,32.896694697943204,47.44428781068711,121.53091598821241,97.49861082951035,80.91517013762325,82.38635504921638,100.04057398833424,44.1355473477945,29.423698231863114,2.942369823186368,23.538958585490377,27.12730939466307,23.722143905343554,23.538958585490377,61.789766286912254,41.19317752460813,53.28858393557057
11,231,11,0.3670333333333326,24.274853527813825,118.80760633391519,15.35276540297295,27.265085628479017,30.705530805946147,36.6294837196503,57.52364163285567,124.36250266782855,97.09941411125533,84.30590040640038,78.28405037737184,96.34960046445758,30.109250145142937,36.13110017417159,6.021850029028542,15.054625072571525,21.29045495407261,24.087400116114395,22.581937608857288,60.21850029028599,42.152950203200135,54.2802226320426
12,231,12,0.4003999999999992,23.43834941236196,109.3876832008591,14.939075127504895,24.159697579325343,32.36062886331456,35.64247839438805,58.88812408965229,121.01147393546749,97.08188658994358,84.9640166198119,82.03422294326663,96.68319132599288,30.76283360372497,30.76283360372497,4.394690514817853,16.113865220998832,20.71676976162597,20.71676976162605,20.508555735816685,55.66607985435951,41.01711147163337,52.81760663657025
13,231,13,0.4337666666666658,14.782002338616394,110.0241821596185,15.07474367491592,26.771344857803918,29.711456986842585,32.654510477384974,59.2018732300536,115.64023823954327,88.8888888888889,81.3010128623904,85.73561356397533,97.56121543486847,32.52040514495616,23.651203741786276,5.912800935446512,17.73840280633965,20.904908186302194,20.69480327406302,20.69480327406302,56.17160888674243,41.389606548125926,50.34568581726519
14,231,14,0.4671333333333324,9.064933527526819,109.44861912449302,18.37994600029472,27.36215478112333,30.36715148845765,33.37515446944625,54.38960116516091,108.94694214056867,81.64033895126045,77.05193498397796,84.60604625691701,96.69262429361936,36.259734110107274,18.129867055053637,12.086578036702463,18.129867055053637,24.36127685670478,24.17315607340481,24.17315607340481,54.38960116516091,42.30302312845856,54.473471070284326
15,231,15,0.5004999999999991,14.788870829817256,115.95832812646186,17.99143786980652,23.846337687255932,32.66968347037624,35.616317362157126,50.36907905534705,106.8489520864717,83.02867743900593,75.42324123206777,76.90212831504937,88.7332249789032,32.53551582559783,23.66219332770754,2.9577741659634285,14.788870829817142,17.99143786980652,20.704419161744113,20.704419161744113,53.23993498734188,44.3666124894516,53.23993498734194
16,231,16,0.5338666666666656,9.430186245659968,146.395858695894,17.89252037752658,27.003943851745845,41.74921421422869,44.73130094381645,54.00788770349169,108.01577540698338,81.01183155523753,76.04321160448796,74.55216823969408,83.49842842845737,25.34773720149599,28.32982393108375,1.4910433647938817,10.437303553557172,18.13932542083601,17.89252037752658,17.89252037752658,50.69547440299209,44.731300943816564,62.62382132134303
17,231,17,0.5672333333333321,9.435431941257118,152.43406809051163,14.918727820938216,27.018965237928327,44.85553138408844,44.85553138408844,53.790238123084116,104.81401713651147,77.8065650342595,73.10176632259754,71.60989354050366,80.56113023306659,22.378091731407267,28.34558285978278,1.4918727820937647,7.459363910469051,18.149415717784247,17.90247338512586,17.90247338512586,47.73992902700235,44.756183462814704,62.65865684794062
18,231,18,0.6005999999999987,15.035894053464176,159.4939150429801,18.043072864157125,27.231162310069752,45.10768216039264,48.20874371591065,54.21268698220929,114.43095791981767,87.26001801720064,79.6902384833603,78.18664907801394,84.20100669939961,27.06460929623563,33.0789669176213,3.007178810692835,12.02871524277134,21.263965292814103,15.03589405346429,16.539483458810764,48.11486097108548,45.10768216039264,63.22231397671366
19,231,19,0.6339666666666652,9.509534373185634,159.40884405370625,21.05025167484996,30.071788106928466,45.10768216039264,48.20874371591065,54.12921859247115,114.3123561005049,84.25468920832725,79.6902384833603,78.18664907801394,81.19382788870678,25.561019890889156,34.582556322967775,4.51076821603931,7.517947026732031,18.043072864157125,18.29195459158927,18.043072864157125,48.11486097108548,51.12203978177831,66.22624354247958
20,231,20,0.6673333333333318,9.160305343511368,161.83206106870216,18.320610687022963,30.686643117926373,48.85496183206078,48.85496183206101,58.09556516165019,116.19113032330038,85.55069145723293,80.91603053435108,82.442748091603,82.442748091603,24.427480916030504,33.587786259541986,3.053435114503827,9.160305343511368,15.267175572519022,15.267175572519022,16.793893129770936,45.801526717557294,48.85496183206112,61.14499051755941
21,231,21,0.7006999999999983,9.160038462064449,164.88069231716054,18.320076924129012,30.53346154021483,48.853538464343956,51.90688461836544,55.044980600326234,113.01506160110081,82.49687022840817,77.86032692754804,79.38700000455879,79.38700000455879,24.426769232171978,33.58680769423631,3.053346154021483,9.160038462064449,12.213384616085932,15.266730770107415,15.266730770107415,45.80019231032236,48.85353846434384,61.14320908528941
22,231,22,0.7340666666666649,12.784439526358758,170.56569740881739,15.503410156323184,27.906138281381573,46.51023046896944,49.70771437276996,55.81227656276326,111.66760984964485,83.7758152038842,77.5170507816157,77.5170507816157,80.61773281288026,23.25511523448472,32.55716132827854,1.5503410156322843,7.751705078161535,9.30204609379382,12.402728125058502,12.402728125058502,43.40954843770476,49.61091250023401,62.0911092883829
23,231,23,0.7674333333333314,12.306236034563199,169.21074547524404,18.459354051844798,27.68903107776714,49.22494413825302,49.22494413825257,49.320992901073524,107.72350717950778,80.04967695675141,73.83741620737908,76.91397521601994,76.91397521601994,27.689031077767254,30.765590086407883,3.076559008640743,9.229677025922456,12.306236034563199,12.684977756071559,12.306236034563199,43.07182612097108,49.22494413825268,61.60804613679304
24,231,24,0.800799999999998,12.399748132674063,167.3965997910998,15.499685165842607,28.07112373931589,49.59899253069625,49.695771144732944,52.79002544787018,108.67479105206594,80.6579550057259,74.39848879604438,77.4984258292128,77.4984258292128,24.799496265348125,30.9993703316851,3.099937033168544,9.299811099505519,12.399748132674063,12.781367820517689,12.399748132674063,43.39911846435916,49.59899253069614,62.07619071313471
25,231,25,0.8341666666666645,12.77868189338559,170.5733720709377,15.496428000763785,27.893570401374745,46.592478988319414,49.58856960244361,52.687855202596666,108.5192624817879,80.64100522438751,74.38285440366599,80.58142560397141,74.38285440366587,24.79428480122192,30.99285600152757,3.0992856001528253,12.39714240061096,12.39714240061096,12.39714240061096,13.946785200687373,40.290712801985705,49.588569602443954,62.29486959173199
26,231,26,0.867533333333331,15.793838795137486,170.47106077810142,18.584559740987288,27.876839611480932,46.56453244130641,46.56453244130641,49.55882597596599,111.55036996476366,83.68785892951274,75.88695227569804,80.5330922109448,74.33823896394904,27.876839611480932,34.071692858476695,6.194853246995763,12.389706493991525,15.79383879513753,15.487133117489293,15.487133117489293,43.36397272897034,52.65625259946398,62.25750462340408
27,231,27,0.9008999999999976,18.722024709234006,165.64260737123715,18.980271732107663,28.083037063850952,46.805061773084844,50.022814730376204,53.04573667616296,118.61387312445414,90.54356903316516,81.12877374001403,87.36944864309191,78.00843628847497,29.643205789620538,35.883880692698426,7.800843628847474,10.921181080386532,15.601687257695062,15.91066155439168,15.601687257694948,40.56438687000707,53.045736676163074,62.71800656778459
28,231,28,0.934266666666664,31.57396845930162,163.85244863256406,18.850363715713343,28.275545573569957,47.230517429741084,50.36571986181937,50.36571986181925,128.9639826529678,100.73143972363862,84.8266367207101,91.11009129261447,78.54318214880561,34.559000145474556,43.98418200333106,15.7086364297611,18.850363715713456,15.7086364297611,12.566909143808857,14.137772786785035,37.700727431426685,53.409363861187785,60.43233096232318
29,231,29,0.9676333333333308,34.27057360888034,162.48494974449937,15.577533458581911,22.029959085447157,40.62123743612494,46.83633546537644,53.055167178867464,124.77594576516677,102.85891464176187,85.67643402220062,93.46520075149158,81.00317398462607,34.27057360888023,37.38608030059663,15.577533458582025,21.808546842014607,15.886029415790716,15.577533458581911,14.019780112723765,37.38608030059663,52.9636137591786,56.85266210179728
30,231,30,1.0009999999999972,22.2023586263331,160.62604736926914,15.6994383430158,21.979213680222074,40.93912648244754,47.20286191690963,56.60512994172891,116.34544360049345,94.40572383381927,83.20702321798376,91.05674238949166,78.497191715079,28.258989017428462,31.398876686031485,9.419663005809412,15.699438343015913,16.010348492696885,12.946088510225309,14.129494508714288,34.538764354634736,53.37809036625367,57.29757317977424
31,231,31,1.0343666666666638,15.689290811054661,154.26650267039116,15.689290811054775,22.188007849009225,40.912664956540546,44.376015698018385,53.43579900576595,106.87159801153192,84.78025895037305,76.87752497416818,87.86002854190644,75.30859589306272,28.240723459898504,25.102865297687572,6.275716324421865,15.689290811054661,15.999999999999938,12.937720641002132,14.120361729949195,31.378581622109436,53.343588757586076,54.167830362253284
32,231,32,1.0677333333333303,10.160993529554446,151.56578824210763,19.27912970617524,22.4923179905378,41.89484958357006,41.894849583570505,54.71862476087785,106.22977357212895,83.7896991671409,78.72311296688224,93.18246024651353,80.3297071090634,32.13188284362536,19.27912970617524,0.0,16.06594142181268,16.3841097628123,16.384109762812255,16.06594142181268,32.13188284362536,51.4110125498006,52.30691562262726
33,231,33,1.1010999999999969,12.852753137450122,145.16358234251007,16.384109762812344,22.720672251019195,39.090122597827595,41.894849583570505,51.4110125498006,103.02265363203415,80.39394518978825,73.90333054033829,89.96927196215108,77.11651882470096,32.13188284362536,19.27912970617524,3.213188284362559,19.27912970617524,16.3841097628123,16.384109762812344,14.459347279631402,28.918694559262804,51.4110125498006,55.46822989178478
34,231,34,1.1344666666666634,9.652029544210563,141.89176491525757,19.304059088421127,25.939049993206044,38.741942211303,38.741942211303,51.57793488265499,106.36713675561468,80.49790068054108,75.60756476298275,90.08560907929859,80.43357953508803,33.78210340473697,20.912730679122888,1.6086715907017606,17.695387497719366,16.405295663901246,16.405295663901246,14.478044316315845,32.1734318140351,51.47749090245628,52.37455244615283
35,231,35,1.16783333333333,16.22587876541661,149.41911262287647,19.739633475087583,22.7162302715833,42.31191514961217,42.31191514961263,51.922812049333174,110.38368846137871,87.67982058565094,79.50680595054143,90.86492108633308,84.37456958016651,35.69693328391668,22.716230271583186,1.1368683772161603e-13,19.471054518499955,13.38020240365583,16.22587876541661,16.22587876541661,29.206581777749875,45.432460543166485,49.108420235877865
36,231,36,1.2011999999999965,32.48170247560631,146.31195304223544,16.562483475783228,25.98536198048521,42.226213218288194,45.59024195544708,55.218894208530855,129.96740568841935,103.99218819731884,87.70059668413717,97.44510742681916,90.94876693169783,38.97804297072764,35.72987272316709,9.744510742681882,22.73719173292443,12.992680990242661,16.240851237803213,14.61676611402288,32.481702475606426,45.47438346584897,45.936064169970216
37,231,37,1.234566666666663,39.00377105469795,143.01382720055904,16.251571272790784,26.002514036465186,42.25408530925597,45.620334527671424,52.005028072930486,133.2628844368844,107.26037040041922,87.75848487307019,94.25911338218657,94.25911338218657,42.254085309256084,39.003771054697836,13.00125701823265,26.0025140364653,13.00125701823265,13.40138898799397,13.001257018232536,29.252828291023434,39.00377105469795,42.37891301195991
