,video_id,frame_seq,gap,time_seconds,m1,m3,m4,m5,m6,m7,m8,m9,m10,m11,m12,m13,m14,m15,m16,m17,e1,e2,e3,b1,b2,b3
0,85,82,1,2.7333333333333267,4.99648807854582,144.41492897777408,18.015093964441835,31.60056526016678,40.468469066790455,42.690012856530615,33.81408145806348,88.17067379391291,56.57295553409226,53.627937563500495,62.56592715741738,42.45545057110462,18.99322788707309,34.63470967642752,3.351746097718774,5.586243496197994,20.110476586312757,18.426137588195125,17.875979187833536,24.579471383271084,35.751958375667016,53.62793756350061
1,85,83,0,2.76666666666666,11.546820340077351,143.81025143235772,13.774523890617598,29.52569949293498,43.26355140637788,45.51624402607654,38.76230056384376,93.5330826503571,64.05023508418438,57.74520334488966,67.93553334692899,49.81939112108125,20.380660004078777,33.96776667346444,4.529035556461849,11.322588891154851,22.75812201303822,23.093640680154962,22.645177782309588,33.967766673464496,52.08390889931218,56.65821670967497
2,85,84,0,2.799999999999993,18.25831012432127,151.73358784775965,16.138218627393158,30.01882188912096,41.33400753682058,45.87343645032026,36.80080056766174,101.06700341980311,71.08147964857997,61.62179666958423,73.03324049728496,54.77493037296381,27.38746518648179,36.51662024864254,6.846866296620533,15.976021358781054,22.822887655401587,21.041662738277516,20.54059888986137,52.49264160742359,61.62179666958423,61.664046792250545
3,85,85,0,2.8333333333333264,29.531633893492653,151.0272303879612,18.314741859825226,32.12618243939572,43.22135806073303,47.920807650098794,29.879076832825298,109.62986208244592,77.53665945282512,62.47076400546541,79.50824509786503,61.33493193263871,40.8899546217591,38.618290476105926,9.08665658261316,24.988305602186074,20.57079374338839,20.57079374338839,20.44497731087955,59.06326778698542,70.42158851525181,75.10246722829295
4,85,86,0,2.86666666666666,35.91201113945863,149.50800927131644,18.095743129130373,31.742033253447534,42.88112559145247,45.39221740016422,29.521797437308393,115.01834263967122,83.31905839112608,65.09052019026888,83.04652575999819,62.84601949405271,43.767763576215316,41.52326287999904,10.100253132972739,28.056258702702166,18.09574312913026,20.693273953189763,20.200506265945478,53.868016709188055,87.53552715243057,76.213937253878
5,85,87,0,2.899999999999993,38.65078016637459,153.43250150378063,18.298519111506742,32.097725856379995,41.10514527949218,45.90087025900975,29.852610680741055,118.80495305572535,86.72327967509437,66.95473286045342,88.51642649348082,68.08955884113914,48.79751716948306,39.718909323997764,10.213433826170785,32.90995343988391,18.2985191115068,18.716029540248357,19.29204167165608,52.201995111539986,90.78607845485209,74.34626007834443
6,85,88,0,2.933333333333326,40.916732620908256,151.1833554141528,18.298519111506742,31.856083329154682,40.91673262090815,47.87836057616944,29.592641051089448,120.63365646768064,88.77792315326825,68.08955884113914,90.78607845485215,70.35921080251035,51.06716913085427,39.718909323997764,10.213433826170899,35.17960540125523,16.52331568920419,18.716029540248357,18.157215690970474,49.93234315016866,86.2467745321095,74.86411816099339
7,85,89,0,2.9666666666666592,45.393039227426016,150.8934541782518,16.04886292819001,29.85261068074102,43.183073643777306,45.900870259009764,29.852610680740945,120.82566347011797,91.04105624081018,68.08955884113902,90.78607845485203,72.62886276388167,52.201995111539986,38.58408334331216,9.07860784548518,36.314431381940835,16.523315689204132,18.716029540248357,18.15721569097036,47.66269118879734,83.97712257073817,74.86411816099339
8,85,90,0,2.9999999999999925,45.35144477389167,153.29190855906756,18.281751851242095,31.826893030369426,38.81458450512669,43.32190679159798,29.825256199768297,125.04586682997855,93.21900943214446,70.29473939953209,95.23803402517251,74.82988387692126,55.5555198480173,39.68251417715521,10.204075074125626,39.68251417715521,16.034157068113007,18.281751851242095,18.14057790955667,47.619017012586255,86.16774507039418,74.27813527082075
9,85,91,0,3.0333333333333257,45.39303922742613,153.1468578759285,18.298519111506714,32.09772585637988,40.91673262090815,43.36163983754725,29.592641051089466,125.16055368336235,93.16637936187004,70.35921080251035,95.32538237759468,77.16816668662432,56.74129903428252,38.58408334331216,9.07860784548518,38.58408334331216,16.048862928189955,16.523315689204132,17.022389710284756,47.66269118879734,83.97712257073817,72.13066772194851
10,85,92,0,3.066666666666659,48.09431808669535,154.5337351490971,18.464228030647334,30.12295189356175,41.47738792677282,46.31654234437821,29.860628014034745,126.29399076335318,96.29763183008507,72.14147713004286,96.18863617339059,77.86699118798288,57.25514057939915,38.93349559399144,9.160822492703915,41.22370121716733,18.885519377476005,18.46422803064739,18.321644985407772,50.384523709871246,87.02781368068668,73.32235567231507
11,85,93,0,3.099999999999992,45.90580325484825,156.68612988809343,18.50522089916351,32.215932633448205,41.56947285482135,43.85145698698569,32.215932633448105,128.72055992951425,96.51142447570614,73.44928520775716,94.10689667243889,80.33515569598444,55.08696390581804,41.31522292936336,9.18116065096956,39.01993276662108,16.230152388659334,18.505220899163426,19.509966383310484,48.20109341759064,82.63044585872683,75.18608240331702
12,85,94,0,3.1333333333333253,40.971967423701244,157.47102732074853,18.351475656931616,34.21909608252992,41.03514705633195,45.581278237311544,31.94827593302618,125.37822058197327,91.16255647462344,70.56283278526314,88.77259608468592,77.39149402254668,51.21495927962644,42.110077629915054,10.242991855925197,35.28141639263163,18.351475656931672,18.351475656931672,18.20976329942272,54.62928989826821,84.22015525983016,71.47477075744877
13,85,95,0,3.1666666666666585,36.34252403548362,154.52251881972214,16.061278244328427,34.14674593522284,40.88533953991896,47.69956279657208,34.07111628326584,120.47029387544552,86.34337635584008,68.14223256653167,81.77067907983803,77.22786357540258,45.42815504435441,40.88533953991907,6.814223256653236,29.528300778830385,16.061278244328484,18.17126201774181,17.035558141632976,59.05660155766083,81.77067907983803,71.32365016149335
14,85,96,0,3.199999999999992,35.94087954778854,152.76525413351808,11.231524858683883,29.20196463257821,38.25319525940707,42.67979446299887,33.694574576051764,110.0689436151024,80.86697898252419,62.896539208629974,71.88175909557708,74.12806406731386,39.31033700539365,37.064032033656986,7.862067401078775,25.83250717497299,15.883774781281291,17.97043977389427,17.97043977389427,62.89653920862992,78.62067401078741,72.19695467891282
15,85,97,0,3.233333333333325,22.15531028805492,148.8533503706054,13.293186172832975,24.370841316860492,35.51766432463134,37.92378248148242,31.09645984193684,90.86378683505934,66.50284612991797,55.38827572013747,59.81933777774839,70.8969929217759,34.34073094648522,25.478606831263164,1.1077655144027858,18.83201374484679,13.476549126731204,15.666170143975771,15.50871720163849,66.46593086416493,75.32805497938693,68.82425094916726
16,85,98,0,3.266666666666658,11.117117349456862,149.56551730679286,15.721978130095113,24.558514919037297,35.64418978040009,40.267911690080275,33.42538399750719,84.75298301034513,60.1969064163429,54.47387501233845,57.80901021717557,71.1495510365238,31.127928578479214,20.010811229022238,8.89369387956549,15.563964289239607,13.524556971640818,15.56396428923955,15.56396428923955,71.1495510365238,75.59639797630655,71.14955103652369
17,85,99,0,3.2999999999999914,13.142253313400602,147.553946343267,13.142253313400488,24.193488737639136,37.30075156546237,37.49319008203769,35.3187445353553,85.67700941050339,61.48677180613439,54.759388805835556,52.56901325360218,67.90164211923616,25.189318850684344,25.189318850684458,3.285563328350122,12.047065537283856,15.946174719052811,17.523004417867412,17.523004417867412,72.28239322370302,72.28239322370302,72.28239322370314
18,85,100,0,3.3333333333333246,19.713379970100846,147.553946343267,10.951877761167111,26.375614375293186,35.31874453535543,39.66938844526822,35.046008835734824,92.02184539871837,65.71126656700278,55.854576581952415,52.56901325360229,67.90164211923627,25.189318850684458,31.76044550738459,1.0951877761166315,12.047065537283856,15.48829406329485,19.71337997010079,18.6181921939841,72.28239322370308,72.28239322370308,67.90164211923616
19,85,101,0,3.366666666666658,17.64083064771455,143.75518198544194,13.230622985785885,28.666349802536274,33.14997943597228,37.74529760463846,35.35050362683284,94.84510200778449,66.18985645629932,57.33269960507232,52.92249194314377,63.94801109796538,23.153590225125413,36.3842132109113,5.512759577410748,9.922967239339528,17.778115446994878,19.84593447867894,19.84593447867894,68.35821875989404,74.97353025278704,70.59776893051851
20,85,102,0,3.399999999999991,10.915768711065198,139.994467740389,15.2820761954913,28.38099864876949,32.81999724624243,35.20229634776829,39.357363798851125,93.90099299238956,65.53098806051281,60.036727910858644,54.5788435553261,63.31145852417819,19.648383679917288,34.9304598754087,2.1831537422131078,6.549461226639096,19.769297951505095,19.76929795150507,20.739960551023955,67.6777660086043,74.22722723524345,70.16725412034732
21,85,103,0,3.433333333333324,4.3902398216855545,136.38038162689267,15.521841744745487,30.73167875179911,30.809976149402644,33.21819194149601,41.765004670396124,92.19503625539733,61.46335750359822,59.26823759275544,54.87799777106977,63.658477414440995,17.560959286742218,32.926798662642,1.1368683772161603e-13,2.1951199108426636,15.980714171083182,19.75607919758511,19.75607919758511,68.04871723612655,76.82919687949772,70.55185057769042
22,85,104,0,3.466666666666657,4.366307484426102,128.88005475461964,17.465229937704407,32.74730613319559,28.38099864876949,33.037110951622154,43.7176196186121,98.26617266940454,65.53098806051281,63.311458524178306,63.31145852417819,67.6777660086043,21.831537422130395,32.74730613319571,2.183153742212994,6.549461226639096,19.769297951505095,21.831537422130452,20.739960551023955,67.6777660086043,76.4103809774565,70.16725412034732
23,85,105,0,3.4999999999999907,8.787893130504699,129.69587596349365,17.57578626100951,32.95459923939279,28.560652674140556,35.220161021428275,46.13643893515007,105.45471756605707,72.50011832666428,68.10617176141193,65.9091984787857,70.30314504403805,21.96973282626186,37.34854580464514,2.196973282626118,6.590919847878581,17.712564870657896,19.894439212378156,19.772759543635686,68.10617176141182,76.89406489191657,68.24776478693828
24,85,106,0,3.533333333333324,15.611427845019326,128.22295890222648,19.870103687791698,37.597296981158294,33.19035086750827,37.59729698115841,37.53241807693996,110.38946493217634,72.89049053239602,65.12978430998407,61.818100362018754,68.44146825794928,27.597366233044113,45.25968062219226,5.519473246608754,7.727262545252415,17.79976637959939,19.99238240307544,19.870103687791755,70.64925755659283,79.48041475116696,70.95904872236262
25,85,107,0,3.566666666666657,26.306289741055163,137.78691846227233,13.107710728304596,32.76927682076166,37.20271172751645,41.737076973987946,32.84201670343038,104.86168582643722,72.09240900567556,58.98469827737085,58.98469827737097,65.53855364152332,29.49234913868554,42.60005986699002,5.461546136793572,16.384638410380944,19.78256148734904,19.782561487349014,19.66156609245695,67.72317209624066,76.46164591511041,70.2143304450799
26,85,108,0,3.5999999999999903,21.975036802637874,136.4046311627648,15.38252576184641,35.160058884220575,37.422139211757234,39.61606098605948,30.843433947604805,103.30604802598958,68.15804848021625,57.13509568685845,57.13509568685845,63.7276067276498,29.66629968356108,42.85132176514378,5.493759200659497,14.283773921714669,17.716841073121277,19.899242167262933,19.777533122374052,68.12261408817739,76.91262880923256,73.04840709676056
27,85,109,0,3.633333333333324,15.463714185612844,134.8276337374953,17.672816212128964,33.210085494681046,35.34563242425793,39.825153146676406,35.345632424257815,101.64270236200669,68.48216282199962,60.7503057291932,59.64575471593514,64.06395876896738,26.509224318193446,39.76383647729017,2.2091020265161205,8.836408106064482,20.004269659543272,20.004269659543272,19.881918238645028,68.48216282199962,81.73677498109629,73.20098822001161
28,85,110,0,3.6666666666666567,9.162315553149446,135.62630274802473,17.77750343570574,33.406809752063516,35.62438256054369,38.037730266127085,37.84249682852722,97.80151777192116,64.44344995443339,59.99907409550701,57.77688616604371,62.2212620249702,22.22187929463223,37.77719480087478,2.222187929463189,4.444375858926492,17.915851852490388,20.122767550609602,19.999691365168985,66.66563788389664,77.77657753121275,69.20964974652354
29,85,111,0,3.69999999999999,6.628923778011313,134.86054461459156,15.467488815359843,33.21819194149595,33.21819194149607,40.01830524083314,41.98318392740521,97.24932172898188,64.07959652077636,60.76513463177071,57.45067274276505,61.86995526143926,17.677130074696947,37.563901408730885,2.209641259337104,2.209641259337104,17.677130074696947,20.00915262041657,19.88677133403405,68.49887903945057,79.54708533613615,73.21885628355231
30,85,112,0,3.733333333333323,4.395007360527643,138.51247631034045,17.58002944211023,35.22866394240109,35.16005888422046,39.61606098605948,41.81035897678688,98.88766561187037,63.765483466047435,61.53010304738598,57.13509568685845,61.53010304738598,17.580029442110344,39.555066244748105,2.197503680263708,2.1975036802638215,17.716841073121277,17.716841073121277,18.67878128224214,65.92511040791356,76.9126288092325,72.81666445533362
31,85,113,0,3.766666666666656,17.679288190939246,145.87086836469524,13.442363971273535,33.222247391632074,41.9883094534805,44.25343376617977,35.42756879164228,99.47054761028512,66.44449478326437,57.45768662055241,53.037864572817625,55.247775596685074,18.784243702872914,45.30317598928161,9.944599607403234,5.524777559668564,17.816872275225307,20.011595442134926,19.889199214806638,66.29733071602197,77.34688583535899,68.82728769469522
32,85,114,0,3.7999999999999896,28.655402203977165,158.23936966888982,13.186614139074095,32.96653534768541,43.95538046358047,48.400842032282476,31.08114759543249,105.69875313878755,72.82545688020997,58.24087911424408,48.35091850993854,48.35091850993854,17.582152185432165,57.14199460265468,21.977690231790234,6.593307069537104,19.901644949554164,19.901644949554104,19.7799212086112,63.735301672191724,76.92191581126588,70.63699388889903
33,85,115,0,3.833333333333323,26.757447420672804,166.65637955332386,13.332510364265886,33.33127591066466,46.716663103537826,53.37631482061263,29.646312401919637,102.60163458892094,69.45571100091863,55.55212651777458,44.44170121421962,44.44170121421962,15.554595424976924,57.774211578485506,22.22085060710981,4.444170121421962,20.121836034439447,20.121836034439447,19.998765546398886,64.4404667606185,75.55089206417341,71.66008999238247
34,85,116,0,3.866666666666656,24.30939226519331,165.74585635359108,13.442569127730879,30.939226519337012,48.66898463103909,50.82872928176789,29.067284945781044,97.46332407160195,66.62900964279042,54.1436464088398,41.988950276243145,41.988950276243145,13.259668508287291,55.24861878453032,22.09944751381215,2.209944751381272,20.01190085776225,20.01190085776225,19.889502762430936,61.878453038674024,75.13812154696132,69.0762413617139
35,85,117,0,3.899999999999989,22.08630521496929,167.0373403587852,13.18601704993398,28.569703608190366,48.39865044490079,50.546398691413515,28.905829331314425,92.53728436596039,64.07252591897908,52.74406819973592,41.75572065812423,39.55805114980194,12.087182295772777,51.64523344557483,18.68019082073988,1.0988347541610892,19.77902557490097,19.9007438041998,20.877860329062173,59.33707672470291,72.52309377463683,68.69255409904387
36,85,118,0,3.9333333333333225,28.72533637138247,163.5283825179066,15.46748881535973,28.72533637138247,48.66230091208163,50.821748964753624,29.48029138430892,101.85942912563583,73.21885628355219,58.5554933724336,46.402466446079416,44.19282518674231,16.57230944502828,56.345852113096385,23.201233223039708,5.5241031483427605,17.81469736405079,17.81469736405079,17.67713007469689,57.45067274276494,70.70852029878762,64.6862807880075
37,85,119,0,3.966666666666656,48.657104367320635,156.88333446469315,17.67524237115731,31.010481090369137,48.657104367320635,53.0257271134717,29.477143245998985,126.41969211509014,95.41459447783174,70.70096948462913,59.653943002655865,57.444537706261144,29.82697150132799,67.38686154003699,32.03637679772248,16.570539722960007,19.884647667551917,20.00701588509427,19.884647667551917,53.02572711347182,68.4915641882344,58.120379046474284
38,85,120,0,3.999999999999989,62.24652450087719,151.22076459474715,15.5517160996028,33.3251059277203,46.708015339337614,53.32016948435262,29.640824545938028,140.24727844614262,107.00997730051103,75.53690676949952,68.87188558395542,62.20686439841131,36.6576165204923,74.42606990524212,36.65761652049241,23.3275741494042,17.7733898281175,17.7733898281175,17.7733898281175,51.09849575583786,66.65021185544066,60.63989154178468
39,85,121,0,4.033333333333323,66.29874795840348,152.4664835305676,17.80736291479816,30.922241460189753,48.642266264887496,55.21828832176743,26.87037881526796,141.63464045010548,110.78941005570931,77.30560365047438,68.47067751899158,64.05321445325023,39.75716759167267,75.09687211760365,39.757167591672555,26.504778394448408,17.669852262965605,17.807362914798126,17.669852262965605,46.38336219028463,61.844482920379505,55.61443895288807
40,85,122,0,4.066666666666656,61.902789392186264,156.93000047171347,17.812794969989724,30.93167414952518,48.657104367320635,55.27930285467813,26.878575502303654,137.26791689256424,106.41905135768364,75.11978007741834,66.2821588918398,61.86334829905047,37.55989003870923,72.91037478102373,37.55989003870923,24.303458260341245,19.884647667551917,17.812794969989667,17.675242371157253,46.397511224287825,61.863348299050415,58.120379046474284
41,85,123,0,4.099999999999989,50.5372464327711,160.53621674232406,15.537056371786166,30.84017632177606,48.389887071480096,52.78027465709801,28.900595454457516,125.55249054365245,94.71234600206165,69.21405489705614,63.720875936972334,57.129061184871716,31.860437968486167,64.81951172898903,31.860437968486167,18.676808464285045,19.77544425630174,19.897140446508843,18.67680846428493,43.94543168067054,59.32633276890522,55.63047319028272
42,85,124,0,4.133333333333322,37.20271172751634,166.16030461793025,17.4769476377395,28.483939768888103,48.2597990343278,52.47633606096465,28.734169522290372,111.75770104773545,83.2738042410787,64.44624441416454,58.98469827737085,52.43084291321861,27.307730683967975,55.70777059529473,25.123112229250523,14.200019955663379,19.66156609245695,19.78256148734904,18.569256865098225,43.692369094348805,58.98469827737091,55.31012154312808
43,85,125,0,4.166666666666655,28.472052355362436,168.37214410637122,15.2859471220346,26.295311142342534,48.09115218754494,52.45443572301533,29.1342816291692,98.87152742230472,72.58977527601422,57.86822839055958,56.77637502469997,48.041548097823124,24.020774048911562,45.8578413661038,17.46965385375381,10.918533658596175,17.46965385375381,17.605606517815033,17.46965385375381,39.306721170946105,56.77637502469992,55.28703856049735
44,85,126,0,4.199999999999989,22.06579624640142,170.26446526456425,17.79001367599281,26.844199721761225,50.942846505220686,53.00386146507673,31.205748316222348,97.71436193210761,70.92016941599199,59.577649865284116,59.577649865284,48.54475174208335,23.16908605872152,43.028302680482966,16.54934718480115,9.929608310880667,17.790013675992753,17.790013675992753,16.54934718480115,37.511853618882526,57.37107024064386,54.094964438163004
45,85,127,0,4.233333333333322,22.180842887767653,175.7333183957063,17.882767243569777,26.984160001628837,51.208452301930116,53.418543494077326,31.368448836747806,98.22382504089332,71.28993297246276,59.88827579697272,64.32444437452614,51.015938641865546,26.61701146532107,39.925517197981776,13.308505732660706,13.308505732660478,17.88276724356975,17.88276724356975,17.744674310214123,35.48934862042819,57.67019150819584,52.207503706972616
46,85,128,0,4.266666666666655,22.26581127422932,173.32194254147888,17.72424823044389,26.953098253462258,46.73667825297357,51.00535464035107,31.332340287951514,98.1107585708901,71.20787038668368,59.81933777774839,66.46593086416487,53.1727446913319,28.801903374471408,37.66402748969347,11.077655144027517,13.293186172832975,15.666170143975771,15.666170143975771,16.61648271604122,35.44849646088801,59.819337777748444,52.14740710465246
47,85,129,0,4.299999999999988,24.529731257091733,174.13248760386725,15.545722637083031,24.829494697053494,51.51147818637102,51.51147818637102,33.38620797417849,98.11892502836693,73.42144977886127,61.07248178854036,71.06616062666512,53.2996204699989,28.870627754582756,35.53308031333256,11.104087597916418,17.766540156666338,15.70355127875233,13.508705594751056,14.435313877291378,33.312262793749255,59.962073028748705,50.64243118916972
48,85,130,0,4.3333333333333215,22.206619823634938,173.49553844828029,17.677130074696947,24.704540308830147,48.81257085570146,51.0135298309801,33.21819194149595,97.62514171140292,73.05195646248391,61.869955261439145,72.91816155812478,53.03139022409073,29.830157001051134,34.24943951972523,9.943385667016969,16.572309445028395,13.974998382776224,15.624523184668547,15.467488815359786,30.93497763071963,61.8699552614392,55.24103148342784
49,85,131,0,4.366666666666655,22.249094557031935,172.19849133079776,17.848771641320248,24.751792829549178,49.15583915674897,51.35027723960079,30.994147145843726,95.60730424131643,70.98199677262808,59.77442663841282,73.05763255806005,48.70508837204011,29.887213319206353,34.314948625755505,12.17627209300997,16.604007399559123,14.001728445038978,15.654408302799835,14.390139746284603,30.99414714584367,64.20216194496186,52.62303338094144
50,85,132,0,4.399999999999988,26.76126172830405,167.44221994771559,15.554667428603427,26.76126172830405,46.664002285810234,49.18817732082119,28.681389575282985,97.18866899446856,70.52974036833838,57.19381625290839,72.59215139792218,43.995243271467984,29.696789208240943,38.49583786253447,14.298454063227041,18.69797839037392,16.0145102810958,16.0145102810958,15.398335145013789,28.596908126454196,65.99286490720203,54.99405408933502
51,85,133,0,4.433333333333321,31.1165131430638,165.67973852346395,13.485239804035487,27.42227786562751,47.393186733948525,50.01689215177433,28.9056188951345,100.15654025144418,73.19325491443166,57.64095395118636,73.1596723226595,37.688316045006445,26.60351720823985,44.33919534706638,22.16959767353319,17.73567813882653,20.43935913514359,21.03192703738048,19.95263790617986,28.820476975593124,68.7257527879529,53.29932769385169
52,85,134,0,4.466666666666654,37.753464435973996,162.38379051798702,11.304321114584685,25.277230451697545,46.29147897818337,49.074496420554375,28.9056188951345,102.3649814177432,77.62525625038273,58.749433834862884,73.1596723226595,33.254396510299784,24.386557440886577,48.773114881772926,28.820476975593124,19.952637906179916,20.439359135143533,21.03192703738048,18.844158022503166,26.603517208239793,73.1596723226595,58.19255459535696
53,85,135,0,4.499999999999988,35.695511745184724,162.1007356178658,11.3536035396979,27.54182828724449,44.36518575962882,47.18133459493958,27.088060365736602,100.42053370446374,73.47861992119249,55.66562115241857,71.25199507509569,26.719498153160885,22.266248460967404,51.21237146022497,31.172747845354365,20.039623614870607,18.361218858163028,19.915538065049276,17.812998768773923,22.266248460967404,73.47861992119238,57.072873073402846
54,85,136,0,4.533333333333321,28.779475701980328,160.1004556752727,9.10086930837311,25.166921429260153,43.366270002551865,46.77153115597976,28.77947570198031,90.92835583716278,66.25532865293661,51.87119811288596,66.21855078240753,24.280135286882796,16.55463769560197,45.24934303464511,25.383777799922882,14.347352669521683,17.795700804218907,20.940144382793235,18.76192272168214,24.28013528688274,72.84040586064827,54.515918626383204
55,85,137,0,4.566666666666654,15.523711902497366,152.87506832984207,9.051801733289906,27.15540519986983,38.34074008823496,41.654490092527894,30.81368830654734,81.70252128985457,54.9284999159941,47.20076440840148,61.47076295047634,28.539997084149718,14.269998542074859,36.22384245295916,14.269998542074745,12.074614150986463,17.699754817546467,20.827245046264,18.660767324251765,26.344612693061265,70.25230051483004,51.392630972736185
56,85,138,0,4.599999999999987,4.375833367937275,151.89878467277026,15.470907239054323,28.777550954972064,38.769982417075965,39.44322895246115,30.70887404236341,74.90220207402807,46.154153010480925,45.9462503633423,59.07375046715447,28.44291689159286,13.127500103812054,30.630833575561496,6.563750051906027,6.563750051906027,17.639548237958227,20.75640015607154,19.691250155718137,28.4429168915928,70.01333388699777,51.21781643102035
57,85,139,0,4.63333333333332,11.176981923798788,152.18133643505425,9.037791858727552,26.666666666666618,38.28139842620005,43.67502155131133,32.87979746107146,79.39712780638793,52.790025447870256,47.12770969420251,59.183635429928586,28.49582446626198,10.95993248702382,35.0717839584762,10.95993248702382,8.76794598961908,20.20911696260895,20.795009796401526,19.7278784766429,30.687810963666664,70.1435679169524,54.79966243511924
58,85,140,0,4.666666666666654,19.81242822349294,151.89878467277023,9.021011588053964,26.617155249318007,38.210322190168505,41.512800312142936,30.630833575561496,85.77637997942279,59.235596662138654,49.228125389295315,61.26166715112299,30.630833575561496,15.315416787780805,39.38250031143616,15.315416787780691,13.127500103812167,17.6395482379582,18.042023176107985,17.503333471749443,30.630833575561553,70.01333388699783,55.35040041619081
59,85,141,0,4.699999999999987,17.451551100705718,149.85839241342654,11.037330036209756,28.22291161163837,39.50021611006936,42.527613007357324,30.304379125244736,86.82711620360732,58.60428102719766,49.78576570575922,60.60875825048947,32.468977634190765,16.234488817095325,40.04507241550198,14.06989030814941,11.905291799203269,17.849736578878158,17.8497365788781,17.316788071568453,28.13978061629865,67.10255377732761,54.760492064591176
60,85,142,0,4.73333333333332,4.8750770782440815,155.22355657173853,17.577340377447868,26.52328684301901,41.93699872895849,42.83414837781779,30.522810479012946,78.97022982452536,52.50618702765535,50.14461721552129,61.04562095802589,32.70301122751391,16.3515056137569,31.61291085326343,7.630702619753265,5.4505018712523,17.97839594224,20.100457726627546,19.621806736508347,30.522810479012946,67.58622320352873,54.50501871252318
61,85,143,0,4.766666666666653,2.1802007485009653,152.69189685429413,17.577340377447868,28.676063669045888,42.33184131973253,42.83414837781776,30.522810479012946,76.80374113265006,48.16220871426919,47.96441646702033,58.86542020952493,32.70301122751391,15.26140523950653,30.522810479012946,4.360401497001817,4.360401497001931,19.74255745613132,20.68320036500055,19.621806736508347,32.70301122751391,69.7664239520297,57.2276741122108
62,85,144,0,4.7999999999999865,3.1026868782467125,158.35865804204695,15.513434391233691,28.856656030705455,40.45408751851358,43.10390367284368,30.715033041095012,77.28742568418109,48.465518370532884,47.16951502739596,59.23613515068337,30.715033041095012,14.260551054794178,31.811998506848454,5.484827328766983,5.484827328766983,17.6880366517725,20.813456317968985,19.745378383561103,30.71503304109507,68.0118588767105,56.95775975508326
63,85,145,0,4.83333333333332,17.561435284512427,152.9420083969966,8.981063974390393,26.229338048938672,39.748930335091345,42.79538932234459,30.49519150328092,83.03021002051746,56.80123594151548,47.921015219441415,58.81215504204181,30.49519150328092,14.1584817693805,38.118989379101095,14.158481769380387,11.980253804860467,19.724693137390297,20.082269557011376,19.60405168068064,30.49519150328092,69.70329486464215,54.45569911300155
64,85,146,0,4.866666666666653,26.422329698506246,161.09738211169352,13.39339642110495,28.960957274227237,42.35363829623937,45.39252342576495,28.62419050671508,97.10680476373592,68.29318970449799,55.04652020522133,57.24838101343016,28.62419050671508,14.312095253357597,53.94558980111674,27.523260102610607,7.706512828731093,20.300153610052313,20.888685733797473,18.715816869775267,30.826051314923916,68.2576850544744,55.04652020522134
65,85,147,0,4.899999999999986,37.059284368966445,160.05031027878223,11.096466431417571,28.623390876236382,40.127073571926466,45.44030882839601,28.290549432862917,104.81948513286697,76.29111657302676,57.66919692083593,60.93349108616633,28.290549432862917,16.321470826651648,59.84539303105623,35.907235818633694,11.969078606211156,19.706293914160643,20.64520903048421,19.585764991982046,32.64294165330335,67.46207941682695,53.83611854697774
66,85,148,0,4.933333333333319,34.98194794948302,162.62239968184275,11.126641660162015,28.70122803029508,42.871737009089436,44.985431709910415,26.276131624522243,100.59048330053436,72.04281540826466,54.552848986462095,54.55284898646198,21.821139594584793,12.00162677702167,62.19024784456667,38.18699429052333,9.819512817563236,20.118096660106932,20.701350677811387,18.547968655397085,30.549595432418755,67.64553274321293,52.46157765386719
67,85,149,0,4.966666666666653,30.600575727288316,164.61598496731276,11.116886160155751,26.52328684301916,40.20091545325507,45.52392813061163,26.253093513827658,93.97651576002117,67.62137858858662,52.32481796402226,52.32481796402226,19.621806736508347,9.81090336825423,57.775319835274445,33.79311160176428,5.450501871252413,19.742557456131376,20.68320036500055,19.621806736508347,30.522810479013003,67.58622320352873,54.50501871252318
68,85,150,0,4.999999999999986,26.298446482162504,167.04136347426922,9.004727067175898,26.569106578041737,45.02363533587932,50.42079600863699,28.475447240443852,89.78203513045213,63.37268953660322,50.23124347293901,50.23124347293901,17.47173686015276,5.459917768797709,55.69116124173672,33.85149016654589,3.275950661278671,19.77666328760931,20.13518184103762,19.655703967671798,30.575539505267216,67.70298033309172,57.3265365525752
69,85,151,0,5.033333333333319,26.253093513827675,166.75329240233725,11.116886160155795,26.523286843019125,42.33184131973275,47.61630308933506,28.676063669045924,91.67219173257918,65.40602245502782,52.32481796402226,50.14461721552141,17.441605988007495,5.4505018712523,57.77531983527456,35.973312350265246,1.0901003742504827,19.742557456131376,20.100457726627546,18.53170636225792,30.522810479013003,67.58622320352873,54.50501871252318
70,85,152,0,5.066666666666652,23.993235647739258,166.1448320770327,11.076322138468784,26.426506938357832,42.677852334239596,47.44255760671141,30.488918344136938,91.4667550324107,65.20355872064069,53.22001448887943,52.13389174420843,19.550209404078146,5.430613723355009,55.39225997822143,31.49755959545928,3.2583682340130053,19.670519520573734,20.60773015004335,18.464086659407144,30.41143685078822,67.33961016960251,58.48949980830659
71,85,153,0,5.099999999999985,26.562251226039603,168.29828036342576,11.247799154861989,24.66243112081615,44.99119661944769,50.30168701507178,26.470498788744635,88.67507348530492,64.12232091412213,50.735122678427274,48.529247779365164,17.646999192496423,6.617624697186216,55.146872476551266,33.08812348593074,2.2058748990621098,19.975046777556894,20.337161699129034,19.852874091558476,30.88224858686874,68.3821218709237,57.267843187868614
72,85,154,0,5.133333333333319,26.371636076487903,163.3510645384727,11.205790579948303,26.735399964786883,42.670379264356576,47.440448505749174,28.569272416195304,92.53588773487148,65.96570729495444,52.74327215297592,52.74327215297592,21.976363397073328,8.790545358829377,54.94090849268309,30.766908755902477,4.395272679414802,17.71791060774788,18.122173510618172,17.58109071765864,30.76690875590259,68.12672653092716,55.596290417845466
73,85,155,0,5.166666666666652,26.298446482162504,159.41463946825075,11.13609089828459,26.569106578041886,44.54436359313841,47.145370337436034,28.475447240443852,91.96031728568555,65.55540257201908,52.415210580458165,52.415210580458165,26.207605290229026,10.919835537595418,52.415210580458165,28.391572397748178,6.551901322557228,17.60770573462496,20.718931183950524,19.655703967671798,28.39157239774812,65.51901322557262,56.14962019431148
74,85,156,0,5.199999999999985,24.189137129820903,155.17993725115386,13.139889457038635,28.804710371537187,42.521750641284825,45.147626783592,28.469760490250565,94.3981136823748,65.7359368449549,53.654548616241414,54.74953940432795,30.659742066423632,14.234880245125282,51.46456704006823,25.18478812599085,7.664935516605965,17.656195931132782,20.77598944353779,18.61484339747153,30.65974206642369,67.8894288613667,56.855228527207174
75,85,157,0,5.233333333333318,30.948226137935773,153.73241833317005,13.412307769214436,26.824615538428986,42.41344122988983,44.97273644788093,28.66460759092638,99.61486502821414,72.89751593066397,57.329215181852646,61.739154811225944,39.68945666435957,22.049698146866376,48.50933592310605,22.049698146866376,13.229818888119894,18.182646894503225,18.18264689450317,17.639758517493078,30.869577405612915,70.55903406997248,57.24434583083117
76,85,158,0,5.266666666666652,26.408497982784333,152.90528982303002,13.340145356998805,31.015207965008553,44.08089283042825,46.522811947512665,30.78171499829131,101.47709669837695,70.48713528869811,57.02076606711819,70.17940439029928,48.24834051833079,28.51038303355915,41.669021356740245,10.965531935984245,17.544851097574792,15.966055497676104,15.96605549767605,15.351744710377943,30.703489420755943,67.98629800310249,59.05119667317208
77,85,159,0,5.299999999999985,30.948226137935755,153.73241833316982,15.591491082765714,29.00184986990503,42.12588916026487,46.77447324829695,28.74928903860871,104.21835955406043,75.26024212348977,59.53418499653924,74.96897369934572,52.91927555247935,35.27951703498627,39.68945666435957,13.229818888119894,22.049698146866376,13.412307769214493,13.945453572658312,14.33230379546319,30.869577405612972,66.14909444059924,59.37062923422181
78,85,160,0,5.333333333333318,28.86530266005552,158.1792558448462,17.848771641320248,26.65849673183441,44.49818911406387,49.15583915674874,28.86530266005552,102.22220742388183,75.56394400731659,60.881360465049966,75.27150021133457,57.56055898513819,37.635750105667285,35.421882452392765,8.855470613098191,22.13867653274542,13.466431208377665,11.922042174067501,12.176272093010027,30.99414714584367,64.20216194496186,59.07335702484963
79,85,161,0,5.366666666666651,27.095276017581103,167.48058174375305,15.910893930855524,27.095276017581234,47.4667594906427,49.70722166673986,33.82702449918975,103.89704089987241,76.8020020202544,63.003925562187646,78.75490695273459,60.7537853635381,36.00224317839297,33.75210297974343,9.000560794598186,22.50140198649558,12.11737580888637,14.231136164872781,12.37577109257262,29.251822582444277,63.0039255621877,57.850925090922345
80,85,162,0,5.399999999999984,27.08063734935979,172.45828336968023,18.194256524895007,25.230894161328493,47.60555589257792,49.852569349867196,31.674571501504598,101.95279531970483,76.86110607629757,63.18815381517288,78.9851922689661,60.93143403605961,38.36423624492636,31.594076907586555,9.026879116453301,22.56719779113314,12.152807934045422,14.272749085500287,13.540318674679838,31.59407690758644,60.93143403605956,58.020085580018545
81,85,163,0,5.433333333333318,26.906911759852537,174.99125092366285,18.015093964441807,22.456420930434017,51.58737836419764,51.58737836419763,33.59186164804089,100.94884531878884,78.49417571885112,64.8004245558966,78.2074089467717,62.56592715741738,36.86920707490674,30.165714879468965,7.820740894677101,21.227725285552424,11.393745837917713,13.591917049518065,12.289735691635542,31.28296357870863,62.56592715741732,54.77937707668805
82,85,164,0,5.466666666666651,26.95110254917507,177.50797031149804,18.044681203182375,22.493302419292217,47.214189731053686,49.44273044886571,33.64703152016492,101.11463949077189,78.62309127828811,64.90685006972444,78.33585353242609,62.66868282594089,36.929759522429435,30.21525779107867,7.833585353242597,21.26258881594424,12.052899473704755,11.412458450736704,12.309919840809755,31.334341412970502,62.66868282594095,55.369199723504174
83,85,165,0,5.499999999999984,24.59616183656368,176.42636690505458,20.164820145169124,22.379383238790183,46.97506958311042,51.41040570415281,33.476623361075816,100.60253608092884,78.22489816462242,65.69153991884684,75.71228329629798,62.35129212636309,35.62930978649331,31.17564606318149,8.907327446623185,20.041486754902508,13.545289409354256,13.545289409354293,13.360991169935005,33.40247792483734,62.35129212636309,54.59145413149744
84,85,166,0,5.533333333333317,26.801734498025866,174.3072221960248,17.944674204952502,22.368640330231067,47.215561245916895,51.38572686106029,31.240071030011837,98.33741917831249,75.96995379298106,62.321361264430834,73.45017577593626,57.86983545982855,34.499324985667045,32.273562083365846,10.015933060354882,21.14474757186042,11.98610005049741,13.538787183444914,13.354577413806567,33.3864435345165,60.095598362129635,54.565248270791685
85,85,167,0,5.56666666666665,24.471340057937034,178.12649019383406,17.862182203583014,24.471340057937056,49.192772087195664,51.14950571810797,33.527068204189774,100.31243375663816,75.84756496296473,63.142634320956745,75.32805497938705,57.60380674894304,33.23296543208244,33.23296543208255,11.077655144027517,19.939779259249462,13.476549126731149,13.476549126731149,13.293186172832975,35.44849646088795,64.25039983535942,49.98465834089871
86,85,168,0,5.599999999999984,26.562251226039717,170.55279233224323,17.784331996740324,26.562251226039624,46.79367298727912,51.16488668831255,31.19578199151939,102.06790776016751,75.51699232891698,61.76449717373748,70.5879967699858,55.14687247655138,31.985186036399796,38.60281073358601,12.132311944841376,18.74993664202748,16.0590116671774,13.417813182539994,13.235249394372318,35.29399838499285,61.76449717373748,54.570331234389236
87,85,169,0,5.633333333333317,44.157169803314446,163.90612573045533,15.592438720953096,31.18487744190616,46.77731616285927,53.3343463409848,31.18487744190616,122.00024661133254,90.83850224629978,68.35821875989404,79.38373791471565,63.94801109796538,40.794420872839964,49.6148361966973,20.948486394161137,29.768901718018355,13.946301166020351,13.413122958406857,12.128071070303804,35.28166129542916,63.94801109796538,50.28410395714958
88,85,170,0,5.66666666666665,68.04314185321046,149.96665794773992,13.344358002910917,31.025002167811568,46.27823937787354,52.83367489193666,31.942194744310644,143.6728959746759,112.6553672231157,77.87986243811338,94.33335450250343,78.9767619090727,55.94187301892646,55.94187301892657,23.03488889014625,44.97287830933294,15.971097372155322,15.512501083905729,14.259693122471447,35.10078307069898,65.81396825756059,50.026312823683604
89,85,171,0,5.699999999999983,65.03785690582713,137.59984278211917,13.179674625901129,32.78850141355123,41.67779063777528,47.86452326785271,33.14452163743056,143.80592603213952,111.032773325909,78.0021058144415,97.50263226805191,80.16883097595382,56.3348541993189,54.16812903780658,23.833976776634927,45.50122839175765,15.32106054672842,15.167076130585883,15.167076130585883,30.33415226117171,60.66830452234342,53.11792026466897
90,85,172,0,5.7333333333333165,37.08124217528872,133.69832002090112,15.397147750098016,28.640350374614478,32.95133513956039,39.43593997839471,37.272548219738134,118.30781993518426,89.70077519717141,70.76827930266552,87.0994206802036,71.85702206116798,42.460967581599334,38.10599654758914,9.798684826522958,29.39605447956876,13.245127313105652,13.064913102030573,13.064913102030573,30.48479723807128,63.147079993147656,49.6543094999699
91,85,173,0,5.76666666666665,8.973616105816303,135.7954527859291,19.708335730008482,28.377065742350066,32.718790822698836,35.0937436721797,41.580476113702055,98.54167865004241,70.1874873443594,65.29264773180785,82.70402046028994,67.46906932286811,33.734534661434054,22.852426706132746,5.441053977650654,16.32316193295196,13.238655704233393,13.238655704233393,14.1467403418917,30.469902274843662,63.116226140747585,51.22688026696958
92,85,174,0,5.799999999999983,11.091871077436057,135.98638116568156,15.381657657896817,26.194019120473452,35.07557611764376,37.235050676825374,41.558950465869096,94.16791015829892,67.99319058284088,61.9959042839962,78.31061593767936,60.908256840417266,28.278833533050943,23.928243758735334,2.1752948871577473,17.402359097262092,13.757772851874988,13.231802231952477,13.05176932294654,28.278833533050886,63.08355172757507,49.60435545362155
93,85,175,0,5.833333333333316,13.231802231952532,142.7431090640939,15.381657657896817,28.61153713756705,32.91818489460923,37.235050676825374,41.558950465869096,98.7545546838279,70.15115223528753,63.08355172757513,80.48591082483722,60.908256840417266,29.366480976629873,27.1911860894719,1.0876474435789305,18.490006540841023,13.757772851874988,13.231802231952514,13.05176932294654,30.454128420208633,65.25884661473282,52.2976360368491
94,85,176,0,5.866666666666649,13.145966716657288,139.67668010433846,15.281875898162466,28.425932335549824,32.70464260358338,36.993504611832506,41.28935499687441,98.11392781075004,69.69607739399859,62.674324845683145,79.96379376863024,60.51314123031477,29.175978807473143,27.014795192104884,1.0805918076843,16.208877115262794,13.66852533280278,15.2818758981625,14.047693499894535,30.256570615157386,66.99669207641989,51.37074809583042
95,85,177,0,5.899999999999983,8.953493490380515,138.1960319114635,17.507524381296356,28.562164301577923,33.21819194149601,37.170796874546994,41.48723522612618,96.43207609061045,67.87585970925343,62.97469305849745,78.17548103813476,58.63161077860104,27.14426424935243,27.144264249352204,1.0857705699739881,14.115017409663324,11.694106924093758,11.072730647165356,11.943476269715063,30.401575959274624,65.14623419844565,52.20738983321972
96,85,178,0,5.933333333333316,11.06572098989085,144.5565437963298,15.345394011165117,28.295508460122548,32.84057730155169,37.147265682917954,43.888899963289425,98.52173190465498,70.28793525327642,64.01990977511821,73.78565872386503,54.25416082637139,20.616581114021187,33.637579712350316,5.4254160826371844,9.765748948746818,13.200607063497014,13.200607063497014,13.020998598329186,30.38233006276795,65.10499299164564,47.39715033200177
97,85,179,0,5.966666666666649,17.43394633265275,152.35436901153992,13.1534563664712,28.19444091526065,37.01458091613986,41.312878775432225,41.59488122169157,100.31367934469417,72.17414069073732,62.710032280179234,71.35969190503158,54.06037265532689,21.624149062130755,36.761053405622306,8.649659624852347,10.812074531065377,15.290582439221378,15.29058243922141,15.136904343491551,30.273808686983045,64.87244718639221,49.310646698644035
98,85,180,0,5.999999999999982,19.676032924641365,155.24888424174895,13.216956981195725,28.57943679054737,41.79568779704204,43.67383177926283,37.19327528942556,98.64375827817216,70.07244705004146,59.75349443159428,71.70419331791311,54.32135857417654,26.074252115604736,34.76566948747302,8.691417371868283,17.382834743736566,15.81861839020064,15.364400404426576,15.209980400769496,30.419960801538934,65.18563028901195,47.45585517060197
99,85,181,0,6.033333333333316,22.03983485444078,156.8161741364965,13.145966716657176,26.02409690659464,41.57119686940227,45.8456276944873,34.64640900828757,95.7040822980889,69.69607739399848,58.351957614946286,71.31905930715664,51.86840676884117,27.014795192104657,33.49834603821,9.72532626915779,18.370060730631167,13.668525332802725,13.145966716657233,12.967101692210292,30.256570615157386,66.99669207641989,49.8947982469765
100,85,182,0,6.066666666666649,21.598914465837765,159.14457744550637,13.138106760791318,26.27621352158275,43.68110122191901,45.81821665518627,33.03998590011851,93.77511423631289,67.51172525289337,56.1571776111781,69.11652629068078,47.517611824843016,25.918697359005137,34.55826314534045,10.79945723291894,17.279131572670053,15.724247080046926,15.724247080046926,15.119240126086424,28.07858880558905,64.79674339751324,49.25310296553293
101,85,183,0,6.099999999999982,21.648646651904034,156.585473366893,13.103005614230714,26.206011228461428,41.43534193494278,45.695803893039766,32.59776362457807,93.52457478732822,67.33135383364628,56.007142194534595,68.93186731635035,47.39065877999087,25.84945024363128,34.46593365817512,10.770604268179795,17.23296682908756,15.682236529260429,15.682236529260482,14.001785548633677,30.157691950903256,68.93186731635024,49.73174173053764
102,85,184,0,6.133333333333315,22.0343681070647,159.84411628461726,13.142705998982635,28.418881584397063,41.560885574743835,44.0687362141294,33.051552160597,96.62709624332064,68.22310950561652,56.176836473804656,73.462016927283,47.534246247065425,28.088418236902385,34.570360906956694,8.642590226739117,19.445828010163154,15.729751644670747,17.817156191888312,16.204856675136,25.92777068021752,69.14072181391344,49.88242237124069
103,85,185,0,6.166666666666648,26.06521767058672,160.50173177792587,13.690123016147725,28.879346140066943,42.02890062515513,46.273830878301816,33.111990108629264,101.45942189237246,72.60284114997087,58.44415974154333,75.76094781311178,47.621167196813076,29.222079870771722,37.880473906555835,11.905291799203269,22.728284343933638,15.758515011300009,15.758515011300009,15.152189562622311,25.975182107352623,73.59634930416581,52.711418269900285
104,85,186,0,6.1999999999999815,26.201452339839896,158.39920510681569,13.621486452172748,28.7345571497447,42.314397302324394,44.400613620720314,32.94598040771242,101.3863259095466,72.65502192273738,58.15114511308991,79.68860626608625,47.382414536591796,31.229318671844567,35.53681090244379,9.691857518848337,24.76808032594579,16.402441741757777,16.402441741757777,15.076222807097338,23.691207268295898,75.38111403548697,51.19396073737657
105,85,187,0,6.233333333333315,21.525394398439598,150.66253696880165,15.592952842262651,26.493305415041362,35.90406244787512,40.01318703406398,37.95379912350297,101.30326029405582,74.81184165877993,62.113847085116845,85.67427184154042,47.12084951284726,29.985995144539174,32.12785194057767,10.709283980192595,21.418567960385076,14.368012182036042,16.31189538388188,13.922069174250339,19.27671116434658,79.24870145342493,51.7603082707785
106,85,188,0,6.266666666666648,15.367801840603457,140.2096120571611,15.822120383083325,25.438238412850765,32.308953150501225,37.13797123062071,46.052151025117894,102.42383409228319,77.02320205828148,66.28672904987332,93.45342128342793,47.81337833105613,27.166692233554613,27.166692233554613,7.606673825395319,18.473350718817073,15.672144293252899,14.57917693393052,13.040012272106253,13.040012272106196,84.76007976869039,57.37770043984039
107,85,189,0,6.299999999999981,17.483066227135975,132.49208036443025,18.52773602478903,28.19059723074889,29.09358080043314,33.02972188125817,45.27976550127119,109.05242792009813,81.02212576864753,69.39223933722792,97.58283656797676,49.875672023632546,30.359104710037286,30.359104710037172,10.842537396441799,21.685074792883825,15.637329815602843,15.637329815602795,13.011044875730192,8.674029917153462,88.90880665082324,56.25594915066332
108,85,190,0,6.333333333333314,22.09894160689562,136.86324186090403,20.55777267685286,30.182531994154207,33.91859442041963,38.76410790905115,42.68454609289268,115.15615375225832,84.98317891155459,69.34334429742046,101.84803693683637,47.67354920447656,35.75516190335736,33.5881823940631,11.918387301119196,24.92026435688547,15.626311467281575,14.536540465894205,14.085366810413518,13.001877055766329,97.51407791824755,60.20928291831544
109,85,191,0,6.366666666666648,28.415150957199273,141.61510962554345,16.452841458720933,26.103776593464794,32.905682917441865,37.729133895227164,39.71780746245789,110.0089892429359,84.03232506063343,65.89109963171165,99.37674042815536,47.528006291726456,36.7261866799704,30.245094912916898,12.962183534107226,30.245094912916784,15.276079793252979,15.578605791399584,12.962183534107226,15.122547456458449,103.69746827285775,58.169578826243935
110,85,192,0,6.399999999999981,24.10583517411434,156.96582644742338,16.42030323413334,28.029188773937186,34.83272329798516,39.639258906417716,36.843306748112454,105.00851540919548,77.0482226461784,61.448606158246776,99.18020643085447,43.12182888298025,36.65355455053316,28.029188773937108,8.62436577659605,28.029188773937108,15.547796512936934,17.382964951630587,14.014594386968554,21.560914441490127,107.80457220745063,63.66861734908645
111,85,193,0,6.433333333333314,22.324151179781715,156.54480036573887,14.684681862337602,24.474469770562568,37.40672707422054,42.27783127032104,34.612127081419956,95.56959232176922,71.30434210922883,56.91564124505135,94.1297143668155,39.40313624657392,33.93047843454974,22.985162810501492,7.661720936833831,27.363289060120792,14.0168431517392,17.64879113951133,14.228910311262894,26.268757497715967,113.83128249010252,73.42340931168775
112,85,194,0,6.466666666666647,18.789094551140103,152.3737917242099,14.75199235781441,24.58665392969045,34.42131550156684,38.40558117719876,41.724935328890425,99.64118791519991,75.15637820456068,61.574721069176235,92.36208160376441,39.58374925875614,26.389166172504133,26.389166172504133,10.995485905210103,21.990971810420092,15.857915291950594,14.751992357814258,13.194583086252067,32.98645771563014,118.75124777626854,76.71666427184275
113,85,195,0,6.4999999999999805,10.842537396441775,142.9571183707648,18.527736024788922,26.202175566325163,31.04830206282737,35.89518581144145,45.94984967103366,101.08594781885581,74.899884195247,65.05522437865113,93.24582160939997,39.033134627190634,22.76932853252788,27.106343491104667,9.75828365679763,14.095298615374418,16.514860940629152,17.48306622713606,15.179552355018586,36.8646271479023,121.4364188401488,75.74271000584892
114,85,196,0,6.533333333333314,16.63755847401108,148.57011742339236,15.904262416493134,26.39684522311395,34.19468758754117,38.15272109261751,46.29123511982279,105.08900386001059,78.76753855808634,66.63086286888188,87.38473818869761,37.13851373019645,18.569256865098282,36.04620450283767,16.384638410380717,12.01540150094604,16.63755847401104,16.63755847401099,15.292329183022105,43.69236909434886,124.52325191889418,84.32740427115682
115,85,197,0,6.566666666666647,13.74172927010794,149.09934572079905,13.74172927010794,30.263019481947882,33.09446653643265,37.94559019719769,46.039920280255046,103.77053005579616,73.52146220938077,63.00998705026893,80.39205244344657,32.59137261220803,13.036549044883259,41.28240530879691,17.38206539317764,6.518274522441629,18.564053977582965,17.517336424697298,16.295686306104017,43.4551634829441,121.67445775224348,83.9258607362394
116,85,198,0,6.59999999999998,17.74790087004209,151.11793055005396,10.761245576496368,31.33722013697084,36.07826946321183,38.80022271391769,40.20733157961319,99.37705859091123,68.06009296428033,55.95847699778096,71.02422080487577,25.82698938359124,9.685121018846644,46.27335597893432,20.44636659534308,7.532871903547402,16.391040929415556,17.35198710609027,15.065743807094918,43.04498230598534,111.91695399556193,79.3710256066835
117,85,199,0,6.633333333333313,21.578979919497286,153.11428216364925,12.520154337630316,31.263540174041793,35.412344134562005,40.112796241529146,33.33333333333328,97.92687404493256,66.66666666666667,53.679718866735925,64.41566264008304,25.766265056033262,12.883132528016631,49.385341357397124,21.471887546694347,8.588755018677716,18.345588761799405,18.34558876179935,17.17751003735549,47.23815260272761,115.94819275214957,79.44598392276913
118,85,200,0,6.666666666666647,19.522253283758975,152.22961672798877,9.641353680829098,28.762922958379193,37.21612475665208,41.859466791373364,34.087332837660966,91.51671236432894,62.77994674950547,50.66299722981182,58.20855000871995,25.870466670542214,9.701425001453345,46.351252784721396,20.480786114179182,5.389680556362919,19.876159799998085,21.232878958689668,20.48078611417924,45.27331667344879,112.10535557234942,73.33135271637062
119,85,201,0,6.69999999999998,13.096360558104966,140.6077565367034,13.61694730514989,30.82667556346373,37.167032994828354,41.80425000060798,34.04236826287482,91.3959927387459,60.629830601694145,51.67268191531866,55.97873874159529,27.989369370797704,9.688627859122334,46.29011088247296,16.147713098536997,1.0765142065691862,21.637667760778996,23.188825678385754,21.530284131382814,45.21359667590394,103.3453638306375,68.42431337805694
120,85,202,0,6.733333333333313,13.216761981867414,143.62010148206866,11.0792632321862,31.11008068286576,35.37098416919801,40.064863313777984,37.129203486597085,92.23624202808864,61.18723110197292,52.14773484659872,54.32055713187367,28.24668970857431,6.51846685582484,47.802090276048716,19.555400567474408,0.0,21.83659371381288,23.402012205640425,21.728222852749468,45.629267990773826,102.12264740792239,70.20603661692127
121,85,203,0,6.766666666666646,11.120190233866126,146.29578031247974,13.792898442390849,30.84185852393703,33.360570701598334,39.79675482945278,38.08688569240188,93.67500567529898,62.94308769024544,55.61164263201363,54.521218266679966,28.351033498673587,4.3616974613344155,50.15952080534555,21.808487306671964,4.361697461334302,21.917258491684706,23.48845966814595,22.89891167200568,45.797823344011135,98.13819288002395,69.68485711372173
122,85,204,0,6.799999999999979,11.146063518998119,148.4175650992279,13.296449906290672,33.438190556994,35.58424671543456,39.88934971887216,36.05116401391561,93.89295879306032,60.459640052332254,53.55511103408958,52.462149584414306,28.416997691557754,5.464807248376587,51.369188134739034,18.58034464448008,3.278884349025816,21.968253255833492,26.412606887586428,22.95219044318128,45.90438088636256,96.18060757142632,69.12495151466887
123,85,205,0,6.833333333333313,17.83430028919855,156.74529273410187,11.279401877853461,35.66860057839718,38.186295469202854,44.736401822809455,34.97594045611428,99.34644836254036,63.84426584080293,53.089744870919844,50.87767216796476,26.544872435459865,5.530181757387368,58.619926628307326,25.43883608398255,1.1060363514775418,20.031170278818113,23.824752141552295,22.12072702955004,46.45352676205488,95.11912622706467,69.95188091222857
124,85,206,0,6.866666666666646,24.223651795688465,153.59575236115617,11.810239334634474,33.187721799696874,37.85888609584247,44.352831824535606,34.04616668232756,102.7956479106159,69.69801131896998,55.924212873519764,52.63455329272449,26.31727664636219,6.579319161590547,61.406978841512,28.51038303355915,1.1368683772161603e-13,19.85942298497659,20.805634003815648,21.93106387196849,46.05523413113394,94.30357464946474,68.69010866695372
125,85,207,0,6.899999999999979,22.016963411547813,155.23578583428355,11.170777659138855,30.982162797563333,37.818549328417376,44.30557607967773,32.56813357922538,96.24438202867778,65.35694402039866,52.57847378395843,50.387704042960195,26.28923689197927,7.667694093493992,55.864628395455725,27.384621762478332,1.0953848704991742,22.0169634115477,21.5765796555697,21.907697409982745,46.00616456096361,94.20309886292551,69.27822210531703
126,85,208,0,6.933333333333312,13.325932093055329,153.82261617298965,13.855644421063385,33.15236192639768,37.818549328417156,42.14029735878989,34.00989217853736,94.10114742736037,61.106376600001894,52.57847378395843,54.769243524956664,26.289236891979158,7.667694093493992,51.483088913459255,20.812312539483514,1.0953848704990605,22.016963411547724,23.59531221951808,21.90769740998263,43.81539481996532,94.20309886292546,71.35993170972142
127,85,209,0,6.9666666666666455,24.30157743147927,154.08985815323345,9.071498021947953,31.114981517743022,40.14917875404658,42.32095034934286,32.70775126340368,96.65697606638405,65.63712541755774,51.703793905071734,52.80387462645638,26.40193731322813,8.800645771076006,55.00403606922532,24.201775870459073,4.400322885538003,22.437332259467322,23.69646394322791,22.00161442769013,41.803067412611256,92.40678059629852,69.57521379232278
128,85,210,0,6.999999999999979,24.30157743147927,151.9227009515421,11.848231971613997,31.11498151774299,37.98067523788542,44.49551149348881,32.03483415503271,98.81150148063253,67.7778293039899,53.90395534784068,55.00403606922532,28.602098755997076,11.000807213845064,55.00403606922532,24.201775870459073,4.400322885538003,22.111348846214472,21.66907719082665,19.801452984921127,39.6029059698422,90.20661915352946,69.5752137923228
129,85,211,0,7.033333333333312,19.710961854631552,152.4475317391884,13.766732918033279,32.9396236200223,39.72125924292331,44.396379654868085,31.693399261569255,97.75834495989834,64.93754929939401,53.32943415124646,56.594501548261405,30.473962372140818,13.06026958806035,52.24107835224129,19.59040438209047,4.353423196020117,21.875680823052274,22.72553626472548,21.767115980100584,43.534231960201055,91.42188711642228,66.77220268523197
130,85,212,0,7.066666666666645,17.71817802167119,151.38417937736116,13.367901739201992,33.617879122090265,37.93765777966934,42.2730170332043,31.998551041815247,96.54750098719664,62.931677552755254,52.74406819973592,54.94173770805821,30.767373116512545,12.087182295772891,51.64523344557472,18.680190820739767,3.296504262483495,20.261511734414757,21.64453448280982,20.877860329062116,43.95339016644658,90.10444984121546,68.83302981651559
131,85,213,0,7.099999999999978,9.892689869958126,152.03876774783882,13.455512951830125,29.095273778853407,40.06234055763625,42.55006801367863,34.340603081501385,86.38420055668085,57.428747535436464,50.87767216796476,55.301817573874814,33.18109054432489,11.060363514774963,39.8173086531898,11.060363514774963,2.21207270295497,20.031170278818138,21.786389498638407,21.014690678072384,42.029381356144825,92.90705352410964,72.05383298195359
132,85,214,0,7.133333333333312,6.249523217404496,154.3834635137035,15.623808043511408,29.061962891733486,42.50135286759251,46.87142413053403,30.05299482227702,79.84973530091631,51.01119491974311,46.40034258519995,53.02896295451433,28.72402160036188,12.152470677076167,36.457412031228614,7.733390430866734,1.1047700615523581,20.008236792881103,20.961538111619653,20.99063116949526,41.981262338990405,92.8006851703999,69.87179370539879
133,85,215,0,7.166666666666645,7.025115778155194,159.61087784272357,15.708636429760993,29.638995937740628,42.732111026368734,47.12590928928317,30.216165481161763,82.43667301999633,52.80532379269469,47.763038373516,53.316880044855,28.87997669096319,12.21845167694596,38.876891699373346,9.99691500841027,1.1107683342678456,22.326167206542262,21.879598749883204,21.10459835108844,42.20919670217688,93.30454007849625,74.47948100439993
134,85,216,0,7.199999999999978,13.424346904118995,156.38223476007138,13.957971269072372,29.4443726486015,40.27304071235717,42.451512317246305,32.13366300821807,88.85539703896895,59.42392140638329,50.75982783427855,57.38067494309746,33.10423554409465,14.345168735774337,40.82855717105019,12.138219699501406,5.517372590682385,22.506552402921425,23.04122438823467,22.069490362729766,41.9320316891866,92.69185952346521,69.7898563453619
135,85,217,0,7.233333333333311,16.10413236059007,154.5604181862235,13.990376182445784,31.67206113986768,38.186295469202854,42.55006801367863,33.83820563356023,95.50417351533719,63.84426584080288,54.19578122239727,57.513890276829784,33.181090544324775,12.166399866252505,47.55956311353236,16.590545272162444,3.3181090544325116,20.031170278818,23.824752141552214,23.226763381027354,42.02938135614488,95.11912622706467,73.5327038513494
136,85,218,0,7.266666666666644,13.52873766941358,153.57641906897206,16.191770828796596,31.844420063719532,38.8424247694771,42.78162490226477,34.527484174127814,96.02390592232426,64.19170546293033,55.60276930928569,60.050990854028555,33.36166158557137,13.344664634228593,46.706326219800076,17.792886178971457,4.448221544742864,20.50528814382244,23.220398173327535,22.241107723714265,42.258104675057155,93.41265243960004,70.3325580921002
137,85,219,0,7.299999999999978,14.0502315563101,148.64388007757245,13.513080007052102,31.417272859522274,36.1639968747486,40.539240021156175,36.638521342220535,95.42269351680042,64.11741234888599,55.538416713390575,59.981490050461844,35.54458669656992,12.21845167694596,45.541501704980305,16.66152501401723,3.332305002803423,22.326167206542284,23.926682170313665,22.215366685356287,42.20919670217688,93.30454007849625,72.36210268501681
138,85,220,0,7.333333333333311,11.26648820377742,147.8411865701335,13.44010787001222,31.63580011474349,35.968707263906424,40.741906790273575,39.15315073479365,95.39483174499895,63.77117118120828,56.3432731391714,59.657583323828476,35.35264196967614,9.94293055397145,45.29557252364759,16.571550923285713,1.1047700615523581,22.53297640755475,20.961538111619582,20.99063116949526,41.981262338990405,92.8006851703999,71.97133927128212
139,85,221,0,7.366666666666644,7.957267912618078,143.3158107585978,15.605486292817409,33.39719909144663,33.75982860438198,38.09784726876907,42.851199123971426,99.11633924959332,65.83961879710846,60.691098497506914,61.79457301564344,37.518133616640625,7.72432162695543,47.4494042798691,16.55211777204738,1.1034745181365224,22.506552402921425,23.041224388234735,20.9660158445933,41.93203168918666,92.69185952346521,71.24036958601417
140,85,222,0,7.399999999999977,4.919710547505628,141.10223871108363,13.383059584682126,33.65599838920087,36.285992087791975,38.42416770920944,45.35749010973993,97.1315835318678,63.50048615363589,59.404358954763325,63.80468184030133,37.402744527073196,6.600484328306948,44.00322885538026,13.200968656614123,1.1368683772161603e-13,19.923309230353457,20.872564137696767,19.801452984921127,41.8030674126112,90.20661915352946,73.76285285056487
141,85,223,0,7.4333333333333105,9.061223513012179,145.26246345515648,13.899282381201838,28.905829331314425,33.617879122090265,37.93765777966912,44.82383882945374,96.54750098719664,67.70106316116032,61.5347462330252,63.73241574134761,37.36038164147965,6.59300852496699,43.953390166446525,15.383686558256272,2.197669508322292,11.205959707363428,13.899282381201838,13.18601704993398,43.95339016644658,90.10444984121551,68.8330298165156
142,85,224,0,7.466666666666644,7.0180838991942975,146.6930634218517,13.499553917803498,31.77572631948284,36.12779806226024,38.75863515775534,47.07873801118574,99.25069432112849,67.49776958901727,63.25042030508723,66.57938979482867,39.94763387689716,6.6579389794828785,44.38625986321915,15.535190952126754,2.2193129931609974,9.92506943211283,11.9513662267867,11.096564965804873,42.16694687005821,90.9918327195993,71.63947842077573
143,85,225,0,7.499999999999977,6.994118670463028,150.17009637466273,13.453455879926267,31.27864957971153,33.833032466076006,38.626282856157054,46.917974369567325,98.54015755690224,67.26727939963126,63.034433888889566,70.77550471734969,46.446424970760745,12.16453987329453,38.70535414230062,9.95280535087727,3.3176017836258325,9.891177480615642,11.910554912845411,9.952805350877384,42.0229559259264,86.25764637427,70.81005463628213
144,85,226,0,7.53333333333331,6.969339192269594,142.43733500073947,15.58391619216808,28.735321630484137,31.55502527215797,35.87686932534601,44.29781288717234,95.40615534016574,66.70207412040814,62.811109056472105,70.52475402831965,50.68966695785468,16.529239225387414,34.16042773246727,5.5097464084624335,5.509746408462547,9.856134006485961,11.86835698203512,9.917543535232483,44.07797126769975,83.74814540862957,71.14190024558944
145,85,227,0,7.566666666666643,6.987499191388049,144.7104165874195,15.624523184668604,28.81019722501103,33.80101169819911,38.144322244595564,42.04129216826346,93.22486685985409,64.42155944030044,60.76513463177059,68.49887903945046,50.821748964753624,17.677130074696947,33.14461889005668,4.419282518674208,6.628923778011313,7.966974860920752,9.110584306969706,8.838565037348417,48.61210770541652,81.75672659547325,69.7701006985084
146,85,228,0,7.599999999999976,13.367699982393441,145.64212053934457,15.383454377951239,30.845295911623843,33.25627242020538,35.43582121549576,37.42439832067636,96.92049660271199,66.07543685340565,59.33618117209778,70.32436287063445,57.138544832390494,26.371636076487903,32.96454509560988,4.395272679414688,13.185818038243951,7.923690507637843,9.061086755309086,7.691727188975619,50.54563581326852,74.71963555004913,69.39104167799616
147,85,229,0,7.63333333333331,21.891614750440795,147.08167740636748,17.649584064450853,32.91031327445366,39.465669742709004,41.823871255459665,30.64826065061709,102.98370300162742,70.087364502545,59.10735982619019,70.05316720141059,59.10735982619019,33.93200286318336,38.310325813271334,5.472903687610142,16.418711062830653,9.026143993139684,8.756645900176352,8.756645900176352,54.729036876101986,74.43149015149868,69.1234452261003
148,85,230,0,7.666666666666643,15.159738459641744,149.6825900457209,19.4910923052538,30.627296759506258,32.4851538420894,39.04229595632987,32.4851538420894,97.55166634883223,67.13598460698495,59.55611537716402,67.13598460698495,58.47327691576106,30.319476919283602,34.65083076489543,4.331353845611943,10.828384614029801,7.808459191266061,8.662707691223886,8.662707691223886,54.141923070149176,75.79869229820883,68.38191328394078
149,85,231,0,7.699999999999976,4.3547129463582905,144.11731536038286,17.55440909669656,28.63865306808383,35.10881819339336,39.43360289530737,37.015060044045526,87.33886803121447,58.82893237383667,56.61126830265778,65.32069419537447,54.43391182947869,22.862242968380997,27.216955914739515,1.0886782365895442,7.620747656126923,9.737434170555481,8.977470723540005,8.709425892716638,54.4339118294788,76.20747656127031,66.61429886872828
150,85,232,0,7.733333333333309,3.144638539660332,142.74373036569565,17.788761886195402,28.99213481851558,33.42796620493496,38.06181946990583,37.86646239143585,86.97640445554663,57.98426963703105,56.70167851224778,64.48426183745823,53.36628565858621,21.124154739856976,27.794940447180352,1.1117976178871913,5.558988089435957,9.944220203272536,11.338155497545795,11.11797617887214,55.58988089436059,80.04942848787925,68.02893298527431
151,85,233,0,7.766666666666643,4.83135481216606,145.79168520782986,17.419697505224306,30.556170781719228,34.83939501044884,36.98432876520724,34.57036090695681,86.8569568230438,56.34279499333907,54.01618891711996,64.81942670054389,47.53424624706554,21.60647556684785,30.249065793587192,2.1606475566849213,6.481942670054309,8.908578095944128,8.908578095944128,8.642590226739173,49.69489380375029,75.62266448396787,68.2231095056165
152,85,234,0,7.799999999999976,4.344490978684007,146.5742664028941,17.513203027654257,28.571428571428523,37.182853394115064,39.639760407536805,36.99200771964608,87.32318794571256,58.811315165991815,56.478382722892434,60.82287370157644,43.4449097868403,15.205718425394025,34.755927829472284,6.516736468026124,2.17224548934189,9.71457715597208,8.956397597328658,8.688981957368128,49.961646254866366,82.54532859499659,71.15554756997014
153,85,235,0,7.833333333333309,15.4023976468231,151.570862472806,15.402397646823069,32.962570409186085,39.44938627478074,41.899051471416044,32.745946570290165,96.06454544855006,63.206155468287406,55.5448130952617,60.990383006561956,41.386331325881315,18.514937698420567,44.65367327266142,11.980253804860354,7.623797875820287,6.888161630955887,9.741331598315691,8.712911858080247,47.92101521944153,82.77266265176257,69.73732137136227
154,85,236,0,7.866666666666642,17.519852609384998,159.19222971683683,15.485508231856137,33.1404348283316,44.01808490617236,46.456524695568554,32.8497236425967,98.76792629336019,65.7359368449549,56.939520980501015,59.1295025566742,37.22968679494295,15.329871033211816,50.36957625198181,19.70983418555818,4.379963152346136,9.029525356718429,11.793411712280367,9.854917092779033,45.989613099635505,83.21929989457857,70.11362054962746
155,85,237,0,7.899999999999975,24.45296747469056,165.31529536959607,15.654408302799835,28.865302660055537,40.399293625132955,47.327084884877756,31.073113253815123,99.72238997352073,70.87834814575419,58.66749281177556,55.34669133186367,33.208014799118246,13.283205919647344,55.34669133186367,26.566411839294574,4.4277353065491525,13.466431208377665,14.001728445038923,13.28320591964723,46.491220718765476,84.12697082443276,65.1118010661375
156,85,238,0,7.933333333333309,17.528200531851073,169.42687298075066,15.373248840481804,28.59589583302731,46.11974652144529,48.61448137246471,32.683975357954985,93.71379162912272,65.25939605913429,56.52674822065899,56.52674822065899,30.437479811124035,10.870528503972878,50.00443111827519,21.741057007945756,2.1741057007945983,15.827728412695743,16.55749572541675,15.21873990556196,45.65621971668611,84.79012233098842,72.27062221982986
157,85,239,0,7.966666666666642,19.773421525669374,175.19296106949204,15.440448125364608,28.72089372843018,46.680231213784474,47.13764233676258,32.826842997318245,96.30186576769808,67.72709290324173,57.86564154222344,58.95744609962401,28.38691849241161,10.918045574004509,52.40661875522119,26.203309377610594,2.183609114800902,13.282375704328476,18.00650205077103,16.37706836100665,43.672182296017695,87.34436459203539,70.48695634245854
158,85,240,0,7.999999999999975,20.0,174.85456141336095,15.33929977694742,30.67859955389484,44.24530550039781,49.46775539206726,30.370264094611798,96.06370435350513,65.40372358530912,55.31726674375727,58.57122361103711,23.86235036005212,10.84652289093276,54.232614454664144,26.03165493823883,2.169304578186484,15.792775712517479,17.888543819998283,16.269784336399255,43.38609156373127,88.94148770564902,70.02520554603691
159,85,241,0,8.033333333333308,24.390243902439046,174.15385650246662,15.881776191316812,29.105236858880534,47.64532857395036,49.74653183992957,28.359886543899847,97.19443339107947,68.18807319026959,55.62900822072663,58.901302821945706,21.815297341461473,11.998413537803685,55.62900822072652,29.45065141097291,5.4538243353653115,15.881776191316812,18.638998219066153,17.45223787316911,39.26753521463047,89.44271909999162,73.8182729288857
160,85,242,0,8.066666666666642,28.655639725805578,174.4007339651828,15.405367356220603,29.066788994197125,47.03054539660999,52.378249011150004,28.406093844320814,101.37153135056512,72.4216134085699,57.73417053854325,63.180790400669935,23.965127393357534,15.250535613954867,56.64484656611785,32.679719172760315,8.714591779402781,17.965591195308455,18.614376200532536,18.518507531230796,39.215663007312344,91.50321368372886,71.66394093786279
161,85,243,0,8.099999999999975,26.432354071326674,164.9698734822756,15.81768491808899,28.987782005883652,44.79189645615757,49.54577856612205,30.418165689959324,101.09599147602529,72.22476285292854,58.6636052592072,65.18178362134131,28.24543956924788,16.295445905335214,53.23178995742887,27.159076508892326,7.604541422489774,15.81768491808899,18.563780112907168,17.38180896569105,36.93634405209343,91.25449706987791,69.42531462175423
162,85,244,0,8.133333333333308,7.844645405527424,156.72687583649298,19.701920730562655,31.151471894333145,40.118168647400786,43.35077785724734,35.082320772281086,93.022870509729,61.883647264980816,57.65639908136461,69.62282153221383,32.635697593225245,16.31784879661268,40.250693698311125,14.142135623730951,3.263569759322536,17.94139044567788,21.428289657206406,19.581418555935215,36.98712393898859,91.37995326103072,69.52076017043075
163,85,245,0,8.166666666666641,2.175713172881842,151.98878812588887,17.941390445677822,29.027634252481864,37.997197031472176,40.64567634960883,41.850678488416676,89.20424008814902,60.17725297110131,58.74425566780542,69.62282153221383,34.81141076610686,10.878565864408415,34.811410766106974,8.7028526915268,0.0,17.941390445677822,19.46017021642078,17.405705383053487,36.98712393898859,93.55566643391239,67.48219138295791
164,85,246,0,8.199999999999974,2.1926450482674227,151.0380746699321,18.08101426698945,27.121521400484227,38.292899522576626,43.07864007567116,42.57346591481607,88.27949496213282,61.1586838918613,59.201416303224505,72.35728659282995,37.2749658205488,13.155870289605332,30.697030675746078,6.577935144802723,2.1926450482675364,18.081014266989502,19.61161351381843,18.637482910274343,37.27496582054874,94.28373707550566,70.84652969080963
165,85,247,0,8.233333333333308,4.372433443102864,145.34642240822635,17.62584270278697,27.042007390343027,40.84189883199773,41.48054579308998,42.952343494691746,88.58899770849553,61.56442185221409,59.02785148188582,72.14515181119384,32.79325082327,10.931083607756705,32.79325082326977,8.744866886205273,2.186216721551432,18.028004926895388,18.67904385701033,18.58284213318632,37.16568426637252,94.00731902670702,69.85638101287549
166,85,248,0,8.26666666666664,2.1649155222471563,144.53142058633478,17.852350737527555,29.446034629746958,36.29059713464379,39.02856961254821,42.533841330497815,90.40952647262957,60.96457463350098,58.45271910067038,73.60712775639979,32.47373283370575,11.907035372358678,33.556190594829445,7.57720432786482,3.247373283370507,17.852350737527612,20.53819197646084,19.484239700223497,34.63864835595285,93.09136745662323,71.96512652948778
167,85,249,0,8.299999999999974,4.873701788285635,138.62233593112742,17.973324123475432,29.645570621632306,36.536514127761045,40.07119554728886,44.45500006612154,95.20574046047375,65.56895157714789,62.11819245381514,76.28549950468528,37.052956902275696,13.077514200803193,34.87337120214181,10.897928500669309,4.359171400267769,20.094787260864027,21.46642962744668,19.616271301204733,34.87337120214181,95.90177080589001,69.26831716210737
168,85,250,0,8.333333333333307,4.909398466165682,137.53327343417104,15.983843373095755,31.96768674619151,36.80412019648019,39.5808358233296,46.93549262107036,99.57731831823673,67.63576190346521,63.67094245408248,79.0397906326541,39.51989531632705,13.173298438775646,37.32434557653119,10.97774869897978,4.391099479591844,20.24196843424658,21.623657184020683,20.85772252806146,35.12879583673515,96.6041885510217,68.90669111210667
169,85,251,0,8.36666666666664,6.881736343494737,136.32092648518812,15.842946823028125,31.15838650473119,34.40868171747365,37.186855432534166,46.521759275987144,100.3176839298161,69.16059430946946,64.19778525149661,78.34305996792807,39.17152998396409,13.057176661321478,39.17152998396398,13.05717666132125,6.528588330660796,20.645209030484228,21.43304603838071,19.58576499198199,32.64294165330341,91.40023662924943,67.49717022773912
170,85,252,0,8.399999999999974,7.870652210266215,145.7338247575709,17.599313369414308,31.254746192278308,37.30185862019247,42.15930684565871,42.887694271449995,99.0047865603516,67.77625419843962,62.21339563773665,76.40241569546606,34.926818603641664,14.189020057729522,40.38413401046057,12.006093895001754,5.457315406819134,20.125584804254878,23.510834296187696,21.82926162727597,37.10974476636926,96.0487511600146,68.51050381103516
171,85,253,0,8.433333333333307,9.828721869343164,157.88794689141065,20.262429216060163,33.61940140667885,39.620844523492075,42.44597009562258,33.61940140667885,97.02596423560583,63.43143676294363,57.14199460265456,70.32860874172877,26.373228278148304,15.38438316225313,46.1531494867595,17.582152185432165,4.3955380463580696,22.08730532690154,25.72422688938582,23.07657474337975,37.36207339404342,94.50406799669804,66.95084087851049
172,85,254,0,8.46666666666664,26.264019296381328,159.40005858124852,11.745626501814922,27.589077490934056,41.383616236401,46.21685172663917,31.75741308357796,96.80778886850673,69.31669932133815,54.52770213389681,69.79545873138784,23.992188938914524,16.358310640168952,46.89382383515135,25.082742981592673,14.177202554813107,22.243025376969182,23.491253003629982,21.811080853558735,37.07883745104982,93.78764767030248,68.45344398059656
173,85,255,0,8.499999999999973,26.46464355495019,164.23085454598842,13.899911768418177,29.321895997797654,42.67295551137145,45.8907644755559,29.321895997797654,98.70405546905224,69.39523119932339,54.94422557947553,68.13083971854974,24.17545925496927,17.582152185432165,50.54868753311757,26.373228278148304,10.98884511589506,22.41293427111919,23.670696795668125,21.977690231790234,37.36207339404342,94.50406799669804,71.01209038700443
174,85,256,0,8.533333333333307,26.635889200897434,163.60969942150228,11.16408195460269,27.082082539107013,45.13680423184491,47.81845405324255,29.210994510930014,94.0447437015943,66.98449172761609,52.54695852726286,67.8731547643813,24.084022658328877,17.51565284242099,45.97858871135509,24.084022658328877,13.136739631815772,22.328163909205433,23.581169315247692,22.989294355677544,35.031305684841925,94.14663402801273,72.01947851155654
175,85,257,0,8.56666666666664,21.981386273450003,155.96956819910704,11.15272683659756,29.74954003521352,42.46831854960288,47.76981734573646,31.316363231857892,93.94908969557389,64.36552814926104,52.49351240268982,65.61689050336236,26.24675620134485,15.310607784117906,45.931823352353604,19.685067151008752,10.93614841722706,22.305453673195032,25.600867080546852,24.059526517899542,39.37013430201745,96.23810607159811,69.88874827606912
176,85,258,0,8.599999999999973,24.45109504714649,157.8570116937738,11.287689970487,29.534416811857753,40.81857667954581,46.223374025255914,31.69533373707301,96.82240890810749,67.32700024295717,54.23560422542357,68.62464208114818,28.77807571144922,17.709585053199476,46.48766076464892,19.923283184849538,13.282188789899578,26.656455421158533,25.910672323883304,25.457528513974353,42.06026450134891,97.40271779259746,72.81687366505241
177,85,259,0,8.633333333333306,20.018317817913907,154.95087601167944,13.981399634375077,29.49379483934982,40.76243434532422,45.5737870622586,29.49379483934976,92.79479268350849,63.303479229739814,51.95035457296285,66.31960158250581,28.738494019085806,18.790553781709946,43.10774102862888,16.57990039562651,12.158593623459296,24.715856229864258,25.875034490723817,24.31718724691882,48.63437449383758,99.47940237375872,72.71672050953326
178,85,260,0,8.66666666666664,19.911264789975426,150.9686288902896,11.211883995613341,29.33606929659113,40.124906963445206,42.693582299929055,33.63565198684012,94.01129116155604,64.70694077772869,53.87136824251513,68.16377206195796,35.181301709397644,18.690066533117488,40.67838010149103,14.292403819442825,12.093572462605493,22.42376799122673,22.956473326785602,23.087729246792208,54.9707839209338,101.14624241451827,70.9783306926507
179,85,261,0,8.699999999999973,13.480685448343104,157.78737776366134,15.670978520180528,29.567943136049628,36.077301856344455,40.864912344256226,33.90150995472354,92.57822052470348,63.035524957596394,55.40527589724206,66.48633107669036,37.67558761012458,18.837793805062233,38.783693128069444,12.189160697393277,7.756738625613821,24.478850981676068,25.268693599549223,24.37832139478644,62.05390900491108,106.37812972270467,71.53934716318281
180,85,262,0,8.733333333333306,11.10802597677116,155.22646592037623,14.050664957965319,29.220654140801106,38.02775546491418,42.73342916604309,35.82230739981002,89.85836910174136,60.638020950543606,54.429327286178705,62.204945469918584,37.767288321021965,14.44043376980244,38.87809091869917,12.218828574448366,5.55401298838558,24.437657148896562,25.330196480154623,24.43765714889662,62.20494546991853,102.19383898629474,77.59733349613506
181,85,263,0,8.766666666666639,11.338155497545749,150.31898509700406,11.338155497545749,29.246829035857107,38.06181946990582,40.271022502529696,35.85439583740419,87.74048710757148,58.49365807171437,52.254488040699016,57.813476130135086,37.80111900816519,12.229773796759332,38.91291662605238,10.00617856098495,3.335392853661574,22.23595235774428,23.215015813238224,23.347749975631473,66.70785707323267,100.06178560984904,76.77041045148829
182,85,264,0,8.799999999999972,4.959482257077138,155.651910667325,13.307687352034236,26.707629312419726,37.770291592457205,42.199336633390594,35.76333515529094,80.33748951372685,53.64500273293641,51.012801516131276,48.79485362412561,37.70511416409704,7.762817622019952,36.596140218094206,7.762817622019952,3.326921838008616,24.397426812062804,27.434500292566756,26.615374704068586,73.19228043618847,99.807655140257,72.21115165091697
183,85,265,0,8.833333333333306,4.496582315437763,155.27864833747685,9.269941920417356,24.833187508755525,36.042849143462774,38.287018787891384,38.28701878789149,76.73889037708864,51.90583202516348,49.462405469816304,44.96582315437843,38.22094968122167,3.372436736578379,34.8485129446434,7.869019052016256,3.372436736578379,27.073010616334802,27.351642422747034,28.103639471486645,76.44189936244351,98.92481093963272,73.19905680860735
184,85,266,0,8.866666666666639,3.163612590876566,149.94655998189825,11.185059580279699,24.70860421258757,33.55517874083898,35.792190656894945,36.07073330651629,74.36172170812584,49.66972518647646,48.095756195202625,40.26621448900687,35.792190656894945,2.2370119160559625,35.792190656894945,8.948047664223736,6.711035748167774,24.708604212587684,27.214424525631294,26.84414299267121,60.39932173351019,76.0584051459017,72.14146661303256
185,85,267,0,8.899999999999972,4.9688865916688885,146.81357242379383,8.88861455316703,26.758273204097623,33.332304574376394,35.55445821266835,40.060444424099124,80.27481961229306,53.51654640819543,51.10953368071057,42.22091912754354,35.55445821266824,1.1110768191459783,41.109842308397674,12.221845010604738,7.77753773402128,28.887997297792822,27.48652250108264,26.665843659501093,66.66460914875296,84.44183825508708,82.33971341736593
186,85,268,0,8.933333333333305,4.493956532275206,141.8446743591446,11.457386025654518,27.057201308186897,31.537842851302937,33.7794902306093,42.928459498339826,85.85691899667965,58.809049133776426,56.1744566534403,47.18654358888989,38.19863052433948,0.0,42.692587056614684,13.481869596825618,6.740934798412809,29.29701223408479,27.793586189257812,28.08722832672015,76.39726104867884,94.37308717777978,87.747306374353
187,85,269,0,8.966666666666638,11.393745837917724,145.51708608812697,11.172486992395989,29.134281629169127,33.59186164804078,37.98645577414641,38.248434435626315,89.82568372173621,60.70270360018556,54.74518626274016,44.68994796958384,35.75195837566707,2.234497398479334,49.158942766542054,17.875979187833423,6.703492195437434,26.813968781750305,27.639206382292745,26.813968781750305,71.50391675133403,93.8488907361259,85.17510164594066
188,85,270,0,8.999999999999972,16.03621860996432,161.79900890861032,13.79487685363154,31.830985074104714,38.62032861561485,43.14905126302953,32.07243721992878,93.67128527622582,61.900634721041854,53.29479894136989,43.08941191004362,27.21436541686967,3.40179567710868,57.83052651084813,23.81256973976099,7.93752324658692,27.308696255754192,25.35548793193338,26.08043352450011,77.10736868113077,102.05387031326131,82.42678763023275
189,85,271,0,9.033333333333305,20.197326836278307,162.13868089188287,11.442951517843708,29.5171508964065,42.697816768713196,44.93901718967826,29.26010259771753,90.2136100372103,60.757986245974585,50.49331709069554,38.15050624630328,24.685621688784522,2.244147426253221,58.347833082581474,26.929769115037516,6.732442278759322,27.02311348198045,29.940661071443152,29.17391654129085,74.05686506635351,98.74248675513797,73.51081621587363
190,85,272,0,9.066666666666638,20.22280439523854,169.06178465463154,11.457386025654518,27.057201308186784,44.99570471418816,47.18654358888989,29.29701223408479,87.89103670225437,60.83462832784202,50.557010988096295,33.70467399206416,20.22280439523854,2.246978266137603,60.66841318571551,31.457695725926555,8.987913064550412,27.057201308186784,27.793586189257812,28.08722832672015,74.1502827825413,98.86704371005504,83.89387577124897
191,85,273,0,9.099999999999971,24.84013136974295,169.74048043593828,9.31077139924259,27.192253748944168,40.71016697403172,47.475805051339805,27.19225374894415,88.329733184279,61.13827632693329,48.55116585904307,29.356518891514384,18.065550087085853,3.3872906413286046,64.35852218524315,35.00200329372876,10.1618719239857,27.192253748944037,27.932314197727937,28.227422011071553,74.5203941092289,97.10233171808619,75.74212133559573
192,85,274,0,9.133333333333304,24.84692843422702,175.82387866394004,8.998140810631298,27.087990901126663,45.04690732810276,49.54087387782345,27.366776882627438,88.19210883764457,61.11122292559344,48.36500685714293,26.994422431893668,15.74674641860463,5.623838006644519,66.36128847840541,37.11733084385389,12.372443614617964,24.84692843422702,27.36677688262746,25.869654830564855,74.23466168770767,96.73001371428575,83.71777559022583
193,85,275,0,9.166666666666638,29.44324439475962,171.9937382492174,11.514574052229841,27.19225374894415,45.220294821495756,49.73155884271127,24.942565335742646,93.02552385077092,65.83709594482222,50.80935961992873,29.356518891514384,18.06555008708574,1.1290968804428303,68.87490970701458,39.5183908155002,10.1618719239857,24.942565335742646,27.472112789737793,28.227422011071496,74.5203941092289,97.10233171808613,79.83920607777247
194,85,276,0,9.19999999999997,33.81792941513799,164.76981607443264,11.470423894866025,29.33035060750964,45.21509798408788,49.54087387782345,27.366776882627438,101.85203820932226,72.545330470793,55.11361246511626,35.992563242524966,22.495352026578075,2.249535202657853,71.98512648504982,40.49163364784056,4.499070405315592,26.994422431893668,29.588016030876922,28.11919003322265,71.98512648504993,96.7300137142858,75.08192333437066
195,85,277,0,9.233333333333304,15.987215339548623,154.55594435705873,15.987215339548623,36.24552412601211,43.19507722513799,47.694448140078,34.21413492628447,102.36812602972208,66.1878438304688,57.65380873231072,47.4796071913147,31.65307146087639,5.652334189442172,62.175676083864346,23.73980359565735,5.652334189442172,27.225246693243907,27.966205073232288,27.131204109322653,72.34987762486037,97.22014805840615,71.3896744845022
196,85,278,0,9.266666666666636,7.15370084577352,145.41557711870828,15.835391860481991,31.992322763694613,38.722606687451226,43.04126828553851,36.47686020700421,91.19215051751064,59.20740960108954,55.423871511687025,47.50617558144597,33.932982558175695,4.524397674423426,49.7683744186578,15.835391860481991,6.786596511635139,29.40858488375227,27.98185425592006,27.14638604654067,72.39036279077499,97.27455000010383,71.03448436481324
197,85,279,0,9.29999999999997,3.175753583467411,148.82057037621735,15.71917825973128,27.040567387921485,40.6694894848296,42.72539477811864,38.4384271992989,83.57120912648537,56.54268503406393,55.01712390905948,47.15753477919395,33.6839534137099,2.245596894247342,42.66634099069927,11.227984471236596,6.736790682742026,29.27900134818552,29.959999386493216,29.192759625215217,71.85910061591449,94.31506955838779,68.29716323240847
198,85,280,0,9.333333333333304,2.270931823214596,148.23810800189221,13.813539003111828,27.345640331228353,38.87209132895815,40.93980565841666,41.128324563322316,84.51406340828262,57.180602245576246,55.63782966875863,47.68956828750743,34.06397734821962,0.0,43.14770464107812,13.625590939287804,9.083727292858498,27.345640331228353,30.29800949786357,29.522113701790317,74.94075016608309,97.65006839822945,71.30870568765984
199,85,281,0,9.366666666666635,2.2482911577188815,149.21947539483133,15.897819237048102,29.314130245994136,38.287018787891604,40.53164525663952,38.811522937181586,86.17145982162225,56.922185624334716,55.083133364113564,47.21411431209742,31.47607620806491,1.1241455788594976,46.089968733237924,14.613892525173014,10.117310209735138,24.731202734908152,27.809825761251957,26.97949389262709,74.19360820472451,96.67651978191373,70.59777437043496
200,85,282,0,9.39999999999997,4.496582315437763,155.5388557229088,15.897819237048102,29.314130245994118,45.19009299028222,47.267614742079914,34.02281891233967,83.67147772616295,54.378908420251534,51.7106966275353,40.469240838940664,29.22778505034603,1.1241455788594976,48.338259890956806,16.862183682891896,10.117310209735138,27.073010616334802,27.80982576125207,28.10363947148653,71.94531704700563,92.17993746647596,70.2748349545548
201,85,283,0,9.433333333333303,11.47042389486607,158.0448575177054,11.47042389486607,31.493492837209374,42.800326205939164,47.29376928914154,31.573731165564755,85.74831623116127,54.40899785309485,48.36500685714293,40.49163364784056,26.99442243189378,2.2495352026577393,51.73930966112971,17.996281621262483,6.748605607973445,27.087990901126663,27.825213747310123,26.994422431893668,71.98512648504993,92.23094330897021,68.41694220656862
202,85,284,0,9.466666666666637,17.896095328447473,159.39396689005986,11.406567412108782,29.167066927237578,47.18981806593897,51.49988180244111,29.42329791297522,87.70113850133119,58.5482047898544,49.21426215323061,38.02920257295091,24.60713107661536,2.2370119160559625,55.92529790139827,24.607131076615246,4.474023832111811,26.937190561072903,27.670309246991856,26.84414299267121,73.82139322984585,93.95450047434923,70.24359899805938
203,85,285,0,9.49999999999997,18.15471598142205,162.5211772101396,11.259076891490736,29.360080460547195,47.34170723674297,49.7442275947145,31.845478479495526,90.52185789449477,61.17316653141108,51.7917537008575,38.280861431068615,27.02178453957788,1.1259076891491304,57.421292146602696,25.895876850428635,5.629538445745311,27.1154478517561,27.39451641652256,28.147692228726896,74.30990748383897,92.32443051022415,72.9324032946885
204,85,286,0,9.533333333333305,17.9613658936087,160.65134042742147,11.359765222293873,26.826664803395573,46.9961939244544,49.21444509723602,31.2691297653934,87.3412927052357,60.521664346922265,51.240164783888645,35.645332023574724,26.73399901768107,0.0,55.69583128683553,24.506165766207687,6.683499754420268,26.73399901768107,27.55677543626443,27.84791564341782,73.51849729862289,91.34116331041025,71.60326772746383
205,85,287,0,9.566666666666636,7.0811434810234575,157.00349906365128,15.674779286941089,29.196302522413415,44.84103008689145,49.46674173971254,33.88606468260148,85.56178222682549,56.382979666974805,52.62247332044524,38.06732112542841,29.110304390033548,0.0,51.50284622852075,20.153287654638575,11.196270919243602,26.96419104077088,27.241702890657088,26.87105020618469,76.13464225085687,94.0486757216467,72.52556794385244
206,85,288,0,9.59999999999997,5.035212258654113,157.88421707021018,15.76270764808703,29.273599917875913,42.84370950623067,47.34170723674297,34.07615004703838,83.59058979431464,54.46414794426632,51.7917537008575,36.02904605277047,27.02178453957788,2.251815378298147,51.791753700857385,20.266338404683324,13.510892269788883,27.021784539577766,27.39451641652256,28.147692228726896,74.30990748383897,92.32443051022415,70.38499151443716
207,85,289,0,9.633333333333304,5.0301136309216234,157.61201082035535,13.497211215946777,27.087990901126776,42.800326205939164,45.046907328102755,38.505840180458854,83.71777559022604,56.6418491060268,53.98884486378745,38.24209844518282,31.493492837209374,3.3743028039867795,48.36500685714293,16.871514019933556,12.372443614617964,27.087990901126663,29.588016030876922,29.243957634551464,74.23466168770767,92.23094330897015,70.31372006623448
208,85,290,0,9.666666666666636,2.249535202657853,155.36456853331885,15.906615963171886,27.087990901126663,42.800326205939164,47.29376928914154,36.062792700998024,81.2639727033801,54.17598180225344,52.86407726245852,38.24209844518282,31.493492837209374,1.1247676013289265,46.11547165448508,14.621978817275817,12.372443614617964,27.08799090112672,27.825213747310123,26.99442243189378,71.98512648504993,92.23094330897021,72.85855235158411
209,85,291,0,9.699999999999967,4.80944347558482,146.65254221252553,12.905091054420382,25.899645746621573,40.92268380552221,43.23151999205496,38.774972926037044,81.98655344586614,56.087267094224536,53.77121272675174,45.16781869047145,34.413576145121056,1.075424254534937,41.94154592686641,13.980515308955546,7.527969781745355,23.659333599770775,24.52344613152817,24.734757854305826,68.82715229024228,90.33563738094301,76.04397830342107
210,85,292,0,9.733333333333302,5.99027370144222,128.18190413712176,10.181507498472017,26.03453781484315,34.00356176650291,35.99706497435587,41.97943084421804,83.8875993796375,57.90597911394195,54.91084226322084,51.91570541249973,41.93191591009588,4.991894751201926,36.94002115889407,10.982168452644146,0.9983789502404079,19.967579004807533,21.505740748073528,20.96595795504794,51.915705412499676,83.86383182019182,70.9059948428894
211,85,306,1,10.199999999999967,33.77071536010021,167.05614868485748,16.01577715162087,25.82466468713551,45.73295603800239,47.71767177141763,35.812366423511996,111.2447094215068,85.42004473437129,68.53468705432118,75.48748139316541,67.5414307202006,35.757228028341615,39.73025336482374,13.905588677688229,21.851639350653272,14.04676578626329,14.04676578626329,13.905588677688343,65.55491805195936,85.42004473437129,72.50090894604166
212,85,307,0,10.2333333333333,36.273075973911205,167.45330434797577,16.24682710140486,26.274613792580148,44.379535229744484,48.406065819500654,36.27307597391126,114.93542658494799,88.69041576019208,70.530981060383,78.59166461014098,70.530981060383,38.28824686135067,40.303417748790366,16.121367099516192,24.18205064927406,14.106196212076611,14.670665506238537,14.106196212076611,60.45512662318538,82.62200638502003,74.31583034316375
213,85,308,0,10.266666666666634,37.335171417787784,164.0788235587912,16.56786152923962,27.002310682620816,43.68742772976244,47.81234820278944,35.206705749634125,116.0489708018949,89.07633365865071,70.41341149926825,82.839307646198,70.41341149926825,41.419653823099,39.348671131944,14.496878838084626,26.92277498501437,12.597295914653495,14.644059046356288,14.496878838084626,55.91653266118362,82.83930764619794,73.9198680815837
214,85,309,0,10.299999999999969,40.89806173554052,162.1413523432456,15.067706955199128,28.06555183520655,43.104370948396344,47.550932291816615,38.80527859331136,122.76968932774099,94.73575826665909,74.26226999348148,88.25371216616634,73.18600521096721,41.97432651805468,41.974326518054795,16.1439717377134,29.059149127883984,13.093326183514156,15.67065177333228,13.991442172684913,51.66070956068273,81.79612347108105,72.61398250495516
215,85,310,0,10.3333333333333,46.124756433419115,163.29685987339536,15.357516520547506,28.856656030705565,41.9149915932369,46.281023701285136,37.36129749278595,127.55024622050418,98.82435185458569,75.69061713698432,89.95116819177838,72.3997207397241,43.87861863013575,46.072549561642745,19.74537838356116,30.715033041095012,13.345160864231746,15.972058270861021,15.357516520547563,50.46041142465623,81.1754444657513,76.15816557223404
216,85,311,0,10.366666666666632,46.886260433838075,164.03370465730413,15.76955590303441,31.53911180606863,42.60699381165184,47.30866770910292,37.978119774387906,132.05061152349947,100.57960719079509,76.9402434158178,91.4362313057544,71.36486345814978,43.48796366981003,50.17841961901172,21.186443839138292,30.107051771406873,14.104719589667155,13.565484919471357,13.380911898403156,49.06334362747805,80.28547139041859,77.41551091630205
217,85,312,0,10.399999999999968,51.29493819849083,163.88349177628592,13.553062408034274,29.30620799930279,44.78445140923715,47.26534508044835,37.877865491041575,131.7602445603529,102.58987639698165,76.86978584946667,89.12438939068602,69.07140177778172,41.220030093192236,52.36057876702807,23.395152215055077,30.07948141935651,14.09180327731567,15.755115026816062,14.482713275986441,49.0184141648773,82.44006018638458,75.1636232682192
218,85,313,0,10.4333333333333,46.843324622111844,159.19684235181273,13.553062408034425,29.30620799930271,40.352783556699634,47.00202634592516,35.64975575627432,125.09204157338449,95.91229561831034,72.41356637993238,80.21195045161733,62.38707257348017,35.64975575627443,53.47463363441159,24.509207082438706,24.509207082438593,13.553062408034368,16.22088371448054,15.59676814337007,53.47463363441159,86.89627965591882,70.81043510716322
219,85,314,0,10.466666666666631,27.101708945128685,148.015000754315,18.145517315441055,36.08105581172162,38.525340512242764,43.29258694735676,40.57461020422553,121.86939602119143,85.79174134819739,72.02158157454755,83.27495369557062,60.76820945352449,31.509441938864597,49.51483733250143,15.754720969432242,18.005395393636945,15.914671475982106,18.559536759743633,18.00539539363683,54.016186180910665,87.77630254397985,67.70752915452412
220,85,315,0,10.499999999999966,11.47623280776352,137.29113987648137,18.145517315440944,36.08105581172162,32.224753677454295,37.11907351948715,47.47802899107226,113.09499013447103,77.05068102448527,70.89624436244515,78.77360484716132,54.01618618091061,19.130732605739126,46.138825696194544,12.378709333125357,7.877360484716064,18.145517315440998,21.351772355923675,19.130732605739126,51.765511756706076,90.02697696818444,67.70752915452412
221,85,316,0,10.5333333333333,13.553062408034274,124.9729251760412,15.755115026816096,31.51023005363227,27.560195345735885,32.441767428961185,49.22055281282505,109.99282102496508,78.49147075188289,71.29951151254875,77.98384071685018,53.47463363441159,16.71082301075353,43.448139827959494,12.254603541219353,7.79838407168495,20.17639177834983,23.26214856645647,21.167042480287932,53.47463363441159,91.35249912545316,67.6553331004388
222,85,317,0,10.566666666666633,4.447671549804568,122.12888188330311,17.929137207149665,31.449787133573267,29.669669842532766,32.3795376340042,51.58148609636628,105.36852123920063,73.92372648126967,71.162744796874,75.61041634667856,53.37205859765538,13.343014649413817,40.029043948241565,8.89534309960925,2.2238357749023407,22.34927293956719,23.217527115460683,22.238357749023123,55.59589437255778,93.40110254589706,69.0464301307525
223,85,318,0,10.599999999999966,4.954990143915085,122.11814221479001,15.669054638457048,31.102185400000806,29.56431316327347,32.2645582432941,53.59641309991297,104.99435875087049,73.96059361780809,70.910046653667,77.55786352744838,53.18253499025025,12.187664268599065,38.77893176372413,9.9717253106719,3.3239084368906333,22.269910911163564,23.13508192579472,23.267359058234547,53.1825349902503,90.85349727501097,68.80124699821727
224,85,319,0,10.6333333333333,4.950358565909862,119.83549248703825,15.654408302799723,31.308816605599556,29.536678512424796,33.86566309367637,51.35027723960081,103.01028890434308,71.70334215041798,68.6298972515109,75.27150021133457,50.91895602531463,12.17627209300997,38.742683932304544,9.962404439735451,3.320801479911779,19.924808879470902,23.113456870348706,22.13867653274542,53.13282367858909,92.98244143753095,68.73693640766642
225,85,320,0,10.666666666666632,4.972647963477503,126.50478967963068,15.724893566786617,29.24999283412252,31.840482699163758,34.52321506537614,51.19654425329646,100.68844712854344,71.47478756182925,68.93890902197154,73.38658057177622,51.148222822753155,11.119178874511476,37.80520817333934,8.89534309960925,2.223835774902227,20.13768942570872,23.9514443037012,22.238357749023123,51.1482228227531,93.401102545897,65.40497231847957
226,85,321,0,10.699999999999966,4.452008291316588,127.03835107864735,15.740226263443791,27.080509218998028,31.87152904364727,36.712200862448476,53.6092789054571,100.7866242901337,73.76105824365531,71.23213266106666,75.68414095238336,51.19809535014167,10.017018655462493,36.729068403362476,10.017018655462493,1.1130020728290901,20.15732485802672,23.24016557077851,22.26004145658328,51.198095350141614,93.49217411764994,68.28428723766011
227,85,322,0,10.7333333333333,3.1590708564586403,134.06525032872622,15.795354282293475,27.17535504889251,31.983154774083598,34.67790803196264,51.425947722658,96.70059859965008,69.5713188600117,68.13091295794732,71.4816135952234,46.90980892186542,7.818301486977589,36.857707010037075,10.052101911828345,1.1169002124253211,20.227923168758345,23.321561115176195,22.338004248507332,49.14360934671606,93.81961784373067,67.82812779145802
228,85,323,0,10.766666666666632,3.1590708564586403,138.45959261401586,15.795354282293507,27.17535504889251,36.363636363636516,39.01164727500362,49.346264265645196,94.7721256937606,67.60706866641978,65.89711253309667,67.014012745522,42.44220807216391,5.584501062126947,39.09150743488772,12.285902336678987,3.350700637276077,22.449416432156884,25.469243489908152,24.571804673357974,51.37740977156682,93.81961784373073,65.698041465669
229,85,324,0,10.799999999999963,0.0,142.07855659480072,16.17352995277532,27.47973863659941,36.16511241053476,38.7986667480674,46.70657451215,89.85836910174136,62.56097032265221,62.204945469918584,64.42655066527277,39.988893516376265,5.55401298838558,36.65648572334487,9.997223379094066,3.3324077930313933,22.326855892546003,26.003222131716907,24.437657148896506,48.875314297793125,95.52902340023206,67.4578263197902
230,85,325,0,10.833333333333298,2.204969814686592,141.01467230131786,15.591491082765714,26.824615538428986,35.89430803309894,36.365293789006394,44.319344771853366,87.0055496097149,60.183963423332514,59.53418499653924,61.739154811225944,37.48448684967286,5.512424536716594,36.382001942329566,9.922364166089892,3.307454722030002,22.159672385926683,25.140523957911075,24.254667961553082,48.50933592310611,94.81370203152557,63.48628490918408
231,85,326,0,10.866666666666632,2.204969814686592,143.99989195791773,15.591491082765714,24.65231196987212,35.89430803309894,40.657634466984724,46.77447324829704,87.36801621518248,62.715791742562764,61.739154811225944,66.14909444059924,37.48448684967286,5.512424536716594,34.17703212764286,9.922364166089892,3.307454722030002,24.65231196987223,23.748251693688673,23.152183054209672,48.50933592310611,94.81370203152551,65.55846570178748
232,85,327,0,10.899999999999965,4.940681914275501,151.23652501307978,16.085694900977067,29.061962891733522,40.32032361003657,41.277615930523545,42.039367920209564,91.55604836919314,62.49523217404543,59.657583323828476,66.28620369314274,35.35264196967614,8.838160492418979,39.7717222158858,11.047700615523922,1.1368683772161603e-13,22.20560341707899,25.192633491345713,23.200171292599975,48.609882708304724,95.01022529350467,65.69435074006805
233,85,328,0,10.933333333333298,22.159672385926683,159.15544826982483,15.591491082765714,33.72955233591078,46.77447324829718,49.3046239397445,30.869577405612972,102.02602865424714,68.49617265037853,57.329215181852646,63.944124625912536,35.27951703498627,18.742243424836374,51.816790645136166,18.742243424836488,7.717394351403186,22.159672385926683,23.020560708224217,22.049698146866376,48.50933592310605,94.81370203152551,66.95270208701254
234,85,329,0,10.966666666666631,37.34725600915624,165.1687229114428,13.340145356998693,29.259688674870134,48.694864240522165,53.360581427994994,26.317276646362302,105.83868712308231,76.883941781218,58.11731926071673,61.40697884151189,30.703489420756,19.73795748477164,59.21387245431504,30.703489420756,10.965531935984245,24.22365179568852,25.669652134421653,24.124170259165396,50.44144690552764,94.30357464946474,68.69010866695372
235,85,330,0,10.999999999999964,39.872611141444956,166.17472545109035,13.988237340926128,29.508218997120895,49.108475965381025,53.81382351970508,28.83749003642363,111.13828428615936,81.95364334534571,61.92856662768099,64.14030115009825,35.3877523586749,21.011477962963227,60.82269936647242,32.07015057504907,14.376274395711675,20.02810792380202,23.09118633037422,22.1173452241718,50.86989401559515,95.10458446393875,69.94118670463017
236,85,331,0,11.033333333333298,46.49905549752779,163.27934439849722,13.453455879926155,29.50821899712095,49.108475965381025,53.494721371611995,24.32907974658906,113.33925605646986,84.16223842911995,60.82269936647242,61.92856662768111,37.59948688109205,25.43494700779752,63.03443388888968,32.07015057504907,16.58800891812882,22.227656857231867,23.09118633037429,22.1173452241718,53.081628538012296,95.10458446393875,69.27355899112266
237,85,332,0,11.066666666666633,28.62419050671508,155.39896867185084,17.751969361656712,33.32020022881441,46.448304633572256,48.889243931891535,35.29851401706059,114.8350102143728,81.58778259464464,67.15675465037009,72.66140667089212,52.84465939701249,27.523260102610607,51.74372899290802,18.715816869775267,14.312095253357484,22.128427257519633,24.617552220738133,24.22046889029741,52.844659397012435,92.4781539447718,68.9643051829737
238,85,333,0,11.099999999999964,4.43589578401145,149.65807814339394,20.084372378431677,31.366519895112887,37.96515251561908,40.47375099493869,44.58020089756939,100.42186189215863,69.0775945303758,66.5384367601713,70.97433254418274,53.23074940813706,17.743583136045686,37.70511416409704,6.653843676017118,2.217947892005668,20.084372378431734,23.15605581333171,23.28845286605997,53.23074940813706,90.93586357223415,68.86362108539672
239,85,334,0,11.133333333333296,2.2148176946113836,153.60682859804433,20.056027235467585,26.944420168446996,37.911572166906275,40.112054470935156,42.139780566249094,91.23866155505048,64.38227799796505,63.12230429642398,66.44453083834105,50.94080697606148,16.611132709585377,32.11485657186472,5.537044236528345,1.1074088473058055,22.258642354301948,22.58679728774795,23.255585793419357,55.37044236528419,90.80752547906604,66.07436344092629
240,85,335,0,11.16666666666663,4.4388309547738345,153.71755553249858,20.097661929281937,31.38727468661371,40.01108152638516,44.884900245597755,42.22725934959334,98.05698077948708,66.73026131661173,64.36304884422134,68.80187979899517,55.48538693467344,19.97473929648254,35.51064763819102,4.4388309547738345,2.219415477386974,19.974739296482483,22.63368565593172,22.1941547738694,57.70480241206042,88.7766190954776,68.3709660831276
241,85,336,0,11.199999999999964,15.555075468042332,160.5496392245861,22.33236767585348,33.627286471074285,42.27935641381909,46.71810486460902,35.623832831245785,107.03309281639078,73.46562259890976,65.55353232960704,71.10891642533647,57.77599459558587,28.887997297792936,42.22091912754354,8.88861455316703,8.88861455316703,20.122457030845254,22.661609527701795,21.11045956377177,57.77599459558587,86.6639918933788,70.16518290289551
242,85,337,0,11.233333333333295,20.2865297014417,168.55724038832477,20.28652970144179,33.6786794640044,44.86142052413073,49.48923561398191,33.67867946400427,107.6263810229414,73.96292604480405,63.84776436024799,71.68871787817318,58.2470832760157,31.363814071700858,42.56517624016533,8.961089734771576,13.441634602157478,22.40272433692911,20.28652970144173,20.162451903236217,58.2470832760157,82.89008004663776,70.73728942667277
243,85,338,0,11.26666666666663,22.540989580928713,166.353948617759,18.082937018765666,31.480774208849333,44.91428367989652,47.154530602346334,33.71836526212861,105.51227771359123,74.05008141426663,62.801544224047575,69.53028110519551,58.315719636615654,30.27931596516578,41.49387743374575,10.093105321721964,14.578929909153885,18.082937018765808,20.310434650661502,21.307666790301937,56.072807342899694,80.74484257377554,68.61992131760982
244,85,339,0,11.299999999999963,18.299402877352133,172.74063704814765,20.55356526989406,31.85762188635932,45.39523158066754,49.93475473873423,34.046423685500486,104.43370104288103,72.63237052906777,63.553324212934285,70.36260895003443,61.28356263390094,31.776662106467256,38.58594684356717,4.539523158066686,13.618569474200285,18.299402877352104,20.42785421130037,21.562735000817042,59.0138010548676,79.44165526616791,69.03210342827362
245,85,340,0,11.333333333333297,20.3273073994543,169.5296895486172,18.068717688403808,29.448406953292395,45.17179422100958,49.68897364311056,36.1374353768075,103.91967369666388,74.53346046466561,64.3698067649384,67.75769133151414,60.98192219836278,28.2323713881309,39.52531994338335,7.905063988676716,12.422243410777583,18.068717688403808,20.45239970259652,20.32730739945424,56.46474277626186,76.79205017571616,68.69232432847434
246,85,341,0,11.36666666666663,20.341156656789522,168.53276370080675,18.110289663426396,29.288233549130133,44.92609943473576,47.172404406472424,33.694574576051764,101.10867959169505,71.88175909557708,61.77338672276153,65.14284418036664,60.650234236893084,29.201964632578097,38.18718451952532,6.738914915210444,11.231524858683883,20.216744745631047,20.34115665678944,21.339897231499435,58.403929265156364,74.12806406731386,65.7595949221431
247,85,342,0,11.399999999999965,20.221847246200127,166.2685218020904,15.728103413711324,31.456206827422534,44.993575059237585,47.23777689878691,36.020096971802786,103.3805277832973,71.93500012656064,61.788977696722895,62.91241365484507,62.91241365484507,26.962462994933617,40.44369449240037,6.740615748733376,11.234359581222293,17.974975329955726,20.346290557658534,20.22184724620024,60.66554173860055,76.39364515231182,63.551134737363
248,85,343,0,11.433333333333296,20.22184724620024,166.2685218020904,17.97497532995567,29.29562560112644,44.993575059237585,49.431182157378316,33.70307874366699,101.13419839314676,71.8999013198229,61.78897769672278,60.665541738600496,60.665541738600496,26.962462994933503,40.44369449240048,8.987487664977948,8.987487664977834,20.221847246200184,20.221847246200184,20.221847246200184,67.40615748733399,76.39364515231182,67.74234988453931
249,85,344,0,11.46666666666663,20.223442570109455,166.29682098139477,17.976393395652963,31.458688442392713,47.188032663588956,51.73095684390406,33.78055621638444,103.3886835875483,71.94067515833306,61.793852297556896,56.17622936141538,58.42327853587199,23.594016331794478,46.06450807636065,10.111721285054728,7.864672110598121,17.976393395652906,20.22344257010957,20.22344257010957,67.41147523369841,76.39967193152489,65.5121782080418
250,85,345,0,11.499999999999964,17.97497532995567,164.0831964733351,17.974975329955782,31.456206827422534,47.39781499777824,49.63502294859899,31.53635015942055,98.88789365393333,67.4435949561948,58.41866982235604,51.67805407362266,56.17179790611158,22.4687191624447,44.937438324889285,11.234359581222293,4.493743832488917,17.974975329955726,20.221847246200184,20.221847246200184,69.65302940357844,76.39364515231182,67.55578288229145
251,85,346,0,11.533333333333296,22.343230939117916,163.24325999708955,13.405938563470613,31.280523314764878,47.133097300670215,49.205861934061566,33.58924127581902,100.56936197402625,69.30004401040453,58.092400441706445,49.155108066059256,55.85807734779462,18.991746298250064,48.03794651910334,14.52310011042664,5.585807734779451,20.232656138405964,22.45466919121141,22.343230939117802,69.26401591126529,73.73266209908883,69.58759729540812
252,85,347,0,11.56666666666663,29.046200220853166,161.01084739768075,11.39285705552718,29.046200220853166,44.90933838242281,46.973953017501984,33.51484640867682,102.8031455718627,73.76650771119917,59.209561988662244,46.92078497214743,53.623754253882794,16.75742320433835,52.50659270692688,21.22606939216189,5.585807734779451,22.45466919121146,24.678905201294402,24.57755403302957,71.498339005177,75.9669851930006,67.17848255163784
253,85,348,0,11.599999999999962,33.328704667986585,157.89663147447186,7.026307880928261,26.75538329654653,46.71305928476185,49.08367670575018,35.55061831251908,102.30458697815078,75.57773205137656,58.88071158010973,46.66018653518131,53.32592746877867,14.442438689460914,52.21497064651237,21.108179623058163,7.776697755863552,22.32995576842244,24.541838352875086,24.441050089856844,71.10123662503821,73.32315026957065,66.80537269081395
254,85,349,0,11.633333333333296,17.911706231908884,155.58062443919056,17.7733898281175,35.546779656235,44.48898174317905,48.92728855808995,33.39907961680607,104.51316178915849,69.01507053182891,59.98519066989661,44.4334745702937,48.8768220273231,13.330042371088098,57.76351694138191,17.7733898281175,2.221673728514702,22.6567153890657,24.53918839384524,24.438411013661607,73.31523304098477,75.53690676949947,69.01507053182902
255,85,350,0,11.666666666666629,13.332510364265886,151.24876239137586,15.554595424976924,33.40526329562299,37.84074503680026,42.278051636359116,35.622733448992584,97.87269442008723,64.47876719000925,57.77421157848562,42.219616153508696,48.88587133564158,9.999382773199386,52.218998926708196,14.443552894621462,3.3331275910665,22.660910170856624,24.543731706451194,24.442935667820734,73.32880700346243,75.55089206417341,66.69957629062161
256,85,351,0,11.699999999999962,19.998765546398772,144.5038846192058,11.330455085428346,31.109190849953848,37.84074503680049,39.99753109279777,35.553360971375696,97.79699037801045,66.69957629062172,56.663169048130044,44.44170121421962,48.88587133564158,11.110425303554962,51.10795639635262,17.776680485687848,0.0,26.757447420672694,27.032831492856417,26.665020728531772,68.88463688204052,71.1067219427515,69.02784833991792
257,85,352,0,11.733333333333295,22.20831414476238,141.44509352365907,11.0490492529525,30.937337908267068,37.63170574093558,41.986387161219454,30.937337908267068,95.047515565472,64.12257451783792,53.03543641417207,41.98638716121957,44.19619701181011,12.153954178247773,51.93053148887691,18.783383730019295,1.1049049252952727,24.70642521634512,26.883497116511556,26.517718207085977,68.5041053683056,72.92372506948658,64.23670556249733
258,85,353,0,11.766666666666628,19.77902557490097,138.45317902430656,15.383686558256272,33.038217060322644,39.55805114980194,41.75572065812412,28.65410468899088,96.7973008898018,63.77029533800018,53.84290295389701,46.15105967476882,46.15105967476882,17.581356066578564,50.54639869141363,15.383686558256386,4.395339016644584,24.570692063436372,24.57069206343626,25.273199345706757,68.1277547579922,74.72076328295918,66.0764341206453
259,85,354,0,11.799999999999962,19.77902557490097,138.45317902430656,15.383686558256272,30.76737311651266,39.55805114980194,41.75572065812412,28.65410468899088,94.52533970025159,63.77029533800018,53.84290295389701,46.15105967476893,46.15105967476893,17.581356066578678,48.34872918309122,15.383686558256272,4.395339016644698,26.735803478403948,26.735803478403948,26.37203409986796,70.32542426631454,74.72076328295924,66.25891564490796
260,85,355,0,11.833333333333297,17.816056590189746,143.65463781998338,15.46866895413359,35.356957609448045,41.986387161219454,44.251407772888875,28.727528057676523,97.2567416596934,61.91412413154983,53.03543641417207,44.19619701181011,41.98638716121957,14.363764028838318,54.14034133946734,16.57357387942875,1.1049049252952727,26.609634317032473,26.88349711651167,26.51771820708609,68.5041053683056,75.13353492007707,66.6249424342868
261,85,356,0,11.866666666666628,15.468668954133477,152.47687969074468,15.468668954133477,33.220726423775055,44.25140777288887,46.406006862400545,28.727528057676636,92.83831725763051,59.66486596594359,51.93053148887691,37.56676746003859,37.56676746003859,8.839239402361954,55.24524626476261,17.678478804724023,4.419619701180977,24.408147579108764,24.706425216345078,25.412813281790704,66.29429551771511,72.92372506948664,66.6249424342868
262,85,357,0,11.89999999999996,20.01067927914684,159.10630924251632,13.258859103543045,33.147147758857614,48.6660137492985,50.825626563581636,26.51771820708609,92.83831725763051,59.7057743464548,49.72072163828636,30.937337908267068,30.937337908267068,4.419619701180977,61.874675816534136,24.307908356495545,6.629429551771523,24.706425216345078,26.883497116511556,26.517718207085977,68.5041053683056,75.13353492007712,71.02398990318078
263,85,358,0,11.933333333333294,28.57099730132734,158.2393696688896,8.791076092716025,28.655402203977165,46.2054476899252,50.54868753311757,26.46464355495019,92.4108953798504,63.77318298410801,49.449803021528055,30.76876632450626,30.76876632450626,4.395538046357956,61.537532649012746,28.57099730132734,4.3955380463580696,26.46464355495019,26.737014128886994,26.373228278148304,68.13083971854974,74.72414678808684,68.4491272323315
264,85,359,0,11.966666666666628,26.517718207085977,156.89649939192577,11.0490492529525,28.727528057676636,48.61581671299109,53.08145415507631,24.408147579108764,90.62914876815185,61.91412413154972,48.61581671299109,28.727528057676523,28.727528057676523,4.419619701180977,61.874675816534136,30.937337908267068,4.419619701180977,26.60963431703245,24.706425216345078,25.412813281790818,68.50410536830555,75.13353492007707,66.88098213545034
265,85,360,0,11.99999999999996,28.571428571428555,160.4395604395604,9.06177060575309,28.571428571428555,48.40157262757184,50.597206299873974,26.465043030312746,92.41229029287308,63.88765649999396,49.450549450549374,30.76923076923083,30.76923076923083,4.395604395604437,61.53846153846143,28.571428571428555,4.395604395604323,26.465043030312764,27.185311817259212,26.37362637362628,68.13186813186809,74.72527472527469,64.07639444884943
266,85,361,0,12.033333333333294,28.571428571428555,160.43956043956064,8.79120879120876,28.571428571428555,48.35164835164824,52.74725274725279,26.373626373626394,92.30769230769226,63.73626373626371,49.450549450549374,30.76923076923083,30.76923076923083,4.395604395604437,61.53846153846143,28.571428571428555,2.1978021978021616,24.275518719092943,26.737417715596578,26.373626373626394,68.13186813186809,74.72527472527469,68.45016045009852
267,85,362,0,12.066666666666627,28.729281767955854,161.34110274867587,11.049723756906019,28.72928176795574,50.82872928176812,53.038674033149164,26.611258737662514,95.05331786787426,66.33516472841384,51.93370165745853,33.14917127071817,30.939226519337012,5.524861878452953,62.98342541436466,29.83425414364649,1.104972375690636,26.611258737662514,26.885138255461722,26.519337016574582,66.29834254143645,75.13812154696132,66.88506497423903
268,85,363,0,12.09999999999996,31.0175793137037,159.12893958276192,8.83964409546968,28.728843310276147,46.408131501215394,48.618042525082956,28.813714524160364,97.33648371919276,68.6496685916348,53.037864572817625,35.35857638187838,33.148665358011044,5.524777559668564,62.98246418022086,29.83379882220993,1.1049555119336674,26.610852604615022,26.88472794254722,26.518932286408926,68.50724173988937,77.34688583535899,64.4294243602956
269,85,364,0,12.133333333333294,11.329581030988994,155.53395511727103,15.553395511727103,33.328704667986585,44.43827289064893,48.93257216030389,31.106791023454207,91.12555190506875,57.81246807588434,52.21497064651237,35.55061831251908,35.55061831251908,4.4438272890648705,55.54784111331105,19.997222800791974,8.887654578129741,26.755383296546512,27.483553942225093,26.662963734389336,68.87932298050578,75.54506391410314,67.24730941296956
270,85,365,0,12.166666666666629,0.0,152.44896545123152,17.67524237115731,28.722268853130572,41.97870063149844,46.397511224287655,33.1410794459199,79.53859067020778,50.81632181707721,50.81632181707721,35.35048474231462,35.35048474231462,2.2094052963947206,44.18810592789316,11.047026481973262,11.047026481973262,24.403679131964623,26.878575502303804,26.512863556735965,68.49156418823435,77.329185373813,64.41467999746826
271,85,366,0,12.19999999999996,0.0,153.3399704092849,15.554595424976924,28.887105789242696,42.27805163635911,44.49721866399096,35.553360971375696,79.99506218559532,51.10795639635262,51.10795639635262,37.775446032086734,35.553360971375696,1.111042530355462,43.33065868386416,9.9993827731995,9.9993827731995,26.757447420672694,27.032831492856417,26.665020728531772,66.66255182132954,75.55089206417347,66.99503543908877
272,85,367,0,12.233333333333292,2.222085060711038,153.3399704092849,15.55459542497681,26.665020728531772,44.44170121421962,46.66378627493077,33.33127591066477,77.77297712488439,51.10795639635262,49.99691386599716,37.775446032086734,35.553360971375696,3.3331275910663862,41.108573623153234,9.9993827731995,9.9993827731995,26.757447420672694,27.032831492856417,26.665020728531772,68.88463688204052,75.55089206417347,67.25249740793278
273,85,368,0,12.266666666666628,2.2099110238674484,152.49987365405119,15.469377167071798,26.518932286408813,41.9883094534805,42.04642478849599,33.14866535801093,77.34688583535899,50.82795354895018,49.72299803701651,37.56848740574583,35.35857638187838,3.314866535801116,40.88335394154694,9.944599607403347,9.944599607403347,24.409265074477325,26.88472794254711,26.5189322864087,66.29733071602203,75.13697481149165,69.07518714084108
274,85,369,0,12.29999999999996,2.2219136445323784,155.549825119365,15.553395511727103,26.662963734389336,46.66018653518131,46.71305928476185,33.3287046679867,77.76697755863552,51.10401382424618,49.99305700197999,37.77253195705157,35.55061831251908,3.3328704667985676,41.10540242385025,9.998611400396044,9.998611400396044,24.541838352875086,29.64402542485038,27.77392055665564,66.65740933597334,75.54506391410308,69.4503530455604
275,85,370,0,12.333333333333291,0.0,155.48507114787003,17.7679094574072,26.651864186110856,44.419773643518056,46.6936130648317,33.31483023263843,77.73460387615648,51.08273969004563,51.08273969004563,39.977796279166114,37.75680759699026,5.552471705439757,38.8673019380783,7.773460387615614,7.773460387615614,26.744245274848414,27.01949347231194,26.651864186110743,64.40867178310111,75.51361519398057,67.21931497225877
