,video_id,frame_seq,time_seconds,m1,m3,m4,m5,m6,m7,m8,m9,m10,m11,m12,m13,m14,m15,m16,m17,e1,e2,e3,b1,b2,b3
0,248,0,0.0,31.7732811864471,175.57889127293757,21.0526315789474,31.57894736842104,42.10526315789457,45.614035087719,35.08771929824559,119.34983404698208,87.7894456364688,71.9298245614035,59.649122807017534,66.66666666666663,28.070175438596493,56.140350877192986,24.561403508771946,7.017543859649095,21.0526315789474,21.0526315789474,21.0526315789474,66.66666666666663,66.66666666666663,80.77799602260613
1,248,1,0.0333666666666666,31.5777324898022,175.7473408012842,21.051821659868097,28.069095546490757,42.24958359552854,45.74702879963642,35.08636943311353,115.78501912927459,87.71592358278383,71.92705733788273,56.13819109298163,66.66410192291573,26.314777074835206,54.38387262132585,22.80614013152376,5.262955414967109,21.342205331194354,17.543184716556766,17.543184716556766,70.17273886622706,63.1554649796044,80.77488839969833
2,248,2,0.0667333333333332,31.847185598613123,180.60609944136274,21.231457065742006,28.308609420989455,42.46291413148447,46.13738865631413,35.385761776236905,116.77301386158149,88.46440444059203,72.54081164128547,60.15579501960258,67.23294737485003,28.308609420989455,53.07864266435513,21.231457065742006,7.077152355247449,21.524318583855163,21.23145706574212,21.231457065742234,70.7715235524737,67.23294737485003,81.3872520853447
3,248,3,0.1000999999999998,31.847185598613123,180.77934274205015,21.23145706574212,28.52891320599121,39.084851368672304,46.13738865631413,31.847185598613123,113.28971444472342,84.92582826296837,69.0022354636618,56.61721884197891,67.23294737485003,30.077897509801346,51.30935457554335,19.46216897693023,5.307864266435558,21.23145706574212,21.231457065742006,19.462168976930116,70.7715235524737,63.69437119722636,81.46414133450551
4,248,4,0.1334666666666664,28.060460894115067,175.69327717136525,24.5529032823506,28.060460894114954,42.23658672262331,49.23091710266728,31.568018505879422,112.24184357646004,84.18138268234509,70.15115223528755,59.628479399994376,70.15115223528755,33.32179731176154,47.35202775881908,15.784009252939654,8.768894029410944,21.33564001370266,17.53778805882189,19.29156686470401,70.15115223528744,63.13603701175873,80.7500403214663
5,248,5,0.166833333333333,31.559526119739985,175.64601240080134,21.329900328346927,24.5462980931311,42.225224292523876,49.2176730671586,35.241034684989316,112.21164842574228,87.66535033261118,71.88558727274119,59.61243822617564,70.13228026608897,29.806219113087764,47.33928917960998,19.286377073174435,8.766535033261107,21.329900328346927,21.039684079826657,19.286377073174435,73.6388942793933,63.11905223947997,77.22516294302655
6,248,6,0.2001999999999996,35.663147581074554,178.88543819998338,21.3978885486448,25.217653493034486,42.9441164574936,50.055612951169664,35.663147581074554,117.74240969058522,92.72418371079391,74.89260992025663,64.19366564593429,78.45892467836416,35.66314758107467,46.3620918553969,17.831573790537277,14.265259032429867,21.6930457818655,21.3978885486448,19.614731169591096,71.32629516214922,60.62735088782688,82.10273141354303
7,248,7,0.2335666666666662,39.24662479096378,175.7336892600109,21.70253624719527,24.975124866977012,42.962904028978656,46.9280685224084,32.110874828970395,117.79392068024684,92.83333713044618,73.14143711043255,60.65387467694404,78.49324958192767,37.46268730046552,48.166312243455536,19.62331239548189,12.487562433488506,21.70253624719527,21.70253624719527,19.62331239548189,71.35749961993417,60.653874676944156,82.37079028424985
8,248,8,0.2669333333333328,39.0238193961346,170.17425192460698,24.73135421720292,28.2644048196604,46.065343970487845,46.47002533674733,31.79745542211799,123.70723294124109,95.45777070754247,75.9605879528375,67.12796144669346,81.26016385652372,42.39660722949054,49.46270843440584,17.66525301228785,17.66525301228762,21.490707822276352,21.198303614745328,19.43177831351659,70.66101204915105,56.52880963932091,88.60845832053306
9,248,9,0.3002999999999994,38.66057581712263,158.12841041604278,24.50114851825583,28.001312592292265,42.147556738802045,45.63655610012592,28.21922492621737,119.21129272180666,91.27311220025184,71.75336351774922,66.5031174066944,80.50377370284059,45.502132962475116,45.502132962475,14.00065629614619,21.000984444219284,21.290666879445475,21.000984444219284,21.000984444219284,70.00328148073083,56.002625184584645,80.57982830053278
10,248,10,0.333666666666666,46.27939258695835,157.00160811435998,21.35971965551937,28.701260882365844,42.86751406807065,42.86751406807065,28.70126088236573,124.80162476728594,96.18464091794927,72.97904215635754,71.19906551839756,81.87892534615719,48.05936922491844,48.05936922491833,16.019789741639443,23.139696293479233,21.654350396377797,21.654350396377872,21.359719655519257,74.75901879431751,56.959252414718094,82.1879035208251
11,248,11,0.3670333333333326,42.34378477355813,141.5423655487505,24.951314462072293,31.953273277580728,38.81513604242855,42.490557431235445,24.951314462072116,123.95555874888018,92.01590118038784,70.57297462259692,70.57297462259692,81.15892081598645,51.16540660138287,47.63675787025295,15.87891929008424,26.464865483473886,17.992648736645524,21.171892386779064,21.171892386779064,74.10162335372672,59.987028429207385,77.95039827633782
12,248,12,0.4003999999999992,45.83855759449261,137.69637676785172,21.15625735130436,31.929676399601835,35.26042891884026,42.45917897149997,24.932888396058274,123.61282516904943,91.74489864755355,68.75783639173892,74.04690072956498,81.09898651333299,52.890643378260734,45.83855759449261,14.104171567536241,28.20834313507237,21.448081582976634,21.448081582976748,21.156257351304248,74.0469007295651,56.41668627014485,81.40502151213629
13,248,13,0.4337666666666658,42.27803351530042,134.29700882276995,24.912570161584245,31.90365636367729,35.40741486119591,38.91467860610293,24.9125701615842,123.76308105706863,91.87301926006158,70.46338919216737,73.9865586517758,84.55606703060084,54.6091266239298,44.039618245104634,8.80792364902095,26.42377094706285,17.615847298041786,17.96470982423724,17.6158472980419,73.9865586517758,56.37071135373401,77.58975882770733
14,248,14,0.4671333333333324,35.2316945960838,130.7850616494843,24.662186217258522,35.40741486119579,31.90365636367754,38.91467860610338,28.404700274296363,123.51209097708998,88.14967171657152,70.46338919216737,73.9865586517758,84.55606703060084,51.08595716432137,44.039618245104634,5.284754189412524,22.900601487454423,21.430603176796822,17.6158472980419,17.6158472980419,73.9865586517758,52.847541894125584,77.82935721220585
15,248,15,0.5004999999999991,17.96470982423724,134.620116030373,28.185355676866948,35.231694596083685,31.90365636367753,38.91467860610338,31.90365636367729,112.9614061804669,77.82935721220605,68.70180446236327,70.46338919216748,84.55606703060096,45.80120297490885,35.231694596083685,0.0,17.6158472980419,21.430603176796822,17.6158472980419,17.6158472980419,73.9865586517758,56.370711353733896,77.82935721220585
16,248,16,0.5338666666666656,7.040060826388299,138.00135465560015,28.37939247302106,31.87523108943011,35.37586783516375,38.88000670520834,35.37586783516408,102.62564003863774,70.75173567032805,66.88057785068895,66.88057785068895,80.96069950346566,38.72033454513564,28.16024330555331,7.040060826388299,10.560091239582448,21.411509102887624,17.94870376531702,19.360167272567764,73.92063867707725,52.80045619791224,77.76001341041668
17,248,17,0.5672333333333321,7.924288517503376,142.8571428571429,24.806946917841742,32.09092263462673,35.61524729486533,35.61524729486533,39.621442587516256,103.74464484675774,71.66992191991199,67.33314163414173,63.78929207445003,81.50853987290839,33.66657081707092,30.122721257379226,5.315774339537484,8.859623899229177,21.55639531470631,18.070158058105054,17.719247798458355,74.420840753525,53.157743395375064,78.6862298178746
18,248,18,0.6005999999999987,7.787349602179164,139.99913367140775,24.37826030504027,34.999783417851965,31.53636229427263,38.466669434305366,38.936748010896274,105.40286283126308,70.43140046181615,66.16956368510921,66.16956368510932,80.0999981451323,34.82608615005756,31.34347753505176,3.4826086150058018,10.447825845017292,21.183881191050695,21.18388119105081,20.895651690034583,76.61738953012662,52.239129225086344,77.32646017566636
19,248,19,0.6339666666666652,17.564821274187125,141.61211641529457,21.36852733960211,35.30485382255989,35.30485382255974,38.801958435153864,39.27613438171706,113.28969313223583,78.00046476074615,68.50280296932999,66.74632084191126,84.31114211609838,36.886124675792985,36.8861246757931,1.7564821274187352,12.295374891931033,22.217936768084893,17.564821274187125,17.564821274187125,77.28521360642355,52.69446382256149,71.04530528478342
20,248,20,0.6673333333333318,21.16063522606805,137.2688973153925,21.16063522606805,34.96137668150385,34.96137668150398,38.89402107749643,34.96137668150385,112.18750984311228,77.24160659433898,66.09695303616957,62.61816603426587,83.49088804568794,38.26665702094033,38.266657020940215,0.0,13.915148007614675,21.16063522606805,17.738402806339646,17.393935009518373,80.01210104378413,52.18180502855489,73.79621638049068
21,248,21,0.7006999999999983,17.329174830334523,140.1843488113125,24.50715406979358,35.344720245734706,34.83121033230414,38.74921291460622,38.74921291460644,115.67792088977646,80.38944248135111,71.04961680437157,62.385029389204306,83.18003918560578,34.658349660669046,41.590019592802946,3.46583496606695,10.397504898200737,21.919864974047684,21.081851067789184,20.79500979640136,76.24836925347199,48.52168952493673,73.52146220938096
22,248,22,0.7340666666666649,21.26381912589628,144.8523532127411,24.718687640611176,35.131856024435706,35.64979830016068,42.094408229061635,35.13185602443582,116.20412541169799,81.08332418526842,69.91500661083296,59.42775561920803,80.4022576024579,34.95750330541648,45.4447542970413,6.991500661083251,6.991500661083364,18.825191654561582,21.263819125896354,20.974501983249866,76.9065072719161,48.94050462758298,74.15606292183335
23,248,23,0.7674333333333314,34.95750330541648,152.29600509819326,21.263819125896354,32.22922558402497,39.083676857292225,45.579007925710236,39.08367685729232,127.05501628574032,94.9660967694773,76.9065072719161,59.427755619207915,83.89800793299946,33.20962814014558,54.18413012339556,19.22662681797908,8.739375826354035,18.825191654561664,20.974501983249866,19.226626817978968,80.4022576024579,48.940504627583095,74.15606292183335
24,248,24,0.800799999999998,38.83342130987704,160.69226015022616,21.38585417891177,35.333481042363736,42.77170835782399,46.24329704542784,35.333481042363736,130.84303998487866,95.51111610891599,75.5899745479727,52.737191545097176,80.86369370248246,31.642314927058237,63.284629854116815,24.610689387712114,7.031625539346237,22.235952357744182,21.38585417891177,21.094876618038825,80.86369370248235,45.70556600575094,78.61596349150985
25,248,25,0.8341666666666645,42.33599198734489,164.15495106893692,21.385854178911885,31.837038702971995,43.488202227773634,46.243297045427816,38.833421309876925,134.33901730264105,102.50267565623473,80.86369370248246,52.737191545097176,80.86369370248235,28.126502157385175,66.80044262378988,31.64231492705835,3.5158127696730617,21.38585417891177,21.38585417891177,21.09487661803894,80.86369370248246,49.221378775424114,78.61596349150985
26,248,26,0.867533333333331,42.03505591005869,170.47936536047106,21.23383754332811,31.61073212339449,43.17907591769258,49.980956007688704,35.08232077228124,129.9129710448379,98.30242284213374,76.79807055205163,45.3806780534851,76.79807055205163,26.18116041547205,68.07101708022765,29.671981804201778,1.7454106943647503,25.413563313802417,20.944928332377685,20.944928332377685,80.28889194078124,48.8714994422146,77.50881334551546
27,248,27,0.9008999999999976,43.21288591770705,168.2070903424352,21.531809081405527,33.08557851199351,40.91673262090853,47.878360576169314,36.59703822301345,133.9863809861352,101.05687483324651,78.94996663181996,46.652253009711785,78.94996663181996,26.91476135175685,69.97837951456779,30.503396198657697,1.7943174234504795,22.696519613712884,21.531809081405413,21.531809081405413,86.12723632562177,53.82952270351359,76.71625075189029
28,248,28,0.934266666666664,42.46082873658033,157.69555903034336,14.53881217197904,28.428971199843062,39.423889757586174,43.61643651593685,38.94792997851672,124.21966564985706,95.79275111240057,74.04977784575249,49.366518563834916,77.57595774316917,24.683259281917458,59.945058256085304,24.683259281917458,7.052359794833592,22.301519830671744,21.157079384500662,21.157079384500662,81.10213764058597,45.84033866641812,78.29389964608012
29,248,29,0.9676333333333308,39.28986077032498,151.46053151158904,10.671410570244234,32.79518139146373,39.769999084793234,40.55760027778515,39.28986077032498,121.7767502763509,89.21253850492482,69.36416870658718,56.914189707968944,81.8141477052053,30.235663282358587,51.578484422846714,16.007115855366123,16.00711585536635,22.497308832511873,21.342821140488354,21.34282114048824,81.81414770520519,49.79991599447271,75.45826779045433
30,248,30,1.0009999999999972,39.34434896399329,147.60042079504353,14.248279944049273,32.84066259602909,36.32612873492009,39.82515314667651,36.326128734920005,122.4129592534222,89.6906304975519,69.46036472724018,60.555189762209466,81.92760967828337,35.62069986012318,49.868979804172454,10.686209958037011,17.810349930061534,25.18763842170376,25.18763842170387,24.93448990208617,85.48967966429564,53.43104979018483,76.1483588888108
