,video_id,frame_seq,time_seconds,m1,m3,m4,m5,m6,m7,m8,m9,m10,m11,m12,m13,m14,m15,m16,m17,e1,e2,e3,b1,b2,b3
0,223,0,0.0,22.815501965732025,151.2150286953639,22.815501965732036,43.12776100385452,38.54171455802201,43.73072019744222,40.80194352570683,129.53651906381288,86.41177381398577,74.32674565706373,90.70382520862017,62.98876750598623,36.53348515347204,51.65078935490874,10.07820280095774,17.6368549016762,24.067974269987626,23.534545726154928,23.30584397721492,44.09213725419036,89.44404985850045,76.6912495324136
1,223,1,0.0333666666666666,21.75713172881685,149.8182052320704,24.079082869608378,44.27423735541652,36.091126299433384,42.27365223734495,39.79615267237695,129.76167466699238,85.57442148867271,73.73087284671368,88.22497605589672,61.75748323912768,35.92016882275789,53.56516403393732,10.713032806787453,15.754460009981528,24.24344711809906,22.011185245740908,22.05624401397415,45.37284482874685,90.7456896574937,72.75217901921025
2,223,2,0.0667333333333332,28.36237532076777,165.42341729161683,28.019959846938285,49.72726015187416,41.29624181124142,46.292401377973135,34.82918166458747,140.81569454098448,91.13109690179242,76.10423906471908,96.3987028153108,64.68860320501119,46.296745431037436,58.9807852751573,12.049837851913878,22.197069727209737,24.232824096674157,23.69574191743311,22.831271719415668,44.394139454419474,88.78827890883892,74.76055291056377
3,223,3,0.1000999999999998,50.642342317029076,166.03246493442876,22.988742888904742,40.80194352570683,42.25414978869445,48.67691097044392,36.879372017203146,151.26224978075211,110.47303265048774,84.40494845802158,97.00270195921883,62.98876750598623,43.46224957913057,69.9175319316447,30.864496077933268,25.825394677454426,23.968860708479212,22.32327607878269,22.675956302154987,42.83236190407064,88.18427450838072,75.16542290613835
4,223,4,0.1334666666666664,53.24910548377395,167.3255793511174,24.27745609931219,43.20819470244802,45.31362164476584,51.48479364649762,32.449129091145416,152.9672400344759,109.77584318962833,82.03811483024668,95.92148810921145,63.10624217711279,47.9607440546057,71.94111608190872,31.55312108855651,29.02887140147186,24.112861278798803,22.364909208301786,22.718247183760695,44.17436952397895,89.61086389150017,76.53306923653658
5,223,5,0.166833333333333,50.70575347129487,161.7878533800283,22.844070101576634,44.59555455762813,42.30705777612237,48.73786113525681,33.39608604490029,151.45165085140954,106.85824457174007,80.72657673849227,94.6014571154206,64.32899083848599,46.67005217694083,70.63575464618066,27.749760753856663,27.74976075385672,24.09811067283696,23.56401420334887,22.704349707700942,44.14734665386294,89.55604606926482,75.56545323010666
6,223,6,0.2001999999999996,28.006576352665164,154.3598962706689,27.864193242447396,48.19622134567392,37.35393502684503,43.78547705341928,34.8872935840123,138.7832000356722,90.62448727046323,75.68116569233649,94.6014571154206,64.32899083848599,45.40869941540183,58.02222703079133,12.613527615389444,21.44299694616194,25.352876735647442,24.78164975481209,24.596378850009387,44.14734665386294,89.55604606926482,74.03399332907412
7,223,7,0.2335666666666662,3.58091511851706,142.7939013960816,33.01440613296015,48.25939135804664,33.782285663586165,38.73351921869229,39.57275761973989,123.59345801346475,75.38017701123006,73.43059153154826,91.15521707364616,65.83432344207779,39.247385128931,44.31156385524457,1.266044681578478,11.39440213420579,25.604169123855144,24.87383135748606,24.054848949989946,43.04551917366621,88.62312771048926,78.30053923348939
8,223,8,0.2669333333333328,4.564789016459477,150.49432178055716,31.75223907677431,44.60000669808778,39.75460939126996,42.7090748727588,39.5727576197399,119.97401734984929,75.38017701123009,72.79756919075908,92.42126175522452,65.83432344207779,39.880407469720126,39.88040746972024,1.8990670223676034,12.027424474994916,25.447183161289413,23.65166650318318,23.421826609200764,44.31156385524463,89.88917239206768,74.01761078286536
9,223,9,0.3002999999999994,4.564789016459477,153.21233140025853,31.878190539417368,45.85808877513256,38.73351921869228,41.47141886483952,42.08527527541035,123.90432027270975,78.06477089015826,75.32965855391586,91.15521707364616,63.30223407892095,35.44925108419574,45.57760853682305,1.2660446815783644,8.862312771048948,25.35252499134854,23.65166650318318,23.421826609200707,46.84365321840144,91.1552170736461,75.53948717909506
10,223,10,0.333666666666666,19.703311607341462,161.3135109952041,30.566428796034813,47.23409417629836,41.322219194329676,46.321521593080384,38.60126799423368,135.87575201226323,88.68079790143942,78.05591521354296,93.92093863092975,64.72929554293808,41.24906088520561,55.210281492506,9.519014050432077,15.865023417386794,25.51064193134516,24.64344273986474,24.114835594427916,43.15286369529207,90.11333301075695,74.80758100410605
11,223,11,0.3670333333333326,27.097538984818364,160.09557202258713,29.264112268067375,49.694540984107824,42.51557048829559,47.73202563138264,36.05338203598403,141.9790909991933,92.32396418688775,77.95551868549057,95.06770571401285,64.64603988552875,44.36492933320602,60.84333165696819,12.675694095201663,19.01354114280258,25.477829813630755,23.680150771796377,23.45003407612319,44.36492933320599,89.99742807593213,75.63046119326974
12,223,12,0.4003999999999992,13.249255961023632,160.28239078457588,31.82757601219777,49.752530549384055,38.82542028522946,45.2963236661012,36.34002046004662,130.83515246159536,81.15959951021324,73.60481659073042,92.64054501936761,62.18337953354808,41.87860254300176,52.03099103827492,5.076194247636579,15.228582742909737,25.664918843935993,23.40009926996997,23.477398395319142,44.41669966682005,90.10244789554926,72.02339742923752
13,223,13,0.4337666666666658,4.527991905350898,159.39263726469355,30.244608169258473,41.7460226736453,38.42128537717729,42.36479377504126,39.253758613706076,115.27069732547994,73.52827413377904,70.95490345492465,86.65289094495228,59.02443296250368,33.907652978459566,41.442686973672835,2.511677998404423,8.790872994415452,26.491952710269494,24.38398265568578,23.860940984841932,45.21020397127944,91.6762469417611,74.01996453876721
14,223,14,0.4671333333333324,2.822196946251796,159.976502127501,30.395991347514993,40.7023031966746,42.33295419377665,45.049194440685426,36.94815240886055,109.59430537202516,68.89860796595215,67.5236791295107,84.56236451733116,58.057742802943835,34.708433197412035,37.23268288449657,1.8931872653133723,9.465936326566919,25.36839539185267,24.50603167587185,24.611434449073954,47.960744054605755,94.65936326566924,75.30560715938874
15,223,15,0.5004999999999991,14.31037713125714,162.4570858370006,27.867811396488356,41.72156032472733,43.33287765990322,48.49637831067224,37.98631277519546,121.7644081800985,80.0614124962498,72.1684283780927,89.11232025816662,57.734742702474136,35.770438413489444,47.066366333538724,8.158170164479998,13.178582573390884,26.62475744020433,25.59918083931951,25.102062044553918,45.18371168019718,91.62252646262203,73.97659029414524
16,223,16,0.5338666666666656,29.49986628674626,166.28693359535262,29.17328944000259,49.54031116465473,43.864715787884414,50.307927874578496,35.941488325086034,144.0433547725499,94.53648482535446,78.97721475899749,98.56356401922886,65.70904267948589,46.75451113732652,60.654500934910004,12.6363543614396,22.745437850591316,26.656418727729296,25.77320698786148,25.272708722879088,45.49087570118252,92.245386838509,73.25816778028252
17,223,17,0.5672333333333321,28.200779529671504,164.98299616352307,29.116536673211943,45.8381962819914,42.8243485155712,47.74184586700166,39.82205705844176,142.869724831535,97.03691131935668,81.97651806087902,99.63299887399137,65.58121444870324,43.51061343231271,58.644739843551974,15.764715011707494,19.548246614517268,27.860314981980952,24.77820053625042,24.592955418263728,46.663556434654225,92.06593566837185,74.02368895359814
18,223,18,0.6005999999999987,4.544642043021837,160.92930266909283,31.73749421025048,39.57915000934859,41.288382240084566,44.3315438113873,41.899529358122145,116.24939327253053,76.670601028559,74.3669580746103,93.27381182239259,60.50193199290328,35.29279366252695,37.81370749556447,2.520913833037582,10.083655332150556,25.33487047359133,24.47364639110505,24.57890987211698,45.376448994677446,92.01335490587374,72.75795804686408
19,223,19,0.6339666666666652,2.823898399205849,160.7440758103232,30.414316556653663,37.16404789144043,41.36794296886692,44.11070311438172,39.47401909902139,108.59348934246701,71.43960657915137,70.09015948216614,89.66488870691518,59.355630552465016,35.36080118019191,32.83502966732112,1.2628857564354234,11.365971807918811,25.38368955172241,24.520805931808617,24.626272250490842,46.72677298811075,92.19066021978608,73.83292844492861
20,223,20,0.6673333333333318,2.5242496870845343,161.8868847483803,29.13841470166037,38.198829230081074,41.09180779580961,45.049194440685426,41.95497382145121,109.59430537202518,71.39656284581918,70.67899123836634,90.87298873504244,60.58199249002831,34.07737077564087,32.81524593209872,2.5242496870844775,10.096998748338024,26.773711067182205,24.50603167587188,24.61143444907401,46.69861921106346,92.13511357858468,73.78844268926319
21,223,21,0.7006999999999983,5.351466546915355,163.02709968267595,30.377397150583974,40.85303315183551,42.30705777612236,46.259155972211325,40.677404300220395,116.13353718331453,75.28067767074954,72.52778378848905,90.81739883080377,60.54493255386916,35.31787732309033,39.10193560770722,1.2613527615389444,10.090822092311498,26.60826565418445,25.72664937844484,25.22705523077883,45.40869941540191,93.34010435388166,74.03399332907412
22,223,22,0.7340666666666649,24.291608278242588,172.1432304845144,28.040055362101054,45.8993796535325,44.84488869273666,48.79612228407728,38.40840509392388,136.62844203783305,90.73281961449017,77.66592568789662,93.45168294153422,61.88016843425913,39.7801082791666,57.460156403240546,14.522896673346452,17.048617833928574,25.38318351748223,24.811273692973327,24.625781315674544,45.4629808904761,93.45168294153422,75.65578403276754
23,223,23,0.7674333333333314,55.72173784009217,179.3614107402883,24.259710168597106,38.17090728578258,47.49226270196554,53.92285045609407,34.883131374449015,152.85542658778618,114.68622082332614,85.76175480435239,94.59017074009449,63.06011382672966,44.77268081697804,72.51913090073913,37.2054671577705,25.854646668959163,23.996009835088103,24.778693193582924,24.5934443924246,44.14207967871073,90.8065639104907,78.93353115888242
24,223,24,0.800799999999998,54.567880436459895,181.74113083443248,23.101296108822744,38.502160181371266,50.16075403170681,55.36964194860498,32.54729946593287,148.41800930460587,109.92586786181414,81.65333824323045,93.67979891471407,59.499331743129176,44.940984614491185,70.25984918603558,34.81343878587347,27.21777941441013,25.350493396582714,24.871838122271473,24.685892957255703,48.10584268593425,94.94574214329128,81.05991770116775
25,223,25,0.8341666666666645,46.79413564961701,174.78332428441058,21.57747544589808,39.401622224798984,51.18905931373779,56.37438521150332,31.18476904260064,138.69702818435772,99.29736266886631,75.0038897259949,90.7610094163299,56.725630885206215,43.48965034532472,63.65876354895369,27.102245867376325,27.10224586737627,25.337134885597113,23.549383075605878,23.320537141695866,47.90164385861854,95.80328771723711,79.18544494182386
26,223,26,0.867533333333331,41.7236344387835,173.5059776528675,22.856460245327707,41.952050202655144,51.046233222993735,55.198787198151855,27.56330179130014,133.68658574952576,91.73888453330203,70.0430475493066,85.81850870906032,53.00554949677257,42.90925435453016,63.101844639014985,23.978700962825656,25.24073785560597,25.366627603415765,24.795090801065484,23.978700962825656,46.69536503287105,93.39073006574213,80.21631978409226
27,223,27,0.9008999999999976,40.68781712618486,172.0611991172732,20.412721207005507,44.59643272901787,45.185484579311115,50.66936783979812,29.796764772726583,135.35532251534542,90.76910056995048,69.62687757174695,86.08413954325079,50.63772914308868,39.24424008589375,65.8290478860153,24.052921342967068,24.052921342967124,25.350493396582706,25.22374013540144,24.052921342967124,48.10584268593425,94.94574214329128,79.5230027727266
28,223,28,0.934266666666664,43.104078980064706,170.14908225399398,21.61669113576609,40.72602999388781,45.07545519295649,51.77728379193107,28.79765197948473,133.94659200254196,93.22956508870158,70.72019249629608,84.61165887949716,50.514423211640064,39.78010827916654,65.03731988498669,28.414363056547586,23.36292073538351,25.383183517482287,24.811273692973327,24.625781315674544,46.72584147076711,94.71454352182522,79.32935945391245
29,223,29,0.9676333333333308,44.30393751127179,166.50258519595076,21.588305547783477,41.924306273107575,43.34207455047415,48.732046491274104,32.425409966939846,140.0161752166217,98.09851504040743,75.04153545380825,87.02295708088695,58.015304720591246,40.9890739873743,66.21311951806615,27.115848945493667,24.5934443924246,25.349852024494346,26.334676673513833,25.224045530691853,46.66448423177994,93.3289684635599,76.47712636762459
30,223,30,1.0009999999999972,46.222597613765444,165.91398560116738,18.877167127320345,38.9911784705425,41.635297775233,46.97396231991208,33.28580590993945,137.08773873961016,98.09656950514535,74.22257981171441,86.07324381526536,57.382162543510276,39.29430695914283,64.2430732824082,26.819923797510228,24.325047165183662,26.314740107425493,24.508274278619595,24.325047165183662,44.90777938187759,92.31043539608171,78.07210074834997
