,frame_seq,m1,m3,m4,m5,m6,m7,m8,m9,m10,m11,m12,m13,m14,m15,m16,m17,e1,e2,e3,b1,b2,b3,label_measures
0,175,3.1622776601683795,30.26549190084312,4.0,6.082762530298219,8.06225774829855,9.055385138137416,6.324555320336759,19.4164878389476,13.341664064126334,11.5,14.0,10.0,6.0,7.0,1.0,3.0,4.0,4.0,3.5,9.0,12.0,10.0,{}
1,176,3.0,29.154759474226505,3.1622776601683795,6.082762530298219,7.0,9.0,6.082762530298219,18.24828759089466,12.16552506059644,10.5,13.0,10.0,5.5,6.5,0.5,2.5,4.0,4.0,4.0,9.0,11.0,10.0,{}
2,177,3.0,28.0713376952364,3.0,5.0990195135927845,8.06225774829855,9.055385138137416,6.324555320336759,17.26267650163207,12.16552506059644,10.5,11.0,9.0,4.0,7.0,1.0,2.0,4.0,4.0,4.0,8.0,9.0,9.0,{}
3,178,1.0,26.0768096208106,3.0,5.0990195135927845,8.06225774829855,8.0,6.324555320336759,15.297058540778355,10.198039027185567,9.5,11.0,9.0,4.0,5.0,0.0,2.0,3.0,3.0,3.5,8.0,8.0,9.0,{}
4,179,2.0,26.019223662515376,3.0,5.0,7.0,8.0,5.385164807134504,15.132745950421556,10.198039027185567,9.0,10.0,9.0,4.5,5.5,0.5,1.5,3.0,3.0,3.5,9.0,9.0,8.06225774829855,{}
5,180,2.0,26.019223662515376,3.0,5.0,8.06225774829855,7.0,5.385164807134504,15.132745950421556,10.198039027185567,9.0,10.0,9.0,4.5,5.5,0.5,2.5,3.0,3.1622776601683795,3.5,7.0,8.0,9.0,{}
6,181,2.0,24.020824298928627,2.0,5.0,6.0,7.0,6.324555320336759,15.132745950421556,10.198039027185567,9.0,10.0,9.0,3.5,5.5,0.5,1.5,3.1622776601683795,2.0,2.0,7.0,8.0,8.0,{}
7,182,2.0,24.020824298928627,3.0,4.0,7.0,8.0,5.385164807134504,14.142135623730953,10.198039027185567,9.0,10.0,9.0,4.5,4.5,0.5,1.5,3.0,3.0,3.0,8.0,8.0,8.0,{}
8,183,1.0,24.08318915758459,3.0,5.0990195135927845,7.071067811865476,7.071067811865476,5.385164807134504,14.317821063276352,9.219544457292889,8.5,10.0,8.0,4.0,5.0,0.0,2.0,3.0,2.0,2.0,7.0,8.0,7.0,{}
9,184,1.0,21.02379604162864,3.0,5.0,6.0,7.071067811865476,5.385164807134504,14.142135623730953,9.219544457292889,8.5,10.0,9.0,4.5,4.5,0.5,1.5,3.1622776601683795,2.0,2.5,7.0,8.0,7.0,{}
10,185,1.0,22.02271554554524,3.0,4.0,6.082762530298219,6.0,5.385164807134504,13.152946437965904,9.219544457292889,8.5,10.0,9.0,4.5,3.5,1.5,2.5,2.0,3.0,3.0,6.0,7.0,7.0,{}
11,186,1.0,21.0,3.0,5.0990195135927845,5.0,6.082762530298219,4.123105625617661,13.152946437965904,8.06225774829855,7.5,8.0,8.0,4.0,5.0,0.0,1.0,3.1622776601683795,3.0,2.5,7.0,7.0,7.0,{}
12,187,1.0,19.1049731745428,2.0,5.0990195135927845,6.0,6.0,4.123105625617661,12.16552506059644,7.071067811865476,6.5,9.0,7.0,4.0,4.0,1.0,2.0,3.0,2.0,2.5,6.0,6.0,7.071067811865476,{}
13,188,2.0,20.0,2.0,4.0,6.0,6.0,4.47213595499958,12.16552506059644,8.246211251235321,7.0,8.0,8.0,4.0,4.0,0.0,2.0,3.0,2.0,2.0,6.0,6.0,7.0,{}
14,189,1.0,17.029386365926403,2.23606797749979,4.0,5.0,5.0990195135927845,5.0990195135927845,12.16552506059644,8.246211251235321,7.5,10.0,9.0,4.5,2.5,1.5,2.5,2.0,2.0,2.0,6.0,6.0,6.0,{}
15,256,20.0,81.02468759581859,5.0990195135927845,11.0,20.024984394500787,22.0,20.024984394500787,56.0,45.0,35.0,26.0,28.0,7.0,29.0,17.0,3.0,9.0,9.055385138137416,8.5,30.0,23.0,34.132096331752024,{}
16,268,9.055385138137416,65.49045732013177,4.123105625617661,6.082762530298219,16.1245154965971,17.029386365926403,11.180339887498947,30.4138126514911,24.33105012119288,19.5,12.0,20.0,5.0,14.0,7.0,1.0,5.0990195135927845,5.0990195135927845,5.0,24.0,7.0,19.4164878389476,{}
17,298,1.0,26.019223662515376,2.0,5.0990195135927845,7.0,8.06225774829855,6.082762530298219,14.142135623730953,9.055385138137416,8.5,8.0,9.0,2.5,5.5,0.5,0.5,3.0,3.1622776601683795,3.0,10.0,8.0,7.0,{}
18,323,4.0,40.311288741492746,4.123105625617661,8.06225774829855,10.04987562112089,11.04536101718726,11.180339887498947,27.29468812791236,19.235384061671343,17.0,14.0,9.0,0.5,15.5,6.5,2.5,2.0,2.8284271247461903,2.5,12.0,20.0,20.223748416156685,{}
19,324,5.0990195135927845,37.33630940518894,4.0,8.06225774829855,10.04987562112089,11.04536101718726,10.198039027185567,27.29468812791236,19.235384061671343,16.5,14.0,9.0,1.5,15.5,6.5,1.5,2.0,2.23606797749979,1.5,11.0,19.0,18.24828759089466,{}
20,325,5.0,38.2099463490856,4.123105625617661,7.071067811865476,9.055385138137416,10.04987562112089,10.198039027185567,26.30589287593181,19.235384061671343,16.5,13.0,9.0,1.0,15.0,7.0,2.0,2.23606797749979,1.4142135623730951,1.5,11.0,18.0,17.11724276862369,{}
21,326,4.0,34.36568055487916,4.0,8.06225774829855,8.06225774829855,10.04987562112089,10.44030650891055,26.30589287593181,18.24828759089466,16.0,14.0,9.0,1.5,14.5,6.5,1.5,2.23606797749979,2.8284271247461903,2.0,10.0,18.0,17.11724276862369,{}
22,326,5.0990195135927845,29.61418578992169,3.0,5.0990195135927845,8.246211251235321,9.219544457292889,7.071067811865476,20.223748416156685,15.132745950421556,12.5,6.0,12.0,2.0,11.0,5.0,1.0,2.23606797749979,2.0,2.0,16.0,8.0,14.142135623730953,{}
23,327,3.0,36.22154055254967,4.123105625617661,8.06225774829855,9.055385138137416,10.0,9.055385138137416,24.186773244895647,16.1245154965971,14.5,11.0,7.0,0.0,15.0,7.0,3.0,2.0,2.8284271247461903,1.5,10.0,17.0,16.1245154965971,{}
24,328,4.0,34.23448553724738,4.123105625617661,7.071067811865476,9.055385138137416,9.055385138137416,9.219544457292889,24.33105012119288,17.26267650163207,15.0,12.0,8.0,1.0,14.0,6.0,2.0,1.4142135623730951,2.8284271247461903,2.0,9.0,16.0,16.1245154965971,{}
25,328,6.082762530298219,26.68332812825267,2.0,5.0,7.280109889280518,8.246211251235321,6.082762530298219,19.1049731745428,14.142135623730953,11.0,5.0,11.0,2.0,11.0,5.0,1.0,2.23606797749979,2.0,2.0,15.0,8.0,15.132745950421556,{}
26,329,4.0,33.24154027718932,3.1622776601683795,7.071067811865476,8.06225774829855,9.055385138137416,9.055385138137416,23.194827009486403,16.1245154965971,14.0,11.0,7.0,0.0,14.0,7.0,3.0,2.0,2.23606797749979,1.0,10.0,16.0,14.0356688476182,{}
27,329,5.0990195135927845,25.495097567963924,2.0,5.0990195135927845,7.071067811865476,7.280109889280518,7.0,19.1049731745428,14.0356688476182,11.5,6.0,11.0,1.5,10.5,4.5,0.5,2.23606797749979,2.0,2.0,14.0,7.0,13.152946437965904,{}
28,330,4.0,32.2490309931942,3.1622776601683795,7.071067811865476,9.055385138137416,9.055385138137416,8.06225774829855,22.20360331117452,15.132745950421556,13.0,10.0,6.0,0.0,14.0,7.0,2.0,1.4142135623730951,2.23606797749979,2.0,9.0,15.0,16.1245154965971,{}
29,330,2.0,23.53720459187964,2.23606797749979,4.123105625617661,7.280109889280518,7.280109889280518,5.0,13.152946437965904,9.055385138137416,8.0,1.0,6.0,1.5,9.5,3.5,3.5,2.8284271247461903,3.0,2.5,16.0,8.0,12.16552506059644,{}
30,331,3.0,30.26549190084312,3.1622776601683795,7.071067811865476,8.06225774829855,8.06225774829855,9.055385138137416,22.20360331117452,15.132745950421556,13.5,11.0,7.0,0.0,13.0,6.0,2.0,1.4142135623730951,2.8284271247461903,2.0,8.0,15.0,15.033296378372908,{}
31,331,3.0,29.61418578992169,3.1622776601683795,7.071067811865476,9.219544457292889,10.198039027185567,5.0990195135927845,18.027756377319943,11.0,9.5,3.0,9.0,1.0,12.0,3.0,2.0,1.4142135623730951,2.0,1.5,15.0,8.0,13.038404810405298,{}
32,332,4.0,29.42787793912432,3.0,6.082762530298219,8.06225774829855,8.06225774829855,8.246211251235321,21.213203435596427,15.132745950421556,13.0,11.0,6.0,0.5,12.5,5.5,1.5,2.23606797749979,2.23606797749979,1.0,8.0,15.0,14.0356688476182,{}
33,333,3.1622776601683795,29.27456233660889,3.0,7.071067811865476,8.06225774829855,8.06225774829855,8.246211251235321,21.37755832643195,14.317821063276352,12.5,11.0,7.0,1.0,12.0,5.0,1.0,2.23606797749979,2.23606797749979,2.0,8.0,14.0,13.038404810405298,{}
34,334,4.123105625617661,27.459060435491963,2.0,6.0,7.280109889280518,7.071067811865476,8.246211251235321,20.223748416156685,14.317821063276352,12.0,11.0,6.0,0.5,11.5,5.5,0.5,1.0,1.4142135623730951,1.0,8.0,14.0,13.152946437965904,{}
35,335,3.0,28.16025568065745,3.0,6.082762530298219,8.06225774829855,8.06225774829855,8.246211251235321,20.223748416156685,14.142135623730953,12.5,10.0,7.0,0.5,11.5,5.5,1.5,1.4142135623730951,1.4142135623730951,1.5,8.0,14.0,14.142135623730953,{}
36,336,3.0,28.16025568065745,3.0,6.082762530298219,7.071067811865476,8.06225774829855,7.280109889280518,19.235384061671343,13.152946437965904,11.5,9.0,6.0,0.5,11.5,5.5,1.5,1.0,1.4142135623730951,1.0,8.0,13.0,13.152946437965904,{}
37,337,4.0,27.16615541441225,2.23606797749979,5.0990195135927845,7.071067811865476,7.0,7.071067811865476,18.24828759089466,13.152946437965904,11.0,8.0,5.0,0.5,11.5,6.5,1.5,1.0,1.4142135623730951,1.0,8.0,14.0,12.16552506059644,{}
38,338,3.0,26.1725046566048,2.0,5.0990195135927845,6.0,7.0,8.246211251235321,18.24828759089466,13.152946437965904,11.5,9.0,6.0,0.5,10.5,4.5,2.5,2.0,1.4142135623730951,1.0,7.0,12.0,12.041594578792296,{}
39,339,4.0,26.1725046566048,2.0,5.0990195135927845,8.0,7.0,6.324555320336759,17.26267650163207,12.16552506059644,10.0,8.0,5.0,0.5,10.5,5.5,1.5,1.0,1.4142135623730951,1.0,7.0,12.0,12.041594578792296,{}
40,340,3.0,26.1725046566048,3.0,5.0990195135927845,6.0,7.0,6.082762530298219,17.11724276862369,12.041594578792296,10.5,8.0,5.0,0.5,10.5,4.5,1.5,1.0,1.4142135623730951,1.0,7.0,12.0,12.041594578792296,{}
41,341,3.0,24.186773244895647,2.0,5.0990195135927845,6.0,6.082762530298219,7.071067811865476,17.11724276862369,12.041594578792296,10.5,9.0,6.0,0.5,9.5,4.5,1.5,1.4142135623730951,1.4142135623730951,1.0,7.0,13.0,12.041594578792296,{}
42,353,1.4142135623730951,50.24937810560445,4.123105625617661,8.06225774829855,14.0356688476182,16.0312195418814,16.1245154965971,29.42787793912432,21.37755832643195,20.5,14.0,19.0,0.5,12.5,2.5,2.5,3.0,3.0,3.0,13.0,8.0,16.1245154965971,{}
43,354,1.0,51.24451190127583,4.123105625617661,8.06225774829855,15.132745950421556,15.033296378372908,16.1245154965971,28.442925306655784,20.39607805437113,20.0,14.0,19.0,0.5,11.5,2.5,3.5,4.123105625617661,5.0,4.5,13.0,8.0,13.0,{}
44,355,0.0,48.0936586256442,4.123105625617661,7.071067811865476,13.038404810405298,14.0356688476182,15.132745950421556,26.30589287593181,19.235384061671343,19.0,14.0,17.0,0.5,10.5,2.5,2.5,3.0,4.0,3.5,11.0,6.0,14.0356688476182,{}
45,356,1.0,41.19465984809196,4.0,7.071067811865476,12.041594578792296,13.038404810405298,14.142135623730953,25.317977802344327,18.24828759089466,18.0,13.0,17.0,1.0,10.0,2.0,2.0,3.0,4.123105625617661,4.0,12.0,8.0,12.0,{}
46,357,0.0,43.10452412450461,4.123105625617661,6.082762530298219,13.0,13.038404810405298,13.152946437965904,23.345235059857504,17.26267650163207,17.0,12.0,15.0,0.5,9.5,2.5,2.5,3.1622776601683795,3.0,3.5,11.0,6.0,14.142135623730953,{}
47,358,1.0,40.19950248448356,3.0,7.0,12.041594578792296,13.038404810405298,13.152946437965904,23.194827009486403,16.278820596099706,16.0,11.0,15.0,0.0,10.0,2.0,3.0,2.0,2.0,2.0,10.0,6.0,12.0,{}
48,359,1.0,40.11234224026316,4.0,6.082762530298219,11.04536101718726,12.0,11.180339887498947,21.37755832643195,15.297058540778355,15.0,11.0,14.0,1.5,8.5,1.5,2.5,2.23606797749979,2.0,2.5,9.0,5.0,11.04536101718726,{}
49,359,1.0,21.0,2.0,2.0,6.0,7.0,6.0,11.0,9.0,8.5,8.0,8.0,2.0,3.0,0.0,0.0,4.0,4.0,4.0,8.0,7.0,10.0,{}
50,360,1.0,38.11823710509184,3.0,6.082762530298219,11.04536101718726,11.04536101718726,12.16552506059644,21.37755832643195,15.297058540778355,15.0,11.0,14.0,0.5,8.5,1.5,2.5,2.0,2.0,2.0,9.0,4.0,12.041594578792296,{}
51,360,1.0,22.0,2.0,3.0,7.0,7.0,5.0,11.0,8.0,7.5,8.0,8.0,3.0,3.0,0.0,1.0,3.0,3.0,3.0,8.0,7.0,9.0,{}
52,361,1.0,35.12833614050059,3.1622776601683795,5.0990195135927845,10.04987562112089,10.04987562112089,11.04536101718726,20.223748416156685,15.132745950421556,14.5,11.0,14.0,1.5,7.5,1.5,1.5,2.0,2.0,2.5,9.0,5.0,10.04987562112089,{}
53,361,0.0,20.0,3.0,3.0,5.0990195135927845,6.082762530298219,5.0,11.0,8.0,8.0,8.0,8.0,3.0,3.0,0.0,1.0,2.0,4.0,3.0,8.0,7.0,9.0,{}
54,361,2.0,21.02379604162864,3.0,4.123105625617661,5.0,6.0,8.246211251235321,17.26267650163207,13.152946437965904,12.0,13.0,12.0,4.5,4.5,0.5,1.5,3.0,3.0,2.5,6.0,8.0,7.0,{}
55,362,1.0,20.024984394500787,2.0,2.0,6.0,6.0,5.0,10.0,8.0,7.5,8.0,7.0,2.5,2.5,0.5,0.5,3.0,3.0,3.0,7.0,7.0,9.0,{}
56,362,1.4142135623730951,35.05709628591621,3.0,4.0,10.04987562112089,11.0,11.180339887498947,19.235384061671343,15.297058540778355,14.5,11.0,13.0,1.0,7.0,2.0,2.0,2.0,2.0,2.0,8.0,4.0,10.04987562112089,{}
57,363,1.4142135623730951,33.06055050963308,2.0,5.0,10.04987562112089,10.04987562112089,10.198039027185567,18.24828759089466,13.341664064126334,12.5,9.0,11.0,0.0,8.0,2.0,2.0,2.0,2.0,2.0,8.0,4.0,9.0,{}
58,363,1.4142135623730951,16.0312195418814,3.0,3.0,5.0,5.0,5.0990195135927845,10.198039027185567,7.280109889280518,7.5,8.0,9.0,3.5,1.5,1.5,0.5,3.0,3.1622776601683795,2.5,7.0,7.0,9.0,{}
59,364,1.0,31.14482300479488,3.0,5.0,9.055385138137416,9.055385138137416,9.055385138137416,17.11724276862369,12.16552506059644,12.0,9.0,12.0,1.5,6.5,0.5,1.5,1.0,2.0,2.0,8.0,4.0,9.055385138137416,{}
60,365,1.0,30.14962686336267,3.0,4.0,9.0,9.055385138137416,10.04987562112089,17.11724276862369,13.152946437965904,13.0,9.0,12.0,0.5,6.5,1.5,1.5,1.0,2.0,1.5,7.0,4.0,10.04987562112089,{}
61,365,1.0,17.029386365926403,2.0,2.0,5.0,5.0,4.0,9.0,7.0,6.5,7.0,6.0,2.5,2.5,0.5,0.5,3.0,3.1622776601683795,2.5,6.0,6.0,8.0,{}
62,366,1.0,29.068883707497267,2.0,4.123105625617661,8.06225774829855,9.055385138137416,9.219544457292889,16.278820596099706,12.16552506059644,11.5,9.0,11.0,1.0,6.0,1.0,1.0,2.0,2.0,2.0,7.0,4.0,9.055385138137416,{}
63,367,1.0,29.068883707497267,3.0,4.0,8.0,8.0,8.06225774829855,15.132745950421556,11.180339887498947,11.0,8.0,10.0,1.0,6.0,1.0,1.0,1.0,1.0,1.5,7.0,4.0,8.0,{}
64,368,1.0,28.16025568065745,2.0,4.123105625617661,8.06225774829855,8.0,9.219544457292889,16.278820596099706,12.16552506059644,11.5,8.0,11.0,0.5,6.5,1.5,1.5,2.0,1.0,1.5,7.0,3.0,8.06225774829855,{}
65,369,1.0,27.16615541441225,2.23606797749979,3.0,7.0,8.0,8.06225774829855,14.142135623730953,11.180339887498947,10.5,7.0,10.0,0.5,5.5,1.5,1.5,1.0,1.0,1.0,6.0,4.0,8.0,{}
66,370,0.0,25.179356624028344,2.0,4.0,8.0,7.071067811865476,8.246211251235321,14.142135623730953,10.198039027185567,10.0,7.0,10.0,0.5,5.5,1.5,0.5,2.0,1.4142135623730951,1.5,7.0,4.0,8.246211251235321,{}
67,371,1.0,24.186773244895647,2.0,4.0,7.071067811865476,8.06225774829855,7.280109889280518,13.341664064126334,9.486832980505138,9.0,6.0,9.0,0.5,5.5,1.5,1.5,1.0,1.0,1.5,6.0,3.0,7.071067811865476,{}
68,372,0.0,24.08318915758459,2.0,3.1622776601683795,7.0,6.0,7.071067811865476,12.16552506059644,9.055385138137416,9.0,7.0,9.0,1.0,4.0,0.0,0.0,2.0,2.0,2.0,7.0,4.0,5.0990195135927845,{}
69,441,8.0,78.00640999302557,9.055385138137416,14.0,20.024984394500787,22.0,24.0,55.00909015790027,41.01219330881976,37.0,34.0,33.0,9.5,21.5,6.5,2.5,9.0,10.0,10.0,28.0,30.0,29.0,{}
70,442,11.04536101718726,73.00684899377592,8.0,15.0,19.026297590440446,20.024984394500787,28.0,62.00806399170998,47.01063709417264,41.5,40.0,41.0,12.5,21.5,4.5,4.5,10.0,11.0,10.5,29.0,31.0,30.01666203960727,{}
71,443,10.04987562112089,71.00704190430693,9.0,14.0,18.0,20.024984394500787,29.0,62.00806399170998,48.010415536631214,43.0,43.0,44.0,14.5,18.5,2.5,6.5,12.0,12.0,12.0,28.0,31.0,30.01666203960727,{}
72,444,9.0,71.00704190430693,8.06225774829855,15.033296378372908,19.026297590440446,21.02379604162864,30.0,62.03224967708329,47.01063709417264,42.5,43.0,44.0,13.5,18.5,2.5,5.5,11.04536101718726,11.0,11.0,28.0,32.0,31.016124838541646,{}
73,445,8.0,71.02816342831905,8.06225774829855,14.0,20.0,21.02379604162864,30.01666203960727,60.03332407921454,46.04345773288535,42.0,42.0,44.0,13.0,17.0,2.0,6.0,12.041594578792296,12.0,12.5,29.0,33.0,35.05709628591621,{}
74,446,8.0,70.00714249274856,7.071067811865476,14.0,19.026297590440446,20.024984394500787,31.0,60.00833275470999,46.01086828130936,42.0,43.0,44.0,12.5,16.5,1.5,5.5,12.041594578792296,12.0,12.0,29.0,32.0,34.058772731852805,{}
75,447,9.0,72.02777242147643,7.071067811865476,12.0,19.026297590440446,19.026297590440446,30.01666203960727,58.034472514187634,46.04345773288535,41.5,42.0,44.0,13.0,15.0,1.0,6.0,8.06225774829855,9.0,9.0,30.0,33.0,30.066592756745816,{}
76,448,10.0,72.02777242147643,7.0,14.0,19.026297590440446,21.02379604162864,29.068883707497267,60.03332407921454,46.04345773288535,41.0,42.0,44.0,14.0,17.0,2.0,7.0,4.123105625617661,6.0,5.5,31.0,35.0,28.0713376952364,{}
77,449,10.04987562112089,72.02777242147643,8.06225774829855,13.0,19.0,20.024984394500787,29.017236257093817,60.00833275470999,47.01063709417264,42.0,42.0,44.0,14.0,17.0,3.0,7.0,5.0,7.071067811865476,7.0,31.0,34.0,28.16025568065745,{}
78,450,7.071067811865476,69.02897942168927,8.06225774829855,13.0,20.0,21.0,29.068883707497267,57.0350769263968,44.04543109109048,40.5,42.0,44.0,14.0,14.0,0.0,7.0,7.0,7.0,7.0,31.0,33.0,31.064449134018133,{}
79,451,9.0,72.06247289678588,8.0,12.0,20.024984394500787,21.02379604162864,29.068883707497267,58.034472514187634,46.04345773288535,41.5,42.0,45.0,14.5,14.5,1.5,7.5,9.0,10.0,10.0,32.0,34.0,32.0624390837628,{}
80,452,8.0,71.06335201775947,8.0,11.0,20.0,21.02379604162864,30.01666203960727,57.0087712549569,46.01086828130936,42.0,42.0,45.0,13.5,13.5,0.5,6.5,10.04987562112089,10.0,10.0,31.0,33.0,30.066592756745816,{}
81,453,10.04987562112089,71.11258679024411,7.0,11.0,20.024984394500787,20.024984394500787,31.016124838541646,59.0,48.0,43.0,42.0,46.0,13.0,15.0,2.0,7.0,10.0,10.0,10.0,32.0,32.0,30.01666203960727,{}
82,454,10.0,72.17340230306452,7.0,12.041594578792296,20.024984394500787,21.095023109728988,30.0,59.00847396772772,47.0,42.0,40.0,45.0,12.5,16.5,2.5,5.5,10.0,11.0,10.5,33.0,32.0,29.017236257093817,{}
83,455,10.04987562112089,73.33484846919642,8.0,12.041594578792296,19.1049731745428,20.09975124224178,29.017236257093817,59.00847396772772,47.0,42.0,39.0,46.0,13.5,16.5,2.5,5.5,11.0,13.0,12.5,32.0,30.0,30.14962686336267,{}
84,456,11.04536101718726,72.24956747275377,8.0,13.038404810405298,20.09975124224178,21.213203435596427,29.017236257093817,61.00819617067857,48.0,42.5,40.0,46.0,14.0,18.0,3.0,6.0,11.0,11.0,11.0,34.0,32.0,31.016124838541646,{}
85,457,12.041594578792296,71.25307010929424,7.0,12.041594578792296,18.027756377319943,20.09975124224178,29.0,60.03332407921454,48.010415536631214,42.0,39.0,45.0,13.0,18.0,4.0,6.0,10.0,11.04536101718726,11.0,33.0,30.0,32.01562118716424,{}
86,458,11.180339887498947,70.45565981523414,8.0,12.041594578792296,20.09975124224178,21.213203435596427,29.0,60.07495318350236,48.04164859785725,42.5,39.0,47.0,14.0,17.0,3.0,6.0,10.04987562112089,11.04536101718726,11.0,34.0,32.0,29.017236257093817,{}
87,459,13.0,69.35416353759881,7.071067811865476,12.041594578792296,19.1049731745428,21.213203435596427,29.017236257093817,61.00819617067857,49.0,42.5,40.0,47.0,14.5,17.5,3.5,6.5,11.0,12.0,12.0,34.0,32.0,27.018512172212592,{}
88,460,14.0,70.34912934784623,7.0,13.152946437965904,19.235384061671343,21.213203435596427,28.0,62.03224967708329,49.0,42.0,40.0,47.0,15.5,18.5,3.5,7.5,12.0,13.0,12.5,35.0,33.0,30.066592756745816,{}
89,461,13.0,70.34912934784623,8.0,14.0356688476182,20.09975124224178,22.20360331117452,29.0,64.00781202322104,50.0,43.5,41.0,48.0,15.5,19.5,2.5,7.5,12.041594578792296,14.0356688476182,13.0,33.0,31.0,27.073972741361768,{}
90,462,1.0,66.37017402418047,7.0,13.038404810405298,19.1049731745428,19.235384061671343,32.01562118716424,53.03772242470448,40.01249804748511,39.5,39.0,46.0,10.5,10.5,4.5,3.5,11.04536101718726,12.041594578792296,11.5,33.0,31.0,29.068883707497267,{}
91,463,1.0,70.45565981523414,7.0,11.04536101718726,19.1049731745428,20.223748416156685,31.0,49.04079934095692,38.01315561749642,38.0,37.0,45.0,10.0,8.0,5.0,3.0,11.0,11.04536101718726,10.5,33.0,31.0,28.0713376952364,{}
92,464,0.0,70.34912934784623,7.071067811865476,13.038404810405298,19.1049731745428,20.09975124224178,31.016124838541646,51.0098029794274,38.0,38.0,38.0,45.0,10.5,9.5,5.5,3.5,11.0,12.041594578792296,12.0,33.0,31.0,27.018512172212592,{}
93,465,1.4142135623730951,69.26037828369117,7.0,10.04987562112089,19.1049731745428,20.09975124224178,32.01562118716424,50.00999900019995,40.0,39.5,39.0,45.0,10.0,8.0,5.0,3.0,11.0,11.0,11.5,33.0,30.0,28.0713376952364,{}
94,466,7.071067811865476,67.36467917239716,8.0,14.0356688476182,19.1049731745428,20.223748416156685,30.01666203960727,59.00847396772772,45.0,41.5,39.0,46.0,12.5,16.5,0.5,5.5,12.041594578792296,12.041594578792296,12.0,35.0,29.0,30.01666203960727,{}
95,467,11.0,66.37017402418047,7.0,16.0312195418814,18.110770276274835,19.235384061671343,29.017236257093817,63.0317380372777,47.01063709417264,41.5,39.0,46.0,13.5,20.5,2.5,6.5,12.041594578792296,12.041594578792296,12.0,35.0,29.0,31.0,{}
96,468,10.0,61.5223536610881,7.0,15.033296378372908,16.278820596099706,18.43908891458577,29.068883707497267,61.07372593840988,46.04345773288535,41.0,40.0,48.0,15.0,17.0,1.0,7.0,12.0,13.038404810405298,12.5,34.0,28.0,30.01666203960727,{}
97,469,2.23606797749979,57.42821606144492,8.0,11.04536101718726,16.0312195418814,17.029386365926403,9.0,30.066592756745816,19.026297590440446,18.0,15.0,22.0,9.5,11.5,0.5,1.5,12.041594578792296,11.0,11.5,31.0,24.0,32.01562118716424,{}
98,470,6.082762530298219,63.63961030678928,7.0,15.033296378372908,18.24828759089466,19.4164878389476,28.0713376952364,56.1426753904728,41.10960958218893,38.0,36.0,45.0,12.5,15.5,3.5,4.5,12.041594578792296,13.0,12.5,34.0,27.0,30.01666203960727,{}
99,471,6.0,67.60177512462228,7.0,14.0356688476182,18.24828759089466,19.4164878389476,29.154759474226505,56.1426753904728,42.1070065428546,39.0,37.0,46.0,12.5,14.5,2.5,4.5,12.041594578792296,12.041594578792296,12.0,36.0,31.0,31.016124838541646,{}
100,472,4.0,68.59300255857006,7.0,13.038404810405298,19.4164878389476,20.615528128088304,29.068883707497267,53.08483775994799,40.049968789001575,38.0,37.0,46.0,12.5,11.5,4.5,4.5,12.041594578792296,12.041594578792296,12.0,36.0,28.0,30.01666203960727,{}
101,473,2.0,70.71067811865476,6.0,13.152946437965904,19.235384061671343,20.223748416156685,29.068883707497267,50.15974481593781,37.05401462729781,36.0,34.0,44.0,10.0,11.0,5.0,3.0,11.04536101718726,12.0,12.0,36.0,30.0,31.0,{}
102,474,1.0,71.34423592694787,6.082762530298219,13.038404810405298,20.09975124224178,21.213203435596427,28.0178514522438,48.010415536631214,35.0,34.5,33.0,40.0,8.5,11.5,3.5,2.5,13.038404810405298,12.0,12.0,36.0,28.0,31.016124838541646,{}
103,475,1.0,72.44308110509934,6.0,12.041594578792296,21.095023109728988,21.213203435596427,29.0,48.010415536631214,36.0,35.5,32.0,40.0,7.0,12.0,3.0,2.0,12.041594578792296,12.0,12.0,36.0,29.0,31.064449134018133,{}
104,476,2.23606797749979,70.34912934784623,5.0,13.038404810405298,20.09975124224178,20.39607805437113,29.017236257093817,49.01020301937138,36.0,35.0,33.0,40.0,7.5,12.5,2.5,2.5,12.041594578792296,13.038404810405298,12.5,35.0,25.0,31.016124838541646,{}
105,477,3.0,69.35416353759881,6.082762530298219,14.142135623730953,19.1049731745428,20.223748416156685,28.0713376952364,51.0098029794274,37.01351104664349,35.5,33.0,40.0,8.5,14.5,2.5,2.5,12.041594578792296,13.0,12.5,37.0,29.0,29.068883707497267,{}
106,478,4.123105625617661,67.36467917239716,6.0,13.0,20.09975124224178,20.223748416156685,29.068883707497267,52.009614495783374,39.01281840626232,37.0,33.0,40.0,7.5,15.5,0.5,2.5,13.152946437965904,13.038404810405298,13.0,36.0,29.0,30.066592756745816,{}
107,479,3.0,69.35416353759881,6.0,14.0356688476182,21.213203435596427,21.213203435596427,27.073972741361768,50.00999900019995,36.05551275463989,34.5,31.0,38.0,7.5,15.5,1.5,1.5,14.142135623730953,14.0,14.0,36.0,28.0,30.066592756745816,{}
108,480,2.0,67.36467917239716,5.0,14.0356688476182,19.1049731745428,20.223748416156685,28.0178514522438,49.0,35.0142828000232,34.0,31.0,38.0,6.5,14.5,2.5,1.5,13.038404810405298,14.0,13.5,36.0,28.0,29.068883707497267,{}
109,481,2.0,66.37017402418047,5.0,13.0,19.1049731745428,20.223748416156685,28.0178514522438,48.010415536631214,35.0142828000232,34.0,30.0,37.0,5.5,14.5,1.5,1.5,12.16552506059644,12.041594578792296,11.5,36.0,27.0,28.16025568065745,{}
110,482,4.0,65.49045732013177,5.0,14.0,19.235384061671343,19.235384061671343,28.0178514522438,51.0098029794274,37.01351104664349,35.0,30.0,38.0,6.0,17.0,0.0,1.0,14.0356688476182,14.0,14.0,37.0,26.0,28.16025568065745,{}
111,483,5.0,62.51399843235114,6.0,14.0,18.24828759089466,20.39607805437113,28.0,53.0,39.0,36.5,31.0,39.0,7.0,18.0,0.0,1.0,13.038404810405298,14.0356688476182,13.5,38.0,29.0,31.064449134018133,{}
112,484,5.0,63.788713735268246,5.0,16.0312195418814,17.26267650163207,19.4164878389476,29.068883707497267,55.00909015790027,39.05124837953327,36.5,31.0,41.0,7.0,19.0,1.0,2.0,13.038404810405298,13.0,13.0,37.0,28.0,29.154759474226505,{}
113,485,4.123105625617661,63.953107821277925,6.082762530298219,14.0356688476182,19.235384061671343,20.223748416156685,29.154759474226505,53.03772242470448,39.11521443121589,37.0,28.0,39.0,4.5,19.5,1.5,1.5,13.038404810405298,13.038404810405298,12.5,37.0,25.0,29.154759474226505,{}
114,486,2.0,63.38769596696192,7.0,14.0,18.110770276274835,18.43908891458577,30.14962686336267,53.08483775994799,39.11521443121589,38.0,32.0,39.0,5.5,17.5,0.5,0.5,13.152946437965904,14.0,13.0,36.0,25.0,29.27456233660889,{}
115,487,0.0,66.48308055437865,6.0,10.04987562112089,16.0312195418814,16.0312195418814,12.041594578792296,28.0,18.027756377319943,18.0,11.0,19.0,3.0,13.0,1.0,3.0,13.038404810405298,12.0,12.5,32.0,23.0,29.154759474226505,{}
116,488,1.0,69.46221994724903,6.0,12.041594578792296,18.24828759089466,19.235384061671343,30.26549190084312,49.09175083453431,37.21558813185679,36.5,28.0,36.0,2.0,17.0,1.0,4.0,13.038404810405298,13.0,13.0,36.0,25.0,29.154759474226505,{}
117,489,1.0,67.47592163134935,6.082762530298219,11.0,18.24828759089466,19.235384061671343,30.26549190084312,48.0936586256442,37.12142238654117,36.5,28.0,36.0,2.0,16.0,1.0,4.0,13.152946437965904,13.0,13.0,36.0,26.0,30.14962686336267,{}
118,490,1.0,69.87131027825369,6.082762530298219,11.04536101718726,19.235384061671343,20.615528128088304,28.442925306655784,46.09772228646444,35.22782990761707,34.5,24.0,35.0,1.5,16.5,1.5,4.5,12.041594578792296,12.0,12.0,36.0,25.0,27.16615541441225,{}
119,491,2.0,73.97972695272672,7.071067811865476,11.180339887498947,20.39607805437113,21.37755832643195,26.476404589747453,46.04345773288535,35.22782990761707,34.0,23.0,35.0,3.0,17.0,2.0,4.0,12.041594578792296,12.0,11.5,36.0,23.0,29.154759474226505,{}
120,492,4.47213595499958,76.2954782408499,6.0,12.041594578792296,20.39607805437113,21.587033144922906,25.317977802344327,47.01063709417264,35.05709628591621,33.0,21.0,35.0,3.0,19.0,3.0,4.0,12.041594578792296,13.0,12.5,38.0,25.0,28.16025568065745,{}
121,493,4.123105625617661,72.99315036357864,7.0,12.16552506059644,20.223748416156685,21.37755832643195,25.179356624028344,48.0,36.05551275463989,34.0,24.0,36.0,5.0,18.0,2.0,2.0,12.041594578792296,13.038404810405298,12.5,38.0,27.0,28.16025568065745,{}
122,494,4.0,67.7421582177598,7.071067811865476,13.038404810405298,19.235384061671343,19.6468827043885,26.30589287593181,50.039984012787215,37.12142238654117,35.0,27.0,37.0,6.0,18.0,1.0,1.0,11.180339887498947,12.041594578792296,12.0,38.0,28.0,31.14482300479488,{}
123,495,4.0,67.7421582177598,7.0,13.038404810405298,20.09975124224178,20.39607805437113,24.186773244895647,48.04164859785725,35.12833614050059,33.0,26.0,36.0,7.0,17.0,1.0,0.0,12.041594578792296,13.0,12.5,37.0,27.0,29.154759474226505,{}
124,496,4.0,70.21395872616783,8.0,13.038404810405298,20.223748416156685,20.223748416156685,25.179356624028344,50.039984012787215,37.12142238654117,35.0,25.0,38.0,6.5,18.5,1.5,1.5,12.041594578792296,14.0,13.0,37.0,26.0,29.068883707497267,{}
125,497,4.0,66.48308055437865,7.0,13.038404810405298,19.1049731745428,19.4164878389476,26.0768096208106,50.00999900019995,37.05401462729781,35.0,30.0,38.0,8.0,16.0,0.0,1.0,12.041594578792296,13.0,12.5,35.0,27.0,30.01666203960727,{}
126,498,5.0990195135927845,67.60177512462228,7.0,13.038404810405298,20.09975124224178,20.223748416156685,27.16615541441225,52.009614495783374,39.05124837953327,36.5,32.0,41.0,9.5,15.5,0.5,2.5,13.038404810405298,14.0,13.0,36.0,29.0,29.068883707497267,{}
127,499,4.123105625617661,68.59300255857006,8.0,13.038404810405298,19.235384061671343,21.213203435596427,27.073972741361768,52.0,39.01281840626232,37.0,32.0,41.0,9.5,15.5,0.5,1.5,13.038404810405298,13.0,12.5,35.0,29.0,29.017236257093817,{}
128,500,5.0,69.58448102845921,8.06225774829855,13.038404810405298,20.09975124224178,20.223748416156685,27.073972741361768,53.0,40.01249804748511,37.5,34.0,43.0,11.5,14.5,1.5,3.5,13.038404810405298,14.0,13.5,35.0,29.0,29.017236257093817,{}
129,501,4.0,70.57619995437555,8.06225774829855,14.142135623730953,19.235384061671343,20.223748416156685,27.018512172212592,53.03772242470448,39.0,37.0,35.0,44.0,12.5,13.5,3.5,3.5,13.038404810405298,14.0,13.0,35.0,27.0,29.0,{}
130,502,2.23606797749979,66.48308055437865,7.071067811865476,16.0312195418814,19.235384061671343,20.39607805437113,29.017236257093817,54.147945482723536,38.11823710509184,37.0,36.0,44.0,11.0,14.0,4.0,4.0,13.0,13.038404810405298,13.0,34.0,30.0,31.064449134018133,{}
131,503,5.0,73.24616030891995,8.06225774829855,15.033296378372908,20.223748416156685,22.09072203437452,28.0178514522438,56.08029957123981,41.04875150354759,38.5,37.0,43.0,12.0,16.0,2.0,3.0,13.038404810405298,12.041594578792296,12.0,33.0,30.0,32.0,{}
132,504,6.082762530298219,62.39390995922599,7.0,16.0312195418814,17.11724276862369,19.235384061671343,28.0713376952364,57.14017850864661,41.10960958218893,38.0,37.0,44.0,12.5,16.5,1.5,5.5,11.04536101718726,12.0,11.0,33.0,29.0,30.0,{}
133,505,7.0,63.28506932918696,7.071067811865476,15.033296378372908,18.110770276274835,20.09975124224178,28.0713376952364,57.0350769263968,42.01190307520001,38.5,37.0,43.0,12.0,17.0,0.0,5.0,13.038404810405298,13.0,13.0,33.0,31.0,28.0713376952364,{}
134,506,6.0,65.37583651472461,7.0,13.038404810405298,17.11724276862369,18.110770276274835,28.0,54.00925846556311,41.0,38.0,35.0,42.0,10.5,15.5,0.5,3.5,13.038404810405298,14.0,14.0,34.0,34.0,29.017236257093817,{}
135,507,4.123105625617661,67.36467917239716,6.0,12.0,18.110770276274835,19.1049731745428,29.068883707497267,51.0098029794274,39.01281840626232,37.0,34.0,41.0,8.5,13.5,1.5,2.5,13.0,13.0,12.5,34.0,29.0,30.066592756745816,{}
136,508,6.324555320336759,67.36467917239716,6.0,13.038404810405298,20.223748416156685,21.213203435596427,27.29468812791236,52.009614495783374,39.05124837953327,36.0,32.0,39.0,8.5,16.5,0.5,2.5,11.0,13.038404810405298,12.0,35.0,30.0,28.0,{}
137,509,5.0,68.3593446428504,6.0,13.0,19.1049731745428,20.223748416156685,27.29468812791236,51.15662224971465,38.2099463490856,35.5,30.0,37.0,6.5,17.5,1.5,0.5,13.038404810405298,13.0,13.0,36.0,30.0,26.0,{}
138,510,1.0,68.3593446428504,7.0,12.041594578792296,20.223748416156685,20.39607805437113,25.495097567963924,44.10215414239989,32.2490309931942,32.0,27.0,34.0,5.5,13.5,1.5,1.5,11.04536101718726,13.038404810405298,12.0,36.0,30.0,26.0,{}
139,511,1.0,66.48308055437865,6.0,12.041594578792296,20.223748416156685,20.39607805437113,25.70992026436488,43.18564576337837,31.400636936215164,31.0,26.0,34.0,5.0,13.0,2.0,1.0,10.04987562112089,12.0,11.5,36.0,30.0,27.018512172212592,{}
140,512,1.0,66.37017402418047,7.071067811865476,13.038404810405298,19.235384061671343,20.223748416156685,22.80350850198276,43.18564576337837,30.4138126514911,29.5,24.0,31.0,5.5,15.5,1.5,1.5,10.04987562112089,12.0,11.5,38.0,29.0,29.068883707497267,{}
141,513,4.47213595499958,68.06614430096654,5.0,12.041594578792296,20.39607805437113,21.587033144922906,22.80350850198276,43.10452412450461,31.25699921617557,29.0,19.0,31.0,3.0,18.0,2.0,3.0,10.04987562112089,12.0,11.5,38.0,29.0,30.14962686336267,{}
142,514,3.605551275463989,69.2314957226839,6.0,13.038404810405298,19.4164878389476,21.587033144922906,21.587033144922906,43.04648650006177,30.14962686336267,28.5,18.0,31.0,3.5,18.5,2.5,3.5,10.04987562112089,12.0,11.5,38.0,28.0,30.066592756745816,{}
143,515,2.8284271247461903,67.7421582177598,6.0,12.041594578792296,20.223748416156685,20.39607805437113,22.80350850198276,42.1070065428546,30.26549190084312,29.0,21.0,31.0,4.0,16.0,0.0,2.0,10.04987562112089,11.0,10.5,37.0,27.0,26.0768096208106,{}
144,516,7.0,75.31268153505093,5.0990195135927845,12.041594578792296,19.4164878389476,21.587033144922906,22.80350850198276,46.17358552246078,34.36568055487916,30.5,16.0,30.0,1.0,23.0,6.0,5.0,11.180339887498947,12.041594578792296,11.5,37.0,28.0,27.073972741361768,{}
145,517,3.1622776601683795,68.59300255857006,5.0,11.0,20.223748416156685,21.37755832643195,23.08679276123039,41.43669871020132,30.59411708155671,28.5,22.0,31.0,4.5,14.5,0.5,0.5,10.04987562112089,12.0,11.0,35.0,26.0,28.0178514522438,{}
146,518,4.47213595499958,69.87131027825369,5.0,10.0,19.4164878389476,20.39607805437113,23.08679276123039,41.30375285612676,31.400636936215164,29.0,19.0,30.0,2.5,16.5,2.5,3.5,10.04987562112089,11.0,11.0,37.0,29.0,27.073972741361768,{}
147,519,0.0,76.53103945458993,6.0,10.0,21.213203435596427,22.36067977499789,21.840329667841555,37.48332962798263,27.65863337187866,27.0,18.0,27.0,1.5,14.5,1.5,4.5,11.04536101718726,12.0,11.5,35.0,26.0,25.079872407968907,{}
148,520,0.0,75.4254598925323,5.0,10.0,20.223748416156685,20.39607805437113,21.840329667841555,36.49657518178932,26.68332812825267,26.0,17.0,25.0,0.0,15.0,1.0,5.0,11.04536101718726,11.0,11.0,34.0,25.0,26.1725046566048,{}
149,521,0.0,78.23042886243178,4.0,9.0,20.223748416156685,21.213203435596427,23.08679276123039,35.6931365951495,26.92582403567252,26.0,18.0,24.0,1.0,14.0,2.0,5.0,12.041594578792296,12.0,12.0,35.0,27.0,29.154759474226505,{}
150,522,1.0,81.2219182240853,4.0,9.0,21.095023109728988,21.213203435596427,23.08679276123039,36.6742416417845,27.892651361962702,26.5,18.0,24.0,1.0,15.0,2.0,5.0,11.04536101718726,12.0,11.0,35.0,27.0,31.064449134018133,{}
151,523,0.0,80.30566605165541,5.0,10.0,20.09975124224178,20.39607805437113,23.40939982143925,37.8549864614954,28.16025568065745,27.0,17.0,24.0,1.5,16.5,3.5,5.5,12.041594578792296,13.0,12.0,35.0,27.0,29.017236257093817,{}
152,524,2.0,77.41446893184762,5.0,12.0,21.095023109728988,21.37755832643195,23.08679276123039,41.593268686170845,29.8328677803526,28.0,17.0,25.0,1.0,20.0,4.0,5.0,11.04536101718726,12.0,11.5,35.0,27.0,29.017236257093817,{}
153,525,3.0,74.33034373659252,5.0,12.0,18.110770276274835,19.235384061671343,24.04163056034261,43.56604182158393,31.78049716414141,29.5,21.0,28.0,1.5,18.5,2.5,3.5,12.16552506059644,13.0,12.5,35.0,25.0,28.0713376952364,{}
154,526,3.1622776601683795,70.34912934784623,6.0,12.0,18.110770276274835,20.39607805437113,23.769728648009423,44.28317965096906,32.38826948140329,30.5,22.0,29.0,2.5,18.5,2.5,2.5,11.04536101718726,12.041594578792296,11.5,36.0,28.0,30.066592756745816,{}
155,527,4.123105625617661,73.43704787094863,5.0,12.0,20.223748416156685,21.37755832643195,23.53720459187964,44.181444068749045,32.2490309931942,30.0,21.0,29.0,2.0,19.0,3.0,3.0,10.04987562112089,12.0,11.5,36.0,29.0,29.068883707497267,{}
156,528,4.0,69.46221994724903,5.0,13.0,19.235384061671343,20.223748416156685,23.53720459187964,45.27692569068709,32.38826948140329,30.0,22.0,30.0,3.0,19.0,3.0,2.0,12.041594578792296,13.0,12.5,34.0,28.0,30.14962686336267,{}
157,529,5.0,70.25667228100119,5.0,13.0,19.026297590440446,21.213203435596427,23.769728648009423,46.389654018972806,33.54101966249684,30.5,24.0,30.0,4.0,19.0,3.0,0.0,11.04536101718726,12.0,11.0,35.0,29.0,31.064449134018133,{}
158,530,5.0,72.24956747275377,5.0,12.0,21.095023109728988,21.213203435596427,23.769728648009423,45.39823785126467,33.54101966249684,30.5,24.0,30.0,4.0,18.0,2.0,1.0,11.0,12.0,11.5,35.0,27.0,30.066592756745816,{}
159,531,3.1622776601683795,71.34423592694787,5.0,11.0,19.1049731745428,19.235384061671343,24.73863375370596,43.28972164382672,32.38826948140329,30.5,23.0,30.0,2.5,16.5,2.5,2.5,11.04536101718726,12.0,11.5,34.0,28.0,31.016124838541646,{}
160,532,0.0,74.33034373659252,6.0,10.04987562112089,20.09975124224178,20.223748416156685,22.80350850198276,38.3275357934736,28.635642126552707,28.0,20.0,27.0,1.5,14.5,1.5,3.5,12.041594578792296,13.0,12.0,36.0,27.0,30.01666203960727,{}
161,533,1.4142135623730951,75.32595834106593,6.0,10.0,20.09975124224178,20.223748416156685,23.769728648009423,40.311288741492746,30.4138126514911,29.5,21.0,28.0,1.5,15.5,1.5,3.5,12.0,14.0356688476182,13.0,36.0,28.0,28.0178514522438,{}
162,534,1.0,72.3394774656273,6.0,10.04987562112089,20.09975124224178,21.213203435596427,23.769728648009423,40.311288741492746,30.59411708155671,29.5,21.0,28.0,1.5,15.5,1.5,3.5,12.041594578792296,13.038404810405298,12.5,35.0,27.0,27.073972741361768,{}
163,535,1.4142135623730951,78.63841300535,7.0,12.0,20.223748416156685,21.37755832643195,21.587033144922906,41.19465984809196,29.27456233660889,28.5,17.0,27.0,1.0,19.0,3.0,6.0,11.0,13.0,12.5,37.0,31.0,29.068883707497267,{}
164,536,2.0,76.4198926981712,5.0,10.0,20.09975124224178,21.213203435596427,23.769728648009423,40.44749683231337,30.59411708155671,29.0,21.0,29.0,2.0,15.0,1.0,3.0,12.041594578792296,13.0,12.0,34.0,24.0,27.0,{}
165,537,3.1622776601683795,72.56031973468694,5.0,11.0,20.223748416156685,21.37755832643195,23.769728648009423,42.2965719651132,31.400636936215164,29.5,21.0,30.0,2.5,16.5,2.5,3.5,12.041594578792296,13.0,12.5,35.0,29.0,30.066592756745816,{}
166,538,2.23606797749979,72.44308110509934,5.0,12.0,21.213203435596427,21.37755832643195,23.53720459187964,42.190046219457976,30.26549190084312,29.0,22.0,30.0,3.0,16.0,1.0,3.0,11.04536101718726,12.041594578792296,11.0,35.0,29.0,29.0,{}
167,539,3.605551275463989,77.64663547121665,7.0,11.04536101718726,21.37755832643195,22.36067977499789,22.56102834535696,43.04648650006177,32.14031735997639,30.5,19.0,29.0,2.0,19.0,4.0,5.0,11.180339887498947,12.0,12.0,37.0,30.0,33.13608305156178,{}
168,540,6.0,80.62257748298549,6.0,12.0,21.213203435596427,22.36067977499789,22.56102834535696,46.2709412050371,34.36568055487916,31.0,18.0,28.0,1.0,23.0,8.0,5.0,11.04536101718726,13.0,12.0,37.0,30.0,33.06055050963308,{}
169,541,5.0,82.60750571225353,7.0,13.038404810405298,21.213203435596427,22.56102834535696,23.769728648009423,48.25971404805462,35.510561809129406,32.5,19.0,29.0,1.0,24.0,7.0,5.0,12.041594578792296,13.0,12.0,35.0,25.0,29.017236257093817,{}
170,542,5.0,81.39410298049853,6.0,11.0,22.09072203437452,23.194827009486403,21.587033144922906,43.28972164382672,32.38826948140329,29.5,18.0,26.0,1.0,21.0,6.0,4.0,12.041594578792296,13.038404810405298,12.5,35.0,29.0,29.017236257093817,{}
171,543,2.0,81.61494961096282,6.082762530298219,11.04536101718726,23.08679276123039,23.345235059857504,22.80350850198276,41.19465984809196,30.4138126514911,29.0,16.0,26.0,1.0,20.0,5.0,6.0,11.180339887498947,12.0,11.5,35.0,25.0,29.017236257093817,{}
172,544,3.1622776601683795,74.33034373659252,5.0,11.0,20.09975124224178,21.213203435596427,23.769728648009423,42.2965719651132,31.400636936215164,29.5,20.0,27.0,0.5,18.5,3.5,4.5,12.0,12.0,11.5,34.0,26.0,30.066592756745816,{}
173,545,2.0,71.11258679024411,4.123105625617661,10.0,21.095023109728988,21.213203435596427,25.495097567963924,41.19465984809196,31.25699921617557,30.0,24.0,28.0,1.0,15.0,2.0,3.0,11.04536101718726,12.0,11.5,34.0,29.0,32.01562118716424,{}
174,546,2.0,68.26419266350405,6.082762530298219,13.038404810405298,21.095023109728988,22.09072203437452,24.515301344262525,45.09988913511872,32.2490309931942,31.0,24.0,30.0,3.0,18.0,2.0,2.0,11.04536101718726,12.0,11.5,33.0,24.0,28.0178514522438,{}
175,547,2.0,68.26419266350405,6.082762530298219,14.0356688476182,21.213203435596427,21.37755832643195,24.33105012119288,46.04345773288535,32.14031735997639,31.0,25.0,31.0,4.0,18.0,1.0,2.0,12.041594578792296,13.0,12.5,33.0,24.0,28.0713376952364,{}
176,548,3.1622776601683795,64.28063471995279,6.0,13.038404810405298,19.1049731745428,20.223748416156685,25.317977802344327,47.042533945356304,34.132096331752024,32.5,26.0,32.0,4.0,18.0,2.0,1.0,11.04536101718726,13.038404810405298,12.5,34.0,29.0,32.01562118716424,{}
177,549,2.0,68.26419266350405,7.0,13.038404810405298,21.213203435596427,21.213203435596427,25.317977802344327,47.09564735726647,34.23448553724738,33.0,27.0,33.0,5.0,17.0,1.0,2.0,12.041594578792296,12.0,11.5,35.0,29.0,28.0713376952364,{}
178,550,2.0,64.28063471995279,6.0,15.033296378372908,19.1049731745428,21.37755832643195,25.317977802344327,48.0936586256442,33.24154027718932,32.0,27.0,33.0,5.0,18.0,0.0,1.0,12.041594578792296,13.038404810405298,13.0,35.0,29.0,29.068883707497267,{}
179,551,1.4142135623730951,68.18357573492314,7.071067811865476,15.0,20.09975124224178,21.213203435596427,24.186773244895647,47.09564735726647,32.14031735997639,31.5,27.0,32.0,5.5,17.5,0.5,1.5,13.0,13.0,12.5,34.0,29.0,28.0178514522438,{}
180,552,2.0,69.26037828369117,7.0,13.0,18.027756377319943,19.235384061671343,25.495097567963924,47.265209192385896,34.36568055487916,33.0,27.0,33.0,5.0,17.0,0.0,1.0,13.038404810405298,14.0,13.0,34.0,29.0,29.017236257093817,{}
181,553,2.0,67.47592163134935,7.0,14.0,19.235384061671343,20.223748416156685,25.495097567963924,48.25971404805462,34.36568055487916,33.0,26.0,34.0,5.0,18.0,1.0,2.0,11.04536101718726,12.041594578792296,12.0,36.0,30.0,28.0713376952364,{}
182,554,3.1622776601683795,66.37017402418047,6.0,13.0,18.110770276274835,19.4164878389476,26.476404589747453,48.16637831516918,35.22782990761707,33.5,26.0,33.0,3.5,18.5,2.5,2.5,12.0,14.0356688476182,13.5,35.0,31.0,30.01666203960727,{}
183,555,6.0,69.46221994724903,5.0,13.038404810405298,20.223748416156685,21.213203435596427,26.476404589747453,50.15974481593781,37.33630940518894,34.0,25.0,33.0,3.0,21.0,5.0,3.0,11.0,13.038404810405298,12.5,34.0,28.0,30.0,{}
184,556,6.0,75.32595834106593,6.082762530298219,12.0,22.09072203437452,22.36067977499789,25.70992026436488,49.49747468305833,37.65634076752546,34.0,25.0,32.0,3.5,20.5,5.5,1.5,12.041594578792296,12.0,11.5,35.0,29.0,28.0,{}
185,557,4.0,71.25307010929424,6.082762530298219,13.0,20.223748416156685,21.213203435596427,25.495097567963924,48.373546489791295,35.510561809129406,33.0,26.0,32.0,4.0,19.0,3.0,2.0,12.0,13.038404810405298,12.0,35.0,32.0,27.0,{}
186,558,2.23606797749979,66.48308055437865,6.0,12.041594578792296,19.235384061671343,19.4164878389476,26.476404589747453,46.2709412050371,34.52535300326414,33.0,25.0,33.0,3.0,17.0,1.0,3.0,12.0,13.038404810405298,13.0,36.0,30.0,30.01666203960727,{}
187,559,1.0,69.26037828369117,6.082762530298219,12.041594578792296,20.09975124224178,20.09975124224178,25.317977802344327,44.181444068749045,32.38826948140329,31.5,26.0,32.0,4.0,15.0,0.0,2.0,12.041594578792296,13.0,12.5,34.0,29.0,29.017236257093817,{}
188,560,1.4142135623730951,72.24956747275377,6.0,12.041594578792296,20.09975124224178,21.213203435596427,24.515301344262525,43.28972164382672,31.575306807693888,30.5,26.0,32.0,5.0,14.0,1.0,1.0,12.041594578792296,14.0356688476182,13.0,34.0,29.0,28.0178514522438,{}
189,561,1.0,69.46221994724903,7.0,12.041594578792296,19.1049731745428,20.223748416156685,24.186773244895647,43.10452412450461,31.25699921617557,31.0,23.0,31.0,3.0,16.0,1.0,3.0,13.152946437965904,13.038404810405298,13.0,35.0,29.0,29.017236257093817,{}
190,562,1.0,74.33034373659252,5.0990195135927845,11.0,21.095023109728988,21.213203435596427,25.317977802344327,42.1070065428546,31.14482300479488,30.5,24.0,31.0,2.5,14.5,0.5,2.5,13.038404810405298,14.0356688476182,13.0,35.0,27.0,31.0,{}
191,563,0.0,74.43117626371358,7.0,10.04987562112089,23.194827009486403,23.345235059857504,25.317977802344327,42.1070065428546,32.2490309931942,32.0,23.0,31.0,2.0,15.0,1.0,4.0,13.038404810405298,13.038404810405298,13.0,33.0,25.0,32.01562118716424,{}
192,564,2.23606797749979,73.55270219373317,7.0,12.041594578792296,21.095023109728988,21.37755832643195,25.079872407968907,46.04345773288535,34.132096331752024,33.0,23.0,32.0,2.5,18.5,2.5,3.5,14.0356688476182,14.0356688476182,14.0,36.0,29.0,31.14482300479488,{}
193,565,3.0,76.6550715869472,6.0,12.041594578792296,22.20360331117452,23.345235059857504,26.1725046566048,47.042533945356304,35.12833614050059,33.5,23.0,33.0,2.0,19.0,3.0,4.0,12.16552506059644,14.0356688476182,13.5,35.0,27.0,32.0624390837628,{}
194,566,3.0,76.6550715869472,6.082762530298219,12.041594578792296,22.20360331117452,22.36067977499789,26.1725046566048,47.01063709417264,35.05709628591621,33.5,24.0,34.0,3.0,18.0,2.0,3.0,13.038404810405298,14.0,14.0,36.0,28.0,32.0624390837628,{}
195,567,4.123105625617661,74.54528824815154,7.0,12.16552506059644,21.213203435596427,21.37755832643195,25.079872407968907,48.010415536631214,36.013886210738214,34.0,25.0,34.0,4.5,18.5,2.5,2.5,13.038404810405298,14.0,13.5,37.0,26.0,31.14482300479488,{}
196,568,4.0,73.55270219373317,7.0,11.180339887498947,21.213203435596427,22.20360331117452,25.179356624028344,47.01063709417264,36.12478373637688,34.0,26.0,35.0,5.5,16.5,2.5,1.5,14.142135623730953,15.0,14.0,37.0,26.0,32.2490309931942,{}
197,569,6.0,74.54528824815154,7.0,14.142135623730953,20.223748416156685,20.223748416156685,25.079872407968907,52.0,38.05259518088089,35.0,27.0,36.0,6.5,20.5,2.5,0.5,13.038404810405298,14.0,13.5,37.0,24.0,32.14031735997639,{}
198,570,5.0,72.44308110509934,6.0,13.038404810405298,20.09975124224178,21.213203435596427,26.019223662515376,50.0,37.01351104664349,34.5,28.0,36.0,6.0,18.0,2.0,0.0,13.152946437965904,14.0,13.5,37.0,25.0,31.25699921617557,{}
199,571,5.0,73.33484846919642,7.0,14.0356688476182,20.09975124224178,21.213203435596427,26.0,52.009614495783374,38.0,35.5,29.0,36.0,6.5,19.5,2.5,0.5,14.0356688476182,14.0,13.5,36.0,24.0,33.24154027718932,{}
200,572,4.0,72.44308110509934,7.0,13.152946437965904,20.09975124224178,20.223748416156685,27.0,51.03920062069938,38.0,36.0,30.0,38.0,7.0,17.0,1.0,0.0,15.132745950421556,15.0,14.5,37.0,25.0,33.37663853655727,{}
201,573,5.0,75.53806987208503,7.071067811865476,14.142135623730953,21.095023109728988,21.37755832643195,27.018512172212592,53.03772242470448,39.0,36.5,30.0,39.0,7.5,18.5,1.5,0.5,14.142135623730953,14.0,14.0,37.0,24.0,33.37663853655727,{}
202,574,4.0,72.44308110509934,8.0,12.16552506059644,19.235384061671343,19.4164878389476,26.0,50.039984012787215,38.0,36.0,29.0,37.0,7.0,17.0,2.0,1.0,15.033296378372908,15.0,15.5,37.0,25.0,34.23448553724738,{}
203,575,4.123105625617661,73.43704787094863,7.0,12.041594578792296,20.09975124224178,20.223748416156685,27.0,50.039984012787215,38.01315561749642,36.0,30.0,38.0,7.0,16.0,1.0,0.0,15.132745950421556,15.0,15.0,39.0,25.0,34.23448553724738,{}
204,576,5.0,72.44308110509934,7.071067811865476,12.16552506059644,20.09975124224178,20.39607805437113,26.0,50.08991914547278,38.01315561749642,35.5,29.0,37.0,7.0,17.0,2.0,0.0,15.132745950421556,16.0,15.5,39.0,24.0,34.36568055487916,{}
205,577,5.0,73.55270219373317,7.071067811865476,13.152946437965904,20.223748416156685,21.213203435596427,26.019223662515376,51.03920062069938,38.0,35.5,29.0,38.0,7.5,17.5,1.5,0.5,15.132745950421556,15.0,15.0,39.0,25.0,35.35533905932738,{}
206,578,4.0,75.53806987208503,7.071067811865476,12.16552506059644,22.09072203437452,22.20360331117452,27.018512172212592,50.039984012787215,38.0,36.0,30.0,39.0,7.5,15.5,0.5,0.5,14.0356688476182,16.0,15.0,38.0,23.0,36.22154055254967,{}
207,579,6.0,74.43117626371358,6.0,12.16552506059644,22.09072203437452,22.20360331117452,28.0178514522438,52.08646657242167,40.01249804748511,37.0,31.0,39.0,7.0,17.0,2.0,1.0,14.142135623730953,15.033296378372908,15.0,37.0,24.0,31.25699921617557,{}
208,580,6.0,74.54528824815154,7.071067811865476,11.04536101718726,21.213203435596427,22.36067977499789,27.0,51.03920062069938,40.01249804748511,37.0,31.0,40.0,8.5,15.5,1.5,0.5,16.1245154965971,16.0,16.0,37.0,25.0,35.22782990761707,{}
209,581,6.0,72.44308110509934,7.071067811865476,12.16552506059644,21.095023109728988,21.213203435596427,27.0,52.08646657242167,40.01249804748511,37.0,31.0,39.0,8.0,17.0,2.0,1.0,15.132745950421556,15.0,14.5,37.0,24.0,35.22782990761707,{}
210,582,5.0,73.43704787094863,7.0,11.180339887498947,20.09975124224178,21.213203435596427,28.0178514522438,51.0881590977792,40.01249804748511,37.5,31.0,39.0,7.0,16.0,2.0,0.0,14.0356688476182,15.0,15.0,36.0,24.0,32.14031735997639,{}
211,583,6.0,73.43704787094863,7.0,12.16552506059644,20.09975124224178,20.223748416156685,28.0713376952364,53.150729063673246,41.04875150354759,38.0,32.0,40.0,8.0,17.0,2.0,1.0,16.0312195418814,17.0,16.5,37.0,25.0,36.12478373637688,{}
212,584,6.0,73.33484846919642,6.082762530298219,13.038404810405298,21.095023109728988,21.213203435596427,29.0,54.037024344425184,41.01219330881976,38.0,33.0,40.0,7.5,17.5,2.5,1.5,14.142135623730953,14.0356688476182,14.0,35.0,24.0,33.13608305156178,{}
213,585,6.0,73.33484846919642,7.0,11.180339887498947,20.09975124224178,21.213203435596427,28.0178514522438,52.08646657242167,41.01219330881976,38.0,33.0,40.0,8.5,15.5,1.5,1.5,15.033296378372908,15.033296378372908,15.0,36.0,26.0,34.132096331752024,{}
214,586,6.0,73.24616030891995,6.0,10.04987562112089,22.09072203437452,22.09072203437452,28.0,50.00999900019995,40.0,37.0,33.0,39.0,8.0,14.0,2.0,2.0,14.0356688476182,15.033296378372908,14.5,35.0,26.0,33.13608305156178,{}
215,587,6.0,74.24284477308234,7.0,10.04987562112089,21.02379604162864,22.09072203437452,28.0178514522438,51.0,41.01219330881976,38.0,34.0,40.0,9.0,14.0,2.0,3.0,14.0356688476182,14.0,14.0,33.0,26.0,36.013886210738214,{}
216,588,6.0,75.16648189186454,7.0,11.04536101718726,21.02379604162864,22.09072203437452,29.0,53.009433122794285,42.0,39.0,35.0,40.0,8.5,15.5,1.5,2.5,15.033296378372908,15.033296378372908,15.0,33.0,27.0,34.0147027033899,{}
217,589,5.0990195135927845,76.10519036176179,7.0,11.04536101718726,22.02271554554524,22.09072203437452,28.0,51.0,40.01249804748511,37.5,35.0,39.0,9.0,14.0,1.0,3.0,15.033296378372908,15.033296378372908,15.0,33.0,29.0,34.0,{}
218,590,6.0,76.10519036176179,7.0,11.04536101718726,22.02271554554524,23.08679276123039,28.0,52.009614495783374,41.0,38.0,36.0,40.0,10.0,14.0,1.0,4.0,16.0,16.0,15.5,32.0,28.0,32.01562118716424,{}
219,591,5.0,77.05841939723393,7.0,12.041594578792296,22.02271554554524,22.02271554554524,29.0,53.009433122794285,41.0,38.5,37.0,40.0,9.5,14.5,0.5,2.5,15.033296378372908,15.0,15.5,33.0,30.0,31.0,{}
220,592,5.0,75.05997601918082,7.0,13.0,23.0,22.02271554554524,29.0,54.0,41.0,38.5,38.0,41.0,10.5,14.5,0.5,4.5,14.0356688476182,15.033296378372908,15.0,33.0,30.0,33.0,{}
221,593,3.1622776601683795,75.02666192761077,7.0,12.041594578792296,21.02379604162864,21.02379604162864,28.0,50.0,38.01315561749642,36.5,37.0,39.0,10.0,12.0,1.0,3.0,15.0,15.0,14.5,34.0,30.0,35.0,{}
222,594,3.0,78.02563681252464,7.0,10.04987562112089,22.02271554554524,23.021728866442675,29.0,49.01020301937138,39.0,37.5,37.0,39.0,9.0,11.0,1.0,2.0,15.0,15.033296378372908,15.0,33.0,30.0,37.01351104664349,{}
223,595,2.0,77.05841939723393,7.0,10.0,21.0,21.0,28.0178514522438,47.01063709417264,37.01351104664349,36.0,35.0,38.0,8.5,10.5,1.5,2.5,14.0356688476182,16.0,15.0,32.0,30.0,36.013886210738214,{}
224,596,2.0,80.02499609497022,7.0,10.04987562112089,24.020824298928627,23.021728866442675,28.0178514522438,47.0,37.01351104664349,36.0,36.0,38.0,9.0,10.0,2.0,3.0,14.0,15.033296378372908,14.0,33.0,31.0,35.0142828000232,{}
225,597,2.0,78.05767098754612,7.0,12.041594578792296,22.0,23.0,29.017236257093817,50.0,38.01315561749642,37.0,37.0,40.0,9.5,11.5,2.5,3.5,14.0,14.0,13.5,34.0,30.0,37.0,{}
226,598,3.0,76.10519036176179,8.0,14.0,22.0,23.021728866442675,28.0,53.0,39.0,37.5,37.0,41.0,11.0,14.0,1.0,4.0,15.0,17.029386365926403,16.5,33.0,30.0,34.0,{}
227,599,3.1622776601683795,76.10519036176179,8.0,13.0,21.02379604162864,22.02271554554524,28.0178514522438,52.03844732503075,39.05124837953327,37.5,38.0,42.0,12.0,12.0,2.0,4.0,15.033296378372908,16.0312195418814,15.5,33.0,29.0,37.0,{}
228,600,3.0,75.05997601918082,8.0,13.038404810405298,21.02379604162864,22.02271554554524,28.0,52.009614495783374,39.0,37.5,38.0,41.0,11.5,12.5,2.5,3.5,15.033296378372908,15.033296378372908,14.5,34.0,29.0,35.0142828000232,{}
229,601,3.0,76.05918747922567,8.0,13.038404810405298,22.02271554554524,22.09072203437452,28.0178514522438,52.03844732503075,39.01281840626232,37.5,38.0,41.0,11.5,12.5,1.5,3.5,16.0,16.0312195418814,16.0,33.0,30.0,37.01351104664349,{}
230,602,3.0,76.05918747922567,8.0,13.038404810405298,21.095023109728988,22.02271554554524,29.0,53.009433122794285,40.0,38.5,39.0,42.0,11.5,12.5,1.5,3.5,15.033296378372908,15.033296378372908,15.0,35.0,32.0,38.0,{}
231,603,3.0,75.05997601918082,8.0,12.0,21.02379604162864,21.095023109728988,30.0,53.0,41.0,39.5,38.0,41.0,9.5,13.5,0.5,2.5,14.0356688476182,15.0,15.0,34.0,30.0,34.058772731852805,{}
232,604,2.0,75.05997601918082,6.082762530298219,13.038404810405298,21.0,22.02271554554524,32.0,53.03772242470448,40.01249804748511,39.0,38.0,41.0,7.5,13.5,1.5,2.5,16.0312195418814,17.0,16.5,34.0,30.0,35.0142828000232,{}
233,605,1.4142135623730951,74.06078584514209,7.0,11.04536101718726,22.02271554554524,22.09072203437452,32.01562118716424,51.0098029794274,40.049968789001575,39.5,38.0,41.0,7.5,11.5,1.5,1.5,14.0,15.033296378372908,14.5,33.0,28.0,31.016124838541646,{}
234,606,2.0,75.05997601918082,7.0,11.180339887498947,21.02379604162864,21.095023109728988,31.0,51.03920062069938,40.0,39.0,38.0,41.0,8.5,11.5,1.5,2.5,14.0356688476182,16.0312195418814,16.0,34.0,30.0,35.0142828000232,{}
235,607,3.1622776601683795,72.02777242147643,7.071067811865476,13.038404810405298,21.02379604162864,21.02379604162864,32.01562118716424,55.0,42.01190307520001,40.5,40.0,42.0,9.0,14.0,1.0,3.0,15.0,16.0,15.5,34.0,30.0,35.0,{}
236,608,2.0,72.00694410957877,7.0,12.041594578792296,18.027756377319943,19.026297590440446,34.0,55.00909015790027,43.0,42.0,42.0,43.0,8.5,12.5,1.5,2.5,16.0312195418814,16.0312195418814,16.0,34.0,30.0,34.0147027033899,{}
237,609,2.0,74.02702209328699,7.0,10.04987562112089,18.027756377319943,19.0,35.0142828000232,54.0,44.01136216933077,43.0,41.0,43.0,7.0,12.0,0.0,1.0,11.0,12.041594578792296,11.0,34.0,31.0,35.0142828000232,{}
238,610,4.0,75.0066663703967,7.0,11.04536101718726,20.024984394500787,20.024984394500787,33.015148038438355,55.0,44.01136216933077,42.0,41.0,42.0,8.5,13.5,0.5,2.5,8.0,9.055385138137416,9.0,36.0,34.0,34.0147027033899,{}
239,611,4.0,77.02596964660685,7.0,11.04536101718726,21.02379604162864,21.02379604162864,33.015148038438355,55.0,44.01136216933077,42.0,39.0,41.0,7.0,15.0,1.0,1.0,10.0,10.04987562112089,10.0,36.0,33.0,36.013886210738214,{}
240,612,4.0,76.05918747922567,7.071067811865476,12.0,22.0,23.0,31.016124838541646,54.0,42.0,40.0,37.0,40.0,7.5,15.5,1.5,2.5,12.041594578792296,13.0,12.5,36.0,32.0,36.013886210738214,{}
241,613,5.0,75.05997601918082,7.071067811865476,12.041594578792296,21.0,22.09072203437452,31.0,55.03635162326805,43.01162633521314,40.5,37.0,40.0,7.5,16.5,2.5,1.5,13.0,13.0,12.5,34.0,29.0,37.05401462729781,{}
242,614,7.0,69.1158447825099,6.082762530298219,12.041594578792296,19.026297590440446,20.09975124224178,32.0,57.0350769263968,45.0111097397076,41.5,38.0,42.0,8.0,17.0,3.0,2.0,14.0356688476182,15.0,14.5,36.0,30.0,32.01562118716424,{}
243,615,3.1622776601683795,68.0294054067798,7.071067811865476,14.0356688476182,19.026297590440446,21.095023109728988,32.01562118716424,56.0,42.01190307520001,40.5,39.0,41.0,8.0,16.0,0.0,2.0,13.0,14.0,13.5,34.0,28.0,32.0624390837628,{}
244,616,3.0,69.06518659932803,6.0,16.0,18.027756377319943,19.1049731745428,31.016124838541646,56.00892785976178,40.01249804748511,38.5,38.0,41.0,8.5,16.5,1.5,2.5,14.0,14.0356688476182,14.0,33.0,28.0,32.01562118716424,{}
245,617,2.0,69.1158447825099,7.0,13.038404810405298,18.027756377319943,18.110770276274835,32.01562118716424,54.037024344425184,41.01219330881976,40.0,38.0,42.0,8.0,14.0,1.0,2.0,13.038404810405298,15.033296378372908,14.5,35.0,28.0,33.13608305156178,{}
246,618,2.0,69.18092222571191,7.0,16.0312195418814,19.1049731745428,20.09975124224178,31.016124838541646,56.0357029044876,40.01249804748511,39.0,38.0,43.0,9.5,15.5,2.5,2.5,14.0356688476182,15.0,14.0,34.0,28.0,34.058772731852805,{}
247,619,4.0,68.11754546370561,7.0,16.0312195418814,18.110770276274835,18.027756377319943,30.01666203960727,57.0350769263968,41.01219330881976,39.0,38.0,42.0,10.0,17.0,1.0,3.0,15.033296378372908,15.033296378372908,15.0,33.0,27.0,33.06055050963308,{}
248,620,2.0,71.17583859709698,7.071067811865476,15.033296378372908,17.029386365926403,18.027756377319943,32.0,56.0357029044876,41.01219330881976,40.0,37.0,42.0,7.5,16.5,0.5,1.5,13.152946437965904,14.0,14.0,33.0,27.0,34.058772731852805,{}
249,621,3.0,73.17103251970687,6.082762530298219,14.0356688476182,19.026297590440446,20.09975124224178,33.0,56.0357029044876,42.01190307520001,40.5,36.0,41.0,5.5,17.5,1.5,0.5,14.0356688476182,15.033296378372908,14.5,33.0,27.0,33.13608305156178,{}
250,622,4.0,72.17340230306452,6.0,10.198039027185567,18.027756377319943,19.1049731745428,33.015148038438355,53.08483775994799,43.01162633521314,41.0,36.0,41.0,5.5,14.5,2.5,0.5,14.0356688476182,15.033296378372908,15.0,33.0,26.0,32.0624390837628,{}
251,623,4.0,76.16429609731846,6.0,10.198039027185567,20.024984394500787,21.095023109728988,31.0,51.03920062069938,41.0,39.0,35.0,40.0,6.5,13.5,1.5,1.5,14.0356688476182,13.0,13.0,34.0,26.0,39.11521443121589,{}
252,624,7.0,72.17340230306452,6.082762530298219,11.04536101718726,19.026297590440446,19.1049731745428,29.017236257093817,53.009433122794285,42.0,38.5,35.0,40.0,8.5,15.5,2.5,2.5,13.038404810405298,14.0356688476182,14.0,33.0,25.0,33.06055050963308,{}
253,625,5.0,72.17340230306452,8.0,13.038404810405298,19.026297590440446,20.09975124224178,27.018512172212592,53.03772242470448,40.01249804748511,37.5,35.0,40.0,10.5,15.5,0.5,2.5,14.0356688476182,15.033296378372908,14.5,34.0,26.0,32.14031735997639,{}
254,626,4.0,71.11258679024411,6.082762530298219,12.041594578792296,20.024984394500787,20.09975124224178,27.0,49.04079934095692,37.01351104664349,35.0,35.0,39.0,10.0,12.0,2.0,4.0,13.0,14.0,14.0,33.0,24.0,33.06055050963308,{}
255,627,3.0,73.10950690573696,6.082762530298219,14.142135623730953,21.02379604162864,22.02271554554524,26.019223662515376,49.16299421312742,35.05709628591621,33.5,32.0,36.0,8.0,15.0,1.0,3.0,13.038404810405298,13.0,13.5,34.0,27.0,33.13608305156178,{}
256,628,2.23606797749979,75.16648189186454,6.082762530298219,14.142135623730953,23.08679276123039,23.08679276123039,26.0,48.16637831516918,34.058772731852805,33.0,31.0,36.0,7.5,14.5,1.5,2.5,13.038404810405298,13.038404810405298,13.0,34.0,26.0,33.13608305156178,{}
257,629,4.123105625617661,76.16429609731846,6.0,15.132745950421556,22.02271554554524,24.020824298928627,25.019992006393608,50.15974481593781,35.05709628591621,33.0,30.0,35.0,7.5,17.5,0.5,2.5,13.038404810405298,13.0,13.5,34.0,26.0,32.0624390837628,{}
258,630,4.123105625617661,74.16872656315464,6.0,17.11724276862369,21.095023109728988,22.09072203437452,25.019992006393608,52.15361924162119,35.05709628591621,33.0,32.0,37.0,9.5,17.5,0.5,3.5,14.142135623730953,14.0,13.5,33.0,26.0,33.13608305156178,{}
259,631,4.47213595499958,72.24956747275377,6.0,16.1245154965971,20.09975124224178,21.02379604162864,26.019223662515376,52.23983154643591,36.12478373637688,34.0,33.0,39.0,10.0,16.0,2.0,4.0,14.0356688476182,15.0,14.5,33.0,26.0,33.13608305156178,{}
260,632,5.0990195135927845,74.24284477308234,6.0,13.038404810405298,21.095023109728988,22.09072203437452,27.0,51.03920062069938,38.01315561749642,35.5,34.0,40.0,10.0,14.0,1.0,4.0,12.0,13.038404810405298,13.0,33.0,24.0,35.12833614050059,{}
261,633,5.0,74.33034373659252,6.082762530298219,12.16552506059644,20.09975124224178,20.09975124224178,27.018512172212592,50.15974481593781,38.05259518088089,35.5,32.0,39.0,8.5,14.5,0.5,2.5,12.041594578792296,13.0,13.0,32.0,24.0,32.0624390837628,{}
262,634,5.0,68.26419266350405,7.071067811865476,12.16552506059644,19.1049731745428,20.09975124224178,26.0,50.08991914547278,38.01315561749642,35.5,33.0,39.0,10.0,14.0,0.0,3.0,13.038404810405298,14.0,14.0,34.0,26.0,33.13608305156178,{}
263,635,6.0,69.18092222571191,6.082762530298219,11.04536101718726,19.026297590440446,19.1049731745428,26.019223662515376,49.09175083453431,38.05259518088089,35.0,33.0,38.0,9.5,13.5,0.5,3.5,14.0356688476182,14.0,14.0,33.0,23.0,34.132096331752024,{}
264,636,5.0,72.24956747275377,7.0,12.041594578792296,20.024984394500787,20.09975124224178,27.018512172212592,51.03920062069938,39.01281840626232,36.5,34.0,40.0,10.0,14.0,0.0,4.0,12.041594578792296,13.0,13.0,34.0,25.0,36.12478373637688,{}
265,637,4.0,70.25667228100119,7.0,12.16552506059644,20.024984394500787,21.095023109728988,27.073972741361768,50.15974481593781,38.05259518088089,36.0,34.0,40.0,10.0,13.0,1.0,4.0,13.038404810405298,14.0,14.0,34.0,26.0,34.132096331752024,{}
266,638,6.0,70.34912934784623,6.0,11.180339887498947,19.026297590440446,20.09975124224178,28.0178514522438,51.0881590977792,40.01249804748511,37.0,34.0,41.0,9.5,13.5,0.5,3.5,14.0356688476182,14.0,13.5,34.0,25.0,34.058772731852805,{}
267,639,4.123105625617661,71.25307010929424,7.071067811865476,12.16552506059644,19.026297590440446,19.1049731745428,27.018512172212592,50.08991914547278,38.01315561749642,36.0,34.0,40.0,10.0,13.0,0.0,3.0,14.0356688476182,14.0,13.5,35.0,26.0,34.132096331752024,{}
268,640,4.0,69.26037828369117,7.071067811865476,13.038404810405298,19.1049731745428,19.026297590440446,27.018512172212592,51.0881590977792,38.05259518088089,36.0,33.0,39.0,9.0,15.0,0.0,2.0,14.0356688476182,15.0,14.5,34.0,23.0,34.058772731852805,{}
269,641,7.0,72.24956747275377,8.0,12.041594578792296,21.095023109728988,21.095023109728988,26.019223662515376,53.03772242470448,41.01219330881976,37.5,34.0,40.0,11.0,16.0,2.0,3.0,14.0356688476182,15.0,14.5,34.0,26.0,33.13608305156178,{}
270,642,8.0,74.16872656315464,7.071067811865476,13.038404810405298,21.02379604162864,22.09072203437452,26.0,54.037024344425184,41.01219330881976,37.0,34.0,39.0,10.5,17.5,2.5,3.5,13.038404810405298,14.0,13.5,33.0,25.0,32.14031735997639,{}
271,643,5.0,73.24616030891995,6.082762530298219,13.038404810405298,20.09975124224178,21.095023109728988,28.0,52.03844732503075,39.01281840626232,36.5,33.0,39.0,8.0,16.0,1.0,2.0,13.038404810405298,14.0,13.5,34.0,26.0,32.0624390837628,{}
272,644,3.1622776601683795,73.17103251970687,7.071067811865476,11.04536101718726,22.02271554554524,21.02379604162864,27.0,48.0936586256442,37.05401462729781,35.5,34.0,39.0,9.5,11.5,1.5,3.5,13.038404810405298,14.0,14.5,35.0,24.0,33.13608305156178,{}
273,645,4.0,72.24956747275377,7.071067811865476,12.041594578792296,20.024984394500787,21.02379604162864,27.018512172212592,50.00999900019995,38.0,36.0,33.0,39.0,9.0,14.0,0.0,3.0,15.033296378372908,15.0,14.5,35.0,26.0,32.14031735997639,{}
274,646,5.0990195135927845,71.25307010929424,7.0,12.041594578792296,21.02379604162864,21.095023109728988,27.0,51.03920062069938,39.01281840626232,36.5,33.0,39.0,9.0,15.0,1.0,3.0,13.152946437965904,14.0,14.0,35.0,26.0,36.013886210738214,{}
275,647,4.0,74.16872656315464,6.0,12.041594578792296,19.026297590440446,20.09975124224178,27.018512172212592,49.04079934095692,37.01351104664349,35.0,33.0,38.0,8.5,13.5,0.5,2.5,15.132745950421556,15.0,15.0,34.0,26.0,37.05401462729781,{}
276,648,4.123105625617661,73.17103251970687,7.071067811865476,13.152946437965904,21.02379604162864,22.02271554554524,27.018512172212592,51.0881590977792,38.01315561749642,36.0,33.0,38.0,8.5,15.5,0.5,2.5,13.038404810405298,15.033296378372908,14.5,36.0,27.0,38.05259518088089,{}
277,649,5.0,71.25307010929424,7.0,13.038404810405298,19.026297590440446,20.09975124224178,26.0768096208106,51.0881590977792,38.05259518088089,35.5,32.0,38.0,9.0,16.0,1.0,3.0,14.0356688476182,16.0,15.5,35.0,26.0,38.05259518088089,{}
278,650,5.0,72.17340230306452,5.0990195135927845,14.0356688476182,20.024984394500787,21.095023109728988,27.018512172212592,51.0881590977792,37.05401462729781,34.5,33.0,38.0,8.5,15.5,0.5,3.5,15.033296378372908,16.0,15.5,35.0,27.0,35.0142828000232,{}
279,651,5.0990195135927845,70.25667228100119,6.0,11.04536101718726,20.09975124224178,20.09975124224178,26.0,48.04164859785725,37.01351104664349,34.5,32.0,38.0,9.0,13.0,0.0,3.0,13.152946437965904,13.0,13.5,35.0,24.0,36.22154055254967,{}
280,652,4.123105625617661,71.17583859709698,6.0,15.033296378372908,22.02271554554524,23.08679276123039,26.0768096208106,51.15662224971465,36.12478373637688,34.0,32.0,37.0,8.5,16.5,1.5,3.5,14.0356688476182,15.0,15.0,33.0,25.0,32.14031735997639,{}
281,653,2.23606797749979,71.17583859709698,6.0,15.033296378372908,20.09975124224178,21.095023109728988,26.0768096208106,49.16299421312742,34.132096331752024,33.0,31.0,36.0,7.5,15.5,1.5,2.5,14.142135623730953,15.033296378372908,15.0,34.0,26.0,33.24154027718932,{}
282,654,2.0,72.17340230306452,6.082762530298219,14.142135623730953,22.09072203437452,23.08679276123039,26.0,48.0936586256442,34.0147027033899,33.0,30.0,35.0,6.5,15.5,0.5,1.5,14.0356688476182,15.033296378372908,15.0,34.0,25.0,33.24154027718932,{}
283,655,3.1622776601683795,73.17103251970687,6.0,15.132745950421556,22.09072203437452,23.08679276123039,26.019223662515376,50.15974481593781,35.05709628591621,33.5,31.0,36.0,7.5,16.5,0.5,2.5,14.0356688476182,14.0,14.0,33.0,24.0,32.14031735997639,{}
284,656,2.0,72.17340230306452,6.082762530298219,13.152946437965904,21.02379604162864,21.095023109728988,27.0,48.0936586256442,35.0142828000232,34.0,33.0,38.0,8.5,12.5,2.5,3.5,14.0356688476182,15.0,15.0,34.0,24.0,35.22782990761707,{}
285,657,3.1622776601683795,72.17340230306452,6.082762530298219,12.16552506059644,20.09975124224178,21.095023109728988,27.018512172212592,48.0936586256442,36.013886210738214,34.5,33.0,38.0,8.5,12.5,1.5,2.5,13.038404810405298,14.0,14.0,34.0,24.0,36.05551275463989,{}
286,658,4.0,70.25667228100119,6.0,12.041594578792296,20.09975124224178,20.09975124224178,26.019223662515376,48.04164859785725,36.013886210738214,34.0,31.0,37.0,8.0,14.0,0.0,2.0,15.132745950421556,16.0,16.0,34.0,25.0,34.132096331752024,{}
287,659,3.0,73.24616030891995,6.0,11.04536101718726,20.09975124224178,20.09975124224178,26.0,46.01086828130936,35.0,33.5,31.0,37.0,8.0,12.0,1.0,2.0,15.033296378372908,15.0,15.0,33.0,26.0,36.12478373637688,{}
288,660,2.0,75.16648189186454,6.0,11.04536101718726,22.09072203437452,22.09072203437452,26.019223662515376,45.044422518220834,34.0147027033899,33.0,31.0,36.0,7.5,11.5,1.5,1.5,14.0356688476182,15.0,15.0,34.0,26.0,40.11234224026316,{}
289,661,2.23606797749979,76.10519036176179,7.0,13.038404810405298,21.02379604162864,22.09072203437452,25.0,47.042533945356304,34.0147027033899,33.0,31.0,35.0,8.0,14.0,1.0,2.0,15.033296378372908,15.0,15.0,34.0,27.0,39.01281840626232,{}
290,662,2.0,78.16009211867653,7.071067811865476,11.180339887498947,23.08679276123039,23.08679276123039,25.0,45.09988913511872,34.0147027033899,33.0,30.0,35.0,7.5,12.5,0.5,0.5,13.038404810405298,14.0356688476182,14.0,33.0,24.0,35.05709628591621,{}
291,663,3.0,78.16009211867653,6.082762530298219,11.04536101718726,21.02379604162864,21.095023109728988,26.0,46.04345773288535,35.0142828000232,33.5,30.0,35.0,6.5,13.5,0.5,0.5,14.0356688476182,15.0,15.0,34.0,28.0,38.05259518088089,{}
292,664,2.0,78.10249675906654,7.0,10.04987562112089,21.02379604162864,21.02379604162864,25.0,44.01136216933077,34.0,33.0,29.0,33.0,6.0,13.0,0.0,0.0,14.0356688476182,14.0356688476182,14.0,34.0,26.0,37.12142238654117,{}
293,665,2.0,80.09993757800315,7.0,10.04987562112089,21.095023109728988,22.09072203437452,25.0,44.01136216933077,34.0,33.0,29.0,33.0,6.0,13.0,1.0,1.0,15.033296378372908,15.0,15.0,34.0,28.0,37.12142238654117,{}
294,666,2.0,80.15609770940699,6.0,10.0,22.0,22.02271554554524,26.0,44.0,34.0,33.0,29.0,34.0,5.5,12.5,0.5,0.5,14.0,14.0,13.5,32.0,24.0,35.05709628591621,{}
295,667,1.0,82.09750300709517,7.0,10.04987562112089,22.02271554554524,22.02271554554524,25.019992006393608,43.04648650006177,33.015148038438355,32.5,27.0,31.0,4.0,14.0,2.0,2.0,16.0,16.0312195418814,15.5,33.0,28.0,33.015148038438355,{}
296,668,1.4142135623730951,82.09750300709517,8.0,9.0,22.0,22.02271554554524,25.019992006393608,43.04648650006177,34.058772731852805,33.5,27.0,31.0,4.0,14.0,3.0,2.0,14.0356688476182,15.0,14.5,32.0,26.0,33.015148038438355,{}
297,669,2.0,82.09750300709517,7.0,10.04987562112089,25.019992006393608,24.020824298928627,24.0,43.01162633521314,33.0,32.0,25.0,29.0,3.0,16.0,4.0,3.0,11.04536101718726,10.0,10.0,32.0,20.0,35.35533905932738,{}
298,670,4.0,84.09518416651456,7.071067811865476,12.041594578792296,23.021728866442675,23.021728866442675,25.0,48.04164859785725,36.013886210738214,34.0,26.0,30.0,3.0,20.0,6.0,3.0,14.0356688476182,14.0356688476182,14.0,34.0,25.0,38.2099463490856,{}
299,671,8.06225774829855,84.09518416651456,8.0,13.0,23.0,23.021728866442675,25.0,54.00925846556311,41.01219330881976,37.0,29.0,33.0,6.0,23.0,9.0,1.0,13.038404810405298,13.038404810405298,12.5,33.0,23.0,36.05551275463989,{}
300,672,8.06225774829855,83.09632964216891,8.06225774829855,11.04536101718726,25.0,25.019992006393608,26.019223662515376,53.0,42.01190307520001,38.0,30.0,34.0,6.0,21.0,8.0,0.0,14.0356688476182,14.0356688476182,14.0,32.0,26.0,33.06055050963308,{}
301,673,8.0,81.09870529176159,7.0,11.04536101718726,22.02271554554524,23.021728866442675,25.0,51.0098029794274,40.0,36.0,29.0,33.0,6.0,20.0,7.0,0.0,14.0356688476182,14.0,14.0,33.0,26.0,35.05709628591621,{}
302,674,4.0,77.05841939723393,6.0,11.04536101718726,22.02271554554524,21.02379604162864,25.0,46.01086828130936,35.0,33.0,30.0,33.0,6.5,14.5,1.5,0.5,15.033296378372908,14.0,14.5,33.0,27.0,34.132096331752024,{}
303,675,1.0,74.06078584514209,6.0,11.0,21.02379604162864,21.095023109728988,25.0,43.0,32.0,31.5,30.0,33.0,6.5,11.5,1.5,1.5,14.0356688476182,14.0356688476182,14.0,33.0,26.0,35.12833614050059,{}
304,676,3.0,76.10519036176179,5.0,11.04536101718726,24.08318915758459,24.08318915758459,25.0,44.01136216933077,33.0,31.5,30.0,34.0,7.0,12.0,1.0,2.0,14.0356688476182,15.0,15.0,33.0,26.0,34.058772731852805,{}
305,677,2.0,78.10249675906654,6.0,13.038404810405298,23.021728866442675,23.021728866442675,25.019992006393608,46.04345773288535,33.015148038438355,32.0,30.0,34.0,7.0,14.0,1.0,2.0,14.0,14.0,14.0,34.0,26.0,36.12478373637688,{}
306,678,3.0,74.10802925459562,6.082762530298219,13.152946437965904,23.0,23.021728866442675,25.019992006393608,47.16990566028302,34.058772731852805,32.5,31.0,35.0,8.0,14.0,1.0,4.0,13.152946437965904,14.0,14.0,32.0,24.0,33.13608305156178,{}
307,679,4.123105625617661,74.16872656315464,6.082762530298219,14.0356688476182,23.08679276123039,23.021728866442675,26.019223662515376,50.15974481593781,36.12478373637688,34.0,31.0,36.0,7.5,16.5,0.5,2.5,13.038404810405298,14.0356688476182,14.5,32.0,25.0,30.26549190084312,{}
308,680,4.123105625617661,72.24956747275377,7.071067811865476,14.142135623730953,22.09072203437452,23.021728866442675,27.0,52.15361924162119,38.05259518088089,36.0,33.0,39.0,9.0,16.0,0.0,3.0,13.038404810405298,13.038404810405298,12.5,33.0,23.0,33.24154027718932,{}
309,681,6.0,70.25667228100119,7.071067811865476,14.0356688476182,20.024984394500787,20.09975124224178,27.018512172212592,54.08326913195984,40.049968789001575,37.0,35.0,41.0,11.0,16.0,0.0,5.0,14.142135623730953,15.0,14.5,35.0,25.0,33.24154027718932,{}
310,682,5.0,69.18092222571191,7.071067811865476,14.0356688476182,18.027756377319943,19.235384061671343,27.018512172212592,53.08483775994799,39.05124837953327,36.5,34.0,39.0,9.5,16.5,0.5,3.5,14.0356688476182,15.0,14.5,34.0,24.0,32.14031735997639,{}
311,683,5.0990195135927845,70.25667228100119,6.0,9.055385138137416,20.09975124224178,20.09975124224178,27.073972741361768,47.16990566028302,38.11823710509184,35.5,32.0,38.0,8.0,12.0,0.0,2.0,14.0356688476182,15.033296378372908,14.5,35.0,23.0,33.37663853655727,{}
312,684,3.1622776601683795,73.33484846919642,6.0,9.055385138137416,21.02379604162864,20.09975124224178,28.0713376952364,46.17358552246078,37.12142238654117,35.5,31.0,38.0,6.5,11.5,0.5,1.5,15.132745950421556,15.0,15.0,33.0,23.0,34.132096331752024,{}
313,685,4.0,72.3394774656273,7.071067811865476,12.16552506059644,20.09975124224178,20.223748416156685,27.073972741361768,50.24937810560445,38.11823710509184,36.0,31.0,38.0,7.5,15.5,1.5,0.5,14.142135623730953,15.0,15.0,34.0,25.0,36.12478373637688,{}
314,686,4.0,74.33034373659252,6.082762530298219,10.04987562112089,20.09975124224178,20.09975124224178,27.018512172212592,47.09564735726647,37.05401462729781,35.0,31.0,38.0,7.5,12.5,1.5,1.5,14.0356688476182,15.0,14.5,35.0,23.0,35.22782990761707,{}
315,687,3.0,75.32595834106593,7.0,10.198039027185567,21.095023109728988,21.213203435596427,27.073972741361768,47.16990566028302,37.05401462729781,35.5,31.0,38.0,7.5,12.5,0.5,0.5,14.0356688476182,14.0356688476182,14.5,35.0,24.0,37.12142238654117,{}
316,688,3.0,74.33034373659252,6.082762530298219,10.04987562112089,20.09975124224178,20.09975124224178,27.018512172212592,46.09772228646444,36.05551275463989,34.5,30.0,37.0,6.5,12.5,0.5,0.5,15.033296378372908,15.0,15.0,35.0,26.0,37.12142238654117,{}
317,689,3.1622776601683795,73.33484846919642,7.0,11.04536101718726,20.09975124224178,20.223748416156685,26.019223662515376,47.09564735726647,36.05551275463989,34.5,30.0,37.0,7.5,13.5,0.5,0.5,15.033296378372908,16.0,15.5,35.0,24.0,37.21558813185679,{}
318,690,2.23606797749979,73.33484846919642,7.0,12.041594578792296,20.09975124224178,20.223748416156685,27.073972741361768,48.16637831516918,36.12478373637688,35.0,31.0,38.0,7.5,13.5,0.5,0.5,13.038404810405298,14.0,13.5,35.0,26.0,36.22154055254967,{}
319,691,4.0,74.24284477308234,7.071067811865476,11.04536101718726,21.02379604162864,21.095023109728988,28.0178514522438,50.08991914547278,39.05124837953327,37.0,33.0,39.0,8.0,14.0,1.0,2.0,16.1245154965971,15.0,15.5,35.0,25.0,38.11823710509184,{}
320,692,3.1622776601683795,72.44308110509934,7.0,10.04987562112089,20.024984394500787,20.09975124224178,28.0178514522438,48.0936586256442,38.05259518088089,36.5,32.0,40.0,8.0,12.0,1.0,2.0,15.033296378372908,14.0,14.0,37.0,26.0,37.21558813185679,{}
321,693,4.123105625617661,72.3394774656273,6.0,12.16552506059644,20.09975124224178,21.095023109728988,28.0178514522438,50.15974481593781,38.05259518088089,36.0,32.0,39.0,7.5,14.5,0.5,1.5,14.0356688476182,15.0,14.5,37.0,24.0,37.21558813185679,{}
322,694,2.0,71.449282711585,7.071067811865476,12.041594578792296,19.1049731745428,20.09975124224178,29.017236257093817,50.08991914547278,38.05259518088089,37.0,33.0,41.0,8.0,13.0,1.0,1.0,14.142135623730953,13.0,13.0,36.0,23.0,37.12142238654117,{}
323,695,2.0,74.33034373659252,7.071067811865476,11.04536101718726,20.024984394500787,21.213203435596427,28.0178514522438,48.0936586256442,37.05401462729781,36.0,32.0,39.0,7.5,12.5,0.5,1.5,15.033296378372908,15.0,15.0,35.0,25.0,35.12833614050059,{}
324,696,5.0,75.4254598925323,7.071067811865476,11.180339887498947,20.09975124224178,21.213203435596427,27.018512172212592,50.15974481593781,39.05124837953327,36.5,32.0,40.0,9.0,14.0,1.0,2.0,15.033296378372908,15.0,15.0,36.0,25.0,36.22154055254967,{}
325,697,3.0,68.3593446428504,7.0,12.16552506059644,19.1049731745428,19.1049731745428,28.0713376952364,50.15974481593781,38.05259518088089,36.5,33.0,40.0,8.5,13.5,0.5,1.5,15.132745950421556,16.0,15.5,36.0,25.0,38.2099463490856,{}
326,698,6.0,71.34423592694787,7.071067811865476,12.16552506059644,20.024984394500787,20.09975124224178,27.018512172212592,52.15361924162119,40.049968789001575,37.0,33.0,40.0,9.5,15.5,1.5,2.5,16.0312195418814,16.0312195418814,16.0,36.0,26.0,39.20459156782532,{}
327,699,6.082762530298219,72.3394774656273,7.0,12.041594578792296,19.026297590440446,20.09975124224178,27.073972741361768,52.15361924162119,40.11234224026316,37.0,33.0,40.0,9.5,15.5,1.5,3.5,15.033296378372908,15.0,15.0,36.0,26.0,38.2099463490856,{}
328,700,5.0990195135927845,71.34423592694787,7.0,12.041594578792296,19.1049731745428,20.09975124224178,28.0178514522438,52.08646657242167,40.049968789001575,37.5,34.0,41.0,9.5,14.5,0.5,2.5,14.0356688476182,15.0,15.0,36.0,26.0,35.22782990761707,{}
329,701,7.0,71.34423592694787,6.082762530298219,12.041594578792296,19.1049731745428,20.09975124224178,27.018512172212592,52.08646657242167,40.049968789001575,36.5,33.0,40.0,9.5,15.5,1.5,3.5,15.033296378372908,15.0,15.0,36.0,25.0,35.12833614050059,{}
330,702,6.0,71.25307010929424,7.071067811865476,11.180339887498947,20.09975124224178,20.09975124224178,27.0,51.0881590977792,40.01249804748511,37.0,33.0,39.0,9.0,15.0,1.0,2.0,14.0356688476182,15.033296378372908,15.0,34.0,24.0,36.12478373637688,{}
331,703,7.0,70.25667228100119,6.082762530298219,12.041594578792296,20.024984394500787,20.09975124224178,28.0178514522438,53.08483775994799,41.04875150354759,37.5,34.0,40.0,9.0,16.0,1.0,3.0,14.142135623730953,14.0,14.0,36.0,25.0,36.22154055254967,{}
332,704,5.0,69.18092222571191,8.06225774829855,14.0356688476182,20.024984394500787,20.09975124224178,27.018512172212592,54.08326913195984,40.049968789001575,37.5,34.0,39.0,9.5,17.5,1.5,2.5,15.132745950421556,15.0,14.5,35.0,24.0,33.24154027718932,{}
333,705,5.0,68.26419266350405,8.06225774829855,12.041594578792296,19.1049731745428,19.1049731745428,27.018512172212592,52.08646657242167,40.049968789001575,37.5,34.0,40.0,10.0,15.0,1.0,2.0,14.0356688476182,15.0,15.0,35.0,25.0,37.21558813185679,{}
334,706,5.0,69.35416353759881,7.071067811865476,10.04987562112089,20.024984394500787,19.1049731745428,28.0178514522438,50.08991914547278,40.049968789001575,37.5,33.0,40.0,8.5,13.5,1.5,2.5,16.0312195418814,16.0312195418814,15.5,35.0,25.0,35.12833614050059,{}
335,707,7.071067811865476,69.26037828369117,7.071067811865476,12.16552506059644,20.09975124224178,21.095023109728988,27.018512172212592,53.08483775994799,41.01219330881976,37.5,33.0,39.0,9.0,17.0,3.0,2.0,15.132745950421556,16.0,16.0,35.0,25.0,35.22782990761707,{}
336,708,8.0,68.26419266350405,6.0,11.04536101718726,19.026297590440446,20.09975124224178,28.0178514522438,53.03772242470448,42.01190307520001,38.0,34.0,40.0,9.0,16.0,3.0,3.0,17.029386365926403,17.029386365926403,16.5,35.0,25.0,37.33630940518894,{}
337,709,7.0,70.25667228100119,8.0,12.16552506059644,19.026297590440446,19.1049731745428,26.019223662515376,53.08483775994799,41.01219330881976,37.5,33.0,39.0,10.0,17.0,3.0,3.0,16.0312195418814,16.0,15.5,36.0,25.0,33.24154027718932,{}
338,710,8.0,69.26037828369117,7.0,13.038404810405298,20.024984394500787,20.024984394500787,26.019223662515376,54.037024344425184,41.01219330881976,37.0,33.0,39.0,10.0,18.0,4.0,3.0,15.033296378372908,16.0,15.5,36.0,25.0,31.25699921617557,{}
339,711,9.0,70.178344238091,7.0,12.041594578792296,19.026297590440446,20.223748416156685,27.0,55.00909015790027,43.0,38.5,35.0,40.0,10.5,17.5,3.5,3.5,16.0312195418814,15.0,15.0,35.0,23.0,32.2490309931942,{}
340,712,9.0,69.18092222571191,7.0,13.038404810405298,19.026297590440446,20.024984394500787,26.0,55.00909015790027,42.0,37.5,34.0,39.0,10.5,18.5,3.5,3.5,15.033296378372908,15.033296378372908,15.0,35.0,26.0,35.05709628591621,{}
341,713,7.0,70.25667228100119,7.0,13.0,21.02379604162864,20.223748416156685,27.0,54.0,41.0,37.5,34.0,40.0,10.0,17.0,2.0,3.0,15.033296378372908,16.0,16.5,34.0,25.0,36.05551275463989,{}
342,714,6.0,71.17583859709698,8.0,13.038404810405298,20.09975124224178,20.09975124224178,26.019223662515376,53.0,40.01249804748511,37.0,34.0,39.0,10.5,16.5,1.5,2.5,15.132745950421556,15.0,15.0,34.0,22.0,34.132096331752024,{}
343,715,8.0,69.1158447825099,8.0,12.041594578792296,20.09975124224178,21.095023109728988,26.019223662515376,54.037024344425184,42.01190307520001,38.0,35.0,39.0,11.0,17.0,3.0,3.0,16.0312195418814,16.0,15.5,35.0,24.0,36.22154055254967,{}
344,716,7.071067811865476,70.11419257183242,7.071067811865476,11.180339887498947,20.09975124224178,21.095023109728988,26.019223662515376,51.0098029794274,40.01249804748511,36.5,34.0,38.0,10.0,15.0,1.0,3.0,15.033296378372908,17.0,16.5,35.0,26.0,34.058772731852805,{}
345,717,3.0,70.11419257183242,7.071067811865476,11.180339887498947,19.1049731745428,20.09975124224178,26.0,47.09564735726647,36.013886210738214,34.5,33.0,37.0,9.0,12.0,1.0,3.0,15.033296378372908,16.0,15.5,34.0,26.0,33.06055050963308,{}
346,718,3.1622776601683795,70.06425622241343,6.082762530298219,15.033296378372908,21.02379604162864,20.024984394500787,26.019223662515376,50.039984012787215,35.0142828000232,33.5,33.0,36.0,8.5,15.5,1.5,3.5,15.033296378372908,16.0312195418814,15.5,33.0,24.0,30.26549190084312,{}
347,719,3.0,72.11102550927978,6.082762530298219,15.132745950421556,21.095023109728988,22.09072203437452,27.0,51.0881590977792,36.013886210738214,34.5,34.0,38.0,9.0,15.0,1.0,3.0,14.0356688476182,15.0,15.0,33.0,26.0,34.058772731852805,{}
348,720,6.082762530298219,70.11419257183242,6.0,16.0312195418814,20.024984394500787,21.095023109728988,28.0713376952364,56.1426753904728,40.11234224026316,37.0,36.0,40.0,10.0,18.0,0.0,5.0,15.033296378372908,16.0,16.0,34.0,25.0,31.14482300479488,{}
349,721,6.0,70.178344238091,6.082762530298219,14.0356688476182,19.1049731745428,20.09975124224178,27.018512172212592,53.08483775994799,39.05124837953327,36.0,35.0,40.0,10.5,15.5,0.5,4.5,15.033296378372908,15.033296378372908,15.0,35.0,26.0,33.24154027718932,{}
350,722,6.324555320336759,70.25667228100119,6.0,13.038404810405298,20.024984394500787,20.024984394500787,26.0,51.0881590977792,38.05259518088089,35.0,35.0,41.0,12.0,13.0,2.0,6.0,14.0356688476182,15.0,14.5,34.0,25.0,34.23448553724738,{}
351,723,5.385164807134504,75.16648189186454,5.0,13.038404810405298,22.02271554554524,22.02271554554524,25.019992006393608,48.16637831516918,35.12833614050059,32.5,33.0,38.0,10.5,12.5,1.5,5.5,13.038404810405298,13.0,13.0,33.0,23.0,35.22782990761707,{}
352,724,1.0,77.1621668954417,5.0990195135927845,12.16552506059644,22.09072203437452,21.095023109728988,25.019992006393608,43.04648650006177,31.0,30.5,31.0,36.0,8.5,9.5,3.5,3.5,14.0356688476182,15.0,15.0,34.0,25.0,36.12478373637688,{}
353,725,1.4142135623730951,76.16429609731846,6.082762530298219,13.152946437965904,21.02379604162864,20.024984394500787,25.019992006393608,45.09988913511872,32.01562118716424,31.5,31.0,36.0,8.5,11.5,3.5,3.5,14.142135623730953,14.0,14.0,34.0,25.0,34.132096331752024,{}
354,726,1.0,74.10802925459562,5.0,10.04987562112089,20.024984394500787,21.095023109728988,27.0,43.01162633521314,33.0,32.5,32.0,36.0,7.0,9.0,3.0,2.0,15.033296378372908,15.0,15.0,34.0,25.0,35.12833614050059,{}
355,727,2.0,70.178344238091,5.0,11.04536101718726,20.0,19.1049731745428,28.0178514522438,46.04345773288535,35.0142828000232,34.0,32.0,37.0,6.5,11.5,1.5,2.5,16.0312195418814,16.0,15.5,34.0,24.0,35.22782990761707,{}
356,728,2.0,72.24956747275377,6.082762530298219,10.198039027185567,20.024984394500787,20.09975124224178,27.0,45.09988913511872,35.0142828000232,34.0,32.0,38.0,8.0,10.0,2.0,2.0,15.033296378372908,16.0,15.5,35.0,26.0,34.132096331752024,{}
357,729,2.0,72.24956747275377,6.082762530298219,10.04987562112089,21.095023109728988,21.095023109728988,28.0,46.04345773288535,36.013886210738214,35.0,33.0,39.0,8.0,10.0,2.0,3.0,15.132745950421556,15.0,15.0,34.0,23.0,35.22782990761707,{}
358,730,3.0,74.16872656315464,6.082762530298219,11.04536101718726,21.095023109728988,21.095023109728988,27.018512172212592,47.09564735726647,36.05551275463989,34.5,33.0,38.0,8.5,11.5,1.5,2.5,14.0356688476182,14.0,13.5,34.0,22.0,37.21558813185679,{}
359,731,3.0,72.24956747275377,6.0,11.180339887498947,19.1049731745428,20.09975124224178,27.018512172212592,47.09564735726647,36.013886210738214,34.5,33.0,39.0,9.0,11.0,2.0,3.0,15.132745950421556,15.0,15.0,35.0,23.0,34.23448553724738,{}
360,732,5.0,68.26419266350405,6.082762530298219,10.198039027185567,19.026297590440446,20.09975124224178,28.0,49.09175083453431,39.01281840626232,36.5,34.0,40.0,9.0,12.0,0.0,3.0,16.0312195418814,16.0,16.0,34.0,24.0,33.24154027718932,{}
361,733,5.0990195135927845,69.26037828369117,6.0,10.04987562112089,20.09975124224178,20.09975124224178,28.0713376952364,49.16299421312742,39.11521443121589,36.5,34.0,40.0,9.0,12.0,0.0,3.0,13.038404810405298,12.0,12.0,34.0,21.0,33.13608305156178,{}
362,734,4.123105625617661,70.34912934784623,6.082762530298219,9.055385138137416,18.110770276274835,19.235384061671343,30.01666203960727,49.04079934095692,40.01249804748511,38.0,34.0,41.0,7.5,11.5,0.5,1.5,16.0312195418814,16.0,16.5,35.0,25.0,36.12478373637688,{}
363,735,2.23606797749979,73.24616030891995,6.082762530298219,11.180339887498947,18.110770276274835,19.235384061671343,31.016124838541646,50.08991914547278,39.01281840626232,38.0,35.0,41.0,7.0,12.0,1.0,1.0,15.033296378372908,15.0,15.0,33.0,23.0,35.22782990761707,{}
364,736,3.0,74.33034373659252,7.071067811865476,12.041594578792296,20.024984394500787,20.09975124224178,29.017236257093817,51.0881590977792,39.05124837953327,37.5,33.0,40.0,7.5,14.5,0.5,1.5,16.0312195418814,16.0,16.0,35.0,26.0,38.11823710509184,{}
365,737,2.0,66.27216610312357,7.071067811865476,10.04987562112089,17.029386365926403,17.11724276862369,30.01666203960727,49.09175083453431,39.05124837953327,38.0,35.0,41.0,8.0,11.0,1.0,2.0,15.033296378372908,15.0,14.5,34.0,25.0,33.06055050963308,{}
366,738,4.0,67.36467917239716,8.06225774829855,13.038404810405298,19.1049731745428,20.223748416156685,30.01666203960727,55.08175741568164,42.04759208325728,40.0,36.0,43.0,9.5,15.5,0.5,1.5,15.033296378372908,15.0,15.0,35.0,25.0,39.11521443121589,{}
367,739,3.0,69.46221994724903,7.0,11.04536101718726,19.1049731745428,20.09975124224178,31.016124838541646,52.03844732503075,41.01219330881976,39.5,35.0,43.0,8.0,13.0,0.0,1.0,15.033296378372908,15.0,15.0,35.0,26.0,37.12142238654117,{}
368,740,2.0,71.34423592694787,6.0,9.055385138137416,19.1049731745428,19.1049731745428,32.01562118716424,49.04079934095692,40.01249804748511,39.0,34.0,41.0,5.5,11.5,0.5,0.5,15.132745950421556,16.0,16.0,36.0,27.0,35.22782990761707,{}
369,741,2.0,71.25307010929424,6.0,9.055385138137416,19.1049731745428,19.1049731745428,32.01562118716424,49.04079934095692,40.01249804748511,39.0,35.0,41.0,6.0,11.0,1.0,1.0,14.142135623730953,15.0,15.0,35.0,25.0,36.345563690772494,{}
370,742,2.0,72.24956747275377,7.071067811865476,9.055385138137416,20.024984394500787,19.1049731745428,30.066592756745816,48.16637831516918,39.11521443121589,38.0,36.0,42.0,9.0,9.0,3.0,3.0,15.132745950421556,15.033296378372908,15.0,36.0,26.0,35.12833614050059,{}
371,743,4.0,70.25667228100119,7.0,10.04987562112089,20.024984394500787,20.09975124224178,28.0178514522438,49.04079934095692,39.01281840626232,37.0,34.0,40.0,9.0,12.0,1.0,2.0,14.0356688476182,15.0,15.0,35.0,23.0,33.13608305156178,{}
372,744,6.0,67.26812023536856,7.0,12.041594578792296,19.1049731745428,20.09975124224178,29.068883707497267,54.08326913195984,42.04759208325728,39.0,36.0,42.0,10.0,15.0,1.0,3.0,15.033296378372908,15.0,14.5,35.0,25.0,34.058772731852805,{}
373,745,6.082762530298219,70.25667228100119,7.071067811865476,13.152946437965904,19.1049731745428,20.09975124224178,27.018512172212592,53.08483775994799,40.01249804748511,37.0,35.0,41.0,11.0,15.0,1.0,3.0,16.1245154965971,17.0,16.5,36.0,26.0,35.05709628591621,{}
374,746,5.0,70.25667228100119,8.0,13.152946437965904,20.223748416156685,21.095023109728988,28.0,54.037024344425184,41.0,38.5,36.0,42.0,11.0,15.0,0.0,3.0,14.0356688476182,14.0,14.0,36.0,25.0,33.13608305156178,{}
375,747,7.0,66.18912297349165,6.0,13.152946437965904,19.1049731745428,19.235384061671343,29.068883707497267,55.14526271584895,42.04759208325728,38.5,36.0,41.0,9.5,16.5,1.5,3.5,16.0,17.0,16.5,36.0,25.0,33.13608305156178,{}
376,748,8.06225774829855,67.1863081289633,7.071067811865476,13.038404810405298,20.09975124224178,20.024984394500787,27.073972741361768,55.08175741568164,42.04759208325728,38.0,35.0,40.0,10.5,17.5,2.5,3.5,15.033296378372908,16.0,15.5,37.0,26.0,34.132096331752024,{}
377,749,7.071067811865476,68.18357573492314,7.0,12.041594578792296,20.09975124224178,21.095023109728988,28.0713376952364,54.147945482723536,42.1070065428546,38.5,36.0,41.0,10.5,15.5,1.5,3.5,14.0356688476182,15.0,14.5,35.0,25.0,33.06055050963308,{}
378,750,6.0,66.18912297349165,7.0,11.180339887498947,18.110770276274835,19.1049731745428,28.0178514522438,52.08646657242167,41.01219330881976,38.0,35.0,40.0,9.5,14.5,1.5,2.5,14.0356688476182,16.0,15.5,34.0,25.0,35.05709628591621,{}
379,751,4.123105625617661,72.24956747275377,6.082762530298219,10.198039027185567,20.09975124224178,20.223748416156685,29.0,49.04079934095692,39.0,37.0,35.0,41.0,9.0,11.0,1.0,3.0,15.033296378372908,15.0,15.0,35.0,25.0,34.23448553724738,{}
380,752,3.0,70.25667228100119,7.071067811865476,14.0356688476182,19.026297590440446,20.09975124224178,28.0,52.03844732503075,38.01315561749642,36.5,34.0,40.0,9.0,15.0,1.0,3.0,14.0356688476182,16.0,15.5,36.0,26.0,31.25699921617557,{}
381,753,2.23606797749979,71.17583859709698,7.0,15.033296378372908,18.027756377319943,19.1049731745428,29.017236257093817,53.08483775994799,38.05259518088089,37.0,35.0,40.0,8.5,15.5,0.5,1.5,15.033296378372908,15.0,14.5,35.0,25.0,30.14962686336267,{}
382,754,2.0,70.11419257183242,8.06225774829855,14.0356688476182,17.029386365926403,18.110770276274835,28.0178514522438,52.009614495783374,38.0,37.0,35.0,39.0,9.0,15.0,1.0,2.0,15.132745950421556,15.0,14.5,36.0,26.0,30.26549190084312,{}
383,755,2.23606797749979,70.178344238091,7.0,14.0356688476182,17.029386365926403,18.110770276274835,29.0,52.03844732503075,38.01315561749642,37.0,35.0,40.0,8.5,14.5,1.5,2.5,15.132745950421556,17.029386365926403,16.5,36.0,27.0,35.05709628591621,{}
384,756,4.123105625617661,67.1863081289633,7.071067811865476,14.142135623730953,18.110770276274835,19.1049731745428,28.0178514522438,53.08483775994799,39.01281840626232,37.0,34.0,39.0,8.5,16.5,0.5,1.5,16.0312195418814,17.0,17.0,35.0,26.0,33.24154027718932,{}
385,757,5.0990195135927845,67.1863081289633,7.071067811865476,13.038404810405298,19.026297590440446,19.1049731745428,28.0,53.08483775994799,40.049968789001575,37.5,34.0,39.0,8.5,16.5,1.5,2.5,16.0312195418814,16.0,15.5,35.0,25.0,32.2490309931942,{}
386,758,7.0,64.1248781675256,6.0,13.038404810405298,17.029386365926403,18.110770276274835,29.017236257093817,55.03635162326805,42.01190307520001,38.5,35.0,39.0,8.0,18.0,3.0,3.0,16.0312195418814,16.0312195418814,16.0,35.0,26.0,34.132096331752024,{}
387,759,6.0,70.11419257183242,7.071067811865476,13.038404810405298,18.027756377319943,20.024984394500787,28.0,54.037024344425184,41.01219330881976,38.0,35.0,39.0,9.0,17.0,2.0,3.0,16.0312195418814,17.029386365926403,16.5,36.0,28.0,38.2099463490856,{}
388,760,4.0,71.17583859709698,6.082762530298219,11.04536101718726,21.095023109728988,20.09975124224178,29.0,50.039984012787215,39.01281840626232,37.0,34.0,39.0,7.5,13.5,0.5,1.5,16.0312195418814,16.0312195418814,16.0,36.0,26.0,33.24154027718932,{}
389,761,4.0,69.18092222571191,7.071067811865476,12.041594578792296,19.1049731745428,19.1049731745428,27.0,50.039984012787215,38.01315561749642,36.0,33.0,38.0,8.5,14.5,0.5,1.5,14.0356688476182,15.0,14.0,35.0,27.0,37.21558813185679,{}
390,762,4.123105625617661,69.26037828369117,7.071067811865476,11.180339887498947,19.1049731745428,19.1049731745428,27.0,49.04079934095692,38.0,36.0,32.0,38.0,8.0,14.0,1.0,1.0,14.0356688476182,15.0,14.5,35.0,25.0,36.345563690772494,{}
391,763,4.0,70.25667228100119,6.0,11.04536101718726,20.09975124224178,20.09975124224178,28.0,49.01020301937138,38.0,36.0,32.0,38.0,7.0,14.0,0.0,1.0,15.033296378372908,16.0312195418814,16.0,35.0,26.0,34.132096331752024,{}
392,764,3.1622776601683795,71.17583859709698,6.0,10.04987562112089,20.09975124224178,20.223748416156685,29.0,48.04164859785725,38.01315561749642,36.5,33.0,38.0,6.5,12.5,0.5,1.5,16.1245154965971,17.0,16.5,34.0,26.0,32.14031735997639,{}
393,765,4.0,70.25667228100119,6.0,11.04536101718726,20.09975124224178,19.235384061671343,29.068883707497267,50.08991914547278,39.05124837953327,37.0,33.0,39.0,7.0,14.0,0.0,1.0,15.033296378372908,16.0312195418814,16.0,36.0,26.0,35.22782990761707,{}
394,766,4.0,69.26037828369117,7.0,12.041594578792296,20.09975124224178,20.223748416156685,28.0,51.0098029794274,39.0,37.0,33.0,39.0,8.0,15.0,0.0,1.0,16.0312195418814,16.0312195418814,16.0,35.0,28.0,37.12142238654117,{}
395,767,4.0,73.24616030891995,7.0,13.038404810405298,20.09975124224178,20.09975124224178,27.0,51.0098029794274,38.0,36.0,33.0,39.0,9.0,15.0,1.0,2.0,15.033296378372908,15.033296378372908,15.0,35.0,26.0,34.36568055487916,{}
396,768,4.0,68.26419266350405,7.0,11.04536101718726,19.1049731745428,20.09975124224178,28.0178514522438,50.039984012787215,39.01281840626232,37.0,32.0,38.0,7.0,15.0,1.0,0.0,15.033296378372908,16.0312195418814,16.0,35.0,26.0,35.22782990761707,{}
397,769,5.0990195135927845,69.18092222571191,6.082762530298219,11.04536101718726,19.1049731745428,20.09975124224178,28.0,50.00999900019995,39.0,36.5,33.0,38.0,7.5,14.5,0.5,1.5,15.033296378372908,16.0,15.5,35.0,25.0,32.14031735997639,{}
398,770,4.0,70.25667228100119,6.0,11.04536101718726,20.09975124224178,20.09975124224178,29.017236257093817,50.039984012787215,39.01281840626232,37.0,33.0,39.0,7.0,14.0,1.0,1.0,16.0312195418814,17.0,16.5,35.0,27.0,35.12833614050059,{}
399,771,4.0,70.25667228100119,7.0,12.041594578792296,19.026297590440446,19.1049731745428,28.0178514522438,51.03920062069938,39.01281840626232,37.0,33.0,39.0,8.0,15.0,1.0,2.0,16.0312195418814,17.0,16.5,35.0,28.0,34.23448553724738,{}
400,772,4.0,70.11419257183242,7.0,12.041594578792296,19.1049731745428,19.026297590440446,28.0,51.0098029794274,39.0,37.0,34.0,38.0,8.0,15.0,1.0,1.0,16.0312195418814,17.0,16.0,35.0,27.0,32.14031735997639,{}
401,773,4.123105625617661,67.1863081289633,7.0,12.041594578792296,19.026297590440446,19.026297590440446,27.018512172212592,50.00999900019995,38.0,36.0,32.0,37.0,7.5,15.5,1.5,1.5,16.0312195418814,18.027756377319943,17.0,35.0,28.0,33.13608305156178,{}
402,774,5.0,69.18092222571191,6.0,11.04536101718726,19.1049731745428,20.223748416156685,28.0178514522438,50.039984012787215,39.01281840626232,36.5,33.0,38.0,7.5,14.5,1.5,1.5,16.0312195418814,16.0,16.0,35.0,28.0,35.12833614050059,{}
403,775,4.0,67.1863081289633,7.0,12.041594578792296,18.110770276274835,18.110770276274835,28.0,51.0098029794274,39.0,37.0,33.0,38.0,7.5,15.5,1.5,0.5,16.0312195418814,17.029386365926403,16.5,35.0,26.0,34.132096331752024,{}
404,776,4.0,69.18092222571191,7.0,11.04536101718726,19.026297590440446,19.1049731745428,28.0,50.00999900019995,39.0,37.0,34.0,39.0,8.5,13.5,0.5,2.5,15.033296378372908,16.0312195418814,15.5,35.0,27.0,35.22782990761707,{}
405,777,4.0,70.178344238091,7.0,11.04536101718726,20.024984394500787,19.1049731745428,28.0178514522438,50.039984012787215,39.01281840626232,37.0,33.0,38.0,7.5,14.5,0.5,1.5,16.1245154965971,17.029386365926403,16.5,37.0,28.0,35.12833614050059,{}
406,778,4.0,70.25667228100119,7.0,13.038404810405298,19.1049731745428,19.235384061671343,27.018512172212592,51.03920062069938,38.01315561749642,36.0,32.0,38.0,8.0,16.0,1.0,1.0,15.033296378372908,16.0,15.5,35.0,27.0,36.12478373637688,{}
407,779,4.123105625617661,70.25667228100119,7.0,12.041594578792296,19.1049731745428,20.09975124224178,28.0178514522438,51.0098029794274,39.0,37.0,32.0,38.0,7.0,16.0,2.0,0.0,16.1245154965971,16.0,16.0,35.0,28.0,37.12142238654117,{}
408,780,4.0,70.25667228100119,7.0,12.16552506059644,19.026297590440446,19.1049731745428,27.0,50.039984012787215,38.0,36.0,32.0,38.0,8.0,15.0,0.0,2.0,14.0356688476182,15.0,14.5,35.0,25.0,37.12142238654117,{}
409,781,5.0,68.26419266350405,7.0,12.041594578792296,19.1049731745428,19.1049731745428,27.0,51.0098029794274,39.0,36.5,31.0,37.0,7.0,17.0,2.0,0.0,16.0312195418814,16.0312195418814,16.0,35.0,27.0,33.13608305156178,{}
410,782,4.0,68.26419266350405,7.0,12.041594578792296,19.1049731745428,19.026297590440446,27.018512172212592,50.039984012787215,38.01315561749642,36.0,30.0,36.0,6.0,17.0,3.0,1.0,15.033296378372908,16.0312195418814,15.5,35.0,27.0,35.05709628591621,{}
411,783,4.0,71.25307010929424,8.0,11.04536101718726,18.110770276274835,18.110770276274835,27.018512172212592,50.039984012787215,39.01281840626232,37.0,30.0,36.0,6.0,17.0,3.0,1.0,16.0312195418814,15.033296378372908,15.0,34.0,26.0,34.132096331752024,{}
412,784,5.0990195135927845,73.24616030891995,7.0,10.04987562112089,20.09975124224178,19.1049731745428,27.0,49.04079934095692,39.01281840626232,36.5,31.0,37.0,7.0,15.0,2.0,0.0,14.142135623730953,16.0,15.5,35.0,25.0,35.22782990761707,{}
413,785,5.0,71.25307010929424,7.0,10.198039027185567,19.1049731745428,19.1049731745428,27.0,49.04079934095692,39.0,36.5,30.0,36.0,6.0,16.0,3.0,1.0,15.033296378372908,16.0312195418814,15.5,36.0,27.0,34.132096331752024,{}
414,786,6.0,74.24284477308234,6.0,11.04536101718726,20.024984394500787,21.095023109728988,27.0,50.00999900019995,39.0,36.0,30.0,36.0,6.0,17.0,4.0,0.0,15.132745950421556,16.0,15.5,35.0,27.0,36.12478373637688,{}
415,787,7.071067811865476,73.24616030891995,5.0,9.219544457292889,19.1049731745428,20.09975124224178,28.0178514522438,49.04079934095692,40.0,36.5,30.0,36.0,5.0,16.0,4.0,0.0,14.0356688476182,16.0312195418814,16.0,36.0,27.0,36.12478373637688,{}
416,788,7.0,73.17103251970687,6.0,10.0,21.095023109728988,21.095023109728988,27.018512172212592,50.00999900019995,40.01249804748511,36.5,30.0,35.0,5.5,17.5,4.5,0.5,15.033296378372908,16.0312195418814,16.0,36.0,27.0,38.11823710509184,{}
417,789,5.0,76.16429609731846,7.0,11.04536101718726,22.02271554554524,21.095023109728988,27.0,50.00999900019995,39.0,36.5,30.0,35.0,5.5,17.5,4.5,0.5,11.04536101718726,12.0,11.5,35.0,26.0,34.132096331752024,{}
418,790,5.0,76.10519036176179,6.0,12.041594578792296,21.02379604162864,21.095023109728988,27.018512172212592,50.039984012787215,38.01315561749642,35.5,30.0,34.0,5.0,18.0,4.0,1.0,7.0,8.06225774829855,8.0,36.0,27.0,35.05709628591621,{}
419,791,5.0,78.05767098754612,7.0,12.041594578792296,21.02379604162864,22.02271554554524,25.019992006393608,49.0,37.01351104664349,34.5,29.0,32.0,5.5,18.5,4.5,1.5,9.0,10.0,10.0,34.0,27.0,33.015148038438355,{}
420,792,6.082762530298219,78.02563681252464,6.082762530298219,12.0,22.02271554554524,22.02271554554524,26.0768096208106,50.039984012787215,38.05259518088089,35.0,29.0,31.0,4.0,20.0,6.0,1.0,12.0,12.041594578792296,12.0,35.0,28.0,35.0142828000232,{}
421,793,5.0,78.0,6.0,13.0,21.0,21.0,26.1725046566048,50.08991914547278,37.12142238654117,34.5,30.0,30.0,4.0,20.0,6.0,1.0,14.0,14.0356688476182,13.5,33.0,29.0,35.0,{}
422,794,4.0,77.00649323271382,6.082762530298219,12.0,21.0,21.0,27.073972741361768,49.09175083453431,37.12142238654117,35.0,31.0,30.0,3.5,18.5,5.5,0.5,12.0,12.041594578792296,12.0,30.0,30.0,34.0,{}
423,795,4.0,75.1065909225016,6.082762530298219,13.038404810405298,21.02379604162864,22.02271554554524,27.16615541441225,50.24937810560445,37.21558813185679,35.0,34.0,30.0,5.0,18.0,5.0,0.0,13.038404810405298,13.152946437965904,13.0,29.0,32.0,33.06055050963308,{}
424,796,5.0,74.16872656315464,6.082762530298219,14.0356688476182,21.02379604162864,22.02271554554524,28.16025568065745,53.23532661682466,39.20459156782532,36.5,36.0,31.0,5.5,19.5,4.5,1.5,12.041594578792296,12.16552506059644,12.0,28.0,34.0,33.06055050963308,{}
425,797,6.0,67.26812023536856,6.082762530298219,15.132745950421556,17.029386365926403,18.0,28.16025568065745,55.326304774492215,40.19950248448356,37.0,38.0,32.0,7.0,20.0,4.0,3.0,13.038404810405298,14.142135623730953,13.5,27.0,35.0,30.14962686336267,{}
426,798,5.0990195135927845,67.26812023536856,6.082762530298219,16.0312195418814,18.027756377319943,19.026297590440446,30.26549190084312,57.42821606144492,41.43669871020132,38.5,40.0,34.0,7.0,20.0,3.0,3.0,12.041594578792296,13.038404810405298,12.5,25.0,36.0,31.14482300479488,{}
427,799,4.0,66.48308055437865,7.280109889280518,16.1245154965971,18.110770276274835,19.1049731745428,29.27456233660889,56.56854249492381,40.44749683231337,38.0,40.0,32.0,7.0,20.0,2.0,2.0,13.152946437965904,13.341664064126334,12.0,27.0,39.0,30.4138126514911,{}
428,800,2.0,66.48308055437865,8.246211251235321,15.297058540778355,17.11724276862369,19.1049731745428,29.27456233660889,54.74486277268398,39.45883931389772,38.0,39.0,31.0,6.0,19.0,3.0,1.0,13.152946437965904,13.152946437965904,12.5,25.0,39.0,29.42787793912432,{}
429,801,1.4142135623730951,67.47592163134935,8.06225774829855,17.26267650163207,17.029386365926403,19.1049731745428,29.42787793912432,55.90169943749474,38.63935817272331,37.5,39.0,31.0,6.0,20.0,3.0,0.0,13.038404810405298,14.317821063276352,13.5,24.0,39.0,31.400636936215164,{}
430,802,2.23606797749979,68.46897107449476,7.280109889280518,16.278820596099706,21.095023109728988,22.09072203437452,28.635642126552707,54.3415126767741,38.07886552931954,36.0,39.0,31.0,7.0,18.0,2.0,2.0,13.038404810405298,14.317821063276352,13.5,24.0,40.0,30.80584360149873,{}
431,803,2.23606797749979,68.59300255857006,8.246211251235321,15.297058540778355,20.09975124224178,21.02379604162864,28.442925306655784,54.12947441089743,38.8329756778952,37.0,39.0,30.0,6.5,18.5,2.5,1.5,13.152946437965904,13.341664064126334,13.0,24.0,41.0,30.59411708155671,{}
432,804,3.605551275463989,68.46897107449476,6.324555320336759,15.132745950421556,20.09975124224178,20.024984394500787,28.635642126552707,53.36665625650534,38.3275357934736,35.5,37.0,29.0,5.0,19.0,4.0,1.0,12.16552506059644,14.317821063276352,13.5,24.0,42.0,28.861739379323623,{}
433,805,3.605551275463989,67.47592163134935,7.071067811865476,15.132745950421556,19.1049731745428,21.095023109728988,26.68332812825267,52.172789842982326,37.10795063055895,34.5,36.0,28.0,6.0,19.0,3.0,1.0,9.219544457292889,9.219544457292889,9.0,24.0,41.0,28.861739379323623,{}
434,806,3.1622776601683795,67.47592163134935,6.082762530298219,14.317821063276352,20.024984394500787,21.095023109728988,27.65863337187866,51.19570294468082,36.87817782917155,34.5,36.0,28.0,5.0,18.0,3.0,1.0,7.615773105863909,8.246211251235321,7.5,24.0,41.0,29.61418578992169,{}
435,807,3.1622776601683795,66.37017402418047,7.280109889280518,14.142135623730953,20.024984394500787,20.024984394500787,26.476404589747453,50.99019513592785,36.87817782917155,34.5,35.0,28.0,5.5,18.5,3.5,0.5,8.246211251235321,9.219544457292889,9.0,25.0,41.0,29.61418578992169,{}
436,808,4.123105625617661,62.20128616033595,7.280109889280518,16.1245154965971,17.0,19.0,26.68332812825267,54.12947441089743,38.07886552931954,35.0,35.0,30.0,6.5,20.5,2.5,0.5,11.04536101718726,11.04536101718726,11.0,28.0,43.0,30.59411708155671,{}
437,809,6.082762530298219,61.1310068623117,7.280109889280518,15.297058540778355,16.0312195418814,18.0,26.68332812825267,55.31726674375732,40.024992192379,36.0,35.0,31.0,7.0,21.0,4.0,1.0,11.04536101718726,12.16552506059644,11.5,28.0,42.0,26.68332812825267,{}
438,810,4.123105625617661,60.20797289396148,7.280109889280518,13.152946437965904,16.0312195418814,17.0,28.16025568065745,52.630789467763066,39.56008088970496,36.0,36.0,31.0,6.5,17.5,2.5,1.5,12.041594578792296,13.152946437965904,12.0,30.0,44.0,23.769728648009423,{}
439,811,4.47213595499958,65.12296062065974,7.280109889280518,12.16552506059644,18.027756377319943,19.0,26.68332812825267,50.44799302251776,38.3275357934736,35.0,33.0,29.0,5.0,18.0,4.0,0.0,12.041594578792296,12.36931687685298,12.0,28.0,42.0,29.61418578992169,{}
440,812,3.605551275463989,68.26419266350405,6.082762530298219,11.180339887498947,19.026297590440446,20.0,26.92582403567252,47.53945729601885,36.40054944640259,33.5,33.0,27.0,4.0,16.0,3.0,0.0,12.041594578792296,13.341664064126334,12.0,28.0,42.0,26.92582403567252,{}
441,813,1.4142135623730951,69.1158447825099,7.071067811865476,11.180339887498947,18.027756377319943,19.0,27.202941017470888,46.57252408878007,35.4400902933387,33.5,31.0,27.0,3.0,16.0,4.0,2.0,12.16552506059644,13.152946437965904,12.0,28.0,40.0,29.61418578992169,{}
442,814,1.0,69.18092222571191,6.082762530298219,11.180339887498947,18.0,20.024984394500787,27.202941017470888,45.35416188179427,34.20526275297414,32.5,31.0,26.0,2.5,15.5,2.5,2.5,12.041594578792296,12.16552506059644,12.0,27.0,42.0,29.61418578992169,{}
443,815,2.0,69.18092222571191,7.071067811865476,11.180339887498947,19.026297590440446,20.024984394500787,26.248809496813376,46.32493928760188,35.17101079013795,33.0,31.0,26.0,3.5,16.5,3.5,1.5,12.16552506059644,14.317821063276352,13.0,29.0,44.0,30.80584360149873,{}
444,816,6.082762530298219,68.11754546370561,7.071067811865476,11.04536101718726,19.026297590440446,20.0,25.6320112359526,49.47726750741192,38.60051813123757,34.0,31.0,27.0,5.0,19.0,5.0,0.0,13.038404810405298,14.142135623730953,13.5,29.0,43.0,29.61418578992169,{}
445,817,7.071067811865476,68.06614430096654,6.082762530298219,11.180339887498947,20.024984394500787,20.0,26.248809496813376,50.44799302251776,39.293765408777,34.5,30.0,27.0,3.5,20.5,7.5,0.5,13.038404810405298,13.152946437965904,13.0,28.0,42.0,28.635642126552707,{}
446,818,2.0,64.07027391856539,6.082762530298219,9.219544457292889,17.029386365926403,18.0,27.892651361962702,45.12205669071391,35.90264614203248,34.0,33.0,30.0,4.5,12.5,1.5,0.5,14.0356688476182,13.152946437965904,12.5,28.0,40.0,28.635642126552707,{}
447,819,1.4142135623730951,60.13318551349163,6.324555320336759,11.40175425099138,15.0,16.0,27.29468812791236,45.70557952810576,34.36568055487916,33.5,34.0,30.0,5.0,13.0,1.0,0.0,13.038404810405298,13.152946437965904,13.0,29.0,41.0,29.61418578992169,{}
448,820,2.23606797749979,60.07495318350236,6.082762530298219,12.041594578792296,18.0,19.026297590440446,28.284271247461906,47.67598976424087,35.6931365951495,34.5,34.0,31.0,4.5,14.5,0.5,0.5,12.0,13.152946437965904,13.0,28.0,39.0,29.42787793912432,{}
449,821,2.23606797749979,59.00847396772772,5.385164807134504,13.152946437965904,16.0,19.026297590440446,29.154759474226505,49.64876634922564,36.49657518178932,35.0,34.0,33.0,4.5,15.5,0.5,0.5,13.0,13.152946437965904,13.0,29.0,40.0,30.26549190084312,{}
450,822,3.1622776601683795,57.0,7.071067811865476,15.132745950421556,16.0312195418814,17.029386365926403,27.459060435491963,52.773099207835045,37.65634076752546,35.5,34.0,34.0,7.0,18.0,0.0,1.0,12.041594578792296,13.038404810405298,12.5,30.0,39.0,29.154759474226505,{}
451,823,3.1622776601683795,56.0357029044876,6.324555320336759,14.142135623730953,16.0312195418814,17.11724276862369,28.284271247461906,51.78802950489621,37.65634076752546,35.5,34.0,36.0,7.0,16.0,1.0,1.0,12.0,12.041594578792296,12.0,29.0,37.0,26.1725046566048,{}
452,824,2.23606797749979,59.033888572581766,6.082762530298219,15.033296378372908,17.029386365926403,18.110770276274835,28.284271247461906,51.47815070493501,36.49657518178932,35.0,34.0,36.0,7.0,16.0,1.0,2.0,13.0,13.038404810405298,12.5,31.0,39.0,27.16615541441225,{}
453,825,2.8284271247461903,61.032778078668514,6.082762530298219,16.0312195418814,16.0312195418814,18.110770276274835,28.284271247461906,52.61178575186362,36.6742416417845,35.0,34.0,36.0,7.0,17.0,1.0,1.0,12.0,13.038404810405298,12.5,32.0,39.0,25.179356624028344,{}
454,826,2.0,63.00793600809346,7.071067811865476,14.0356688476182,17.029386365926403,18.027756377319943,26.476404589747453,49.49747468305833,35.510561809129406,34.0,34.0,35.0,8.5,14.5,1.5,1.5,11.0,12.041594578792296,12.0,30.0,39.0,26.1725046566048,{}
455,827,4.0,62.0,7.0,11.04536101718726,16.0,17.0,25.70992026436488,47.51841748206689,36.49657518178932,34.0,34.0,34.0,9.0,13.0,0.0,3.0,14.0,14.142135623730953,13.5,31.0,40.0,27.29468812791236,{}
456,828,2.0,62.0,7.071067811865476,11.04536101718726,18.0,18.027756377319943,26.476404589747453,46.52956049652737,35.510561809129406,34.0,33.0,33.0,7.0,13.0,0.0,2.0,12.0,13.038404810405298,13.0,31.0,38.0,28.284271247461906,{}
457,829,3.1622776601683795,68.0,6.0,11.0,19.0,19.0,25.70992026436488,45.5411901469428,34.713109915419565,32.5,32.0,32.0,7.0,13.0,0.0,2.0,14.0,14.0356688476182,14.0,30.0,39.0,32.2490309931942,{}
458,830,2.0,67.00746227100382,6.0,11.04536101718726,18.027756377319943,19.0,25.70992026436488,44.553338819890925,33.54101966249684,32.0,32.0,31.0,6.5,12.5,0.5,1.5,14.0356688476182,15.132745950421556,14.5,31.0,41.0,30.4138126514911,{}
459,831,1.4142135623730951,71.06335201775947,6.0,11.04536101718726,20.0,20.024984394500787,25.70992026436488,43.73785545725808,32.7566787083184,31.5,32.0,29.0,5.5,12.5,0.5,0.5,12.041594578792296,14.0356688476182,13.5,29.0,40.0,33.37663853655727,{}
460,832,3.0,70.0,6.082762530298219,11.04536101718726,21.02379604162864,21.02379604162864,24.73863375370596,44.7213595499958,33.734255586866,31.5,29.0,29.0,5.0,15.0,2.0,1.0,13.0,14.0356688476182,14.0,30.0,41.0,30.26549190084312,{}
461,833,1.0,72.11102550927978,6.082762530298219,12.041594578792296,21.02379604162864,20.0,25.70992026436488,42.7551166528639,30.80584360149873,30.5,33.0,29.0,6.0,11.0,2.0,2.0,13.0,13.152946437965904,13.0,29.0,40.0,36.22154055254967,{}
462,834,2.23606797749979,70.11419257183242,6.082762530298219,12.041594578792296,21.02379604162864,21.02379604162864,26.476404589747453,46.69047011971501,34.713109915419565,33.0,34.0,30.0,6.0,14.0,1.0,2.0,13.0,14.142135623730953,14.5,27.0,41.0,32.38826948140329,{}
463,835,2.23606797749979,69.06518659932803,6.082762530298219,12.041594578792296,20.024984394500787,21.02379604162864,26.476404589747453,46.69047011971501,34.713109915419565,33.0,33.0,30.0,5.5,14.5,1.5,1.5,13.038404810405298,14.0356688476182,14.0,26.0,40.0,33.37663853655727,{}
464,836,2.0,71.11258679024411,7.071067811865476,12.041594578792296,20.024984394500787,19.026297590440446,26.68332812825267,47.67598976424087,35.6931365951495,34.0,35.0,31.0,7.0,14.0,1.0,2.0,12.041594578792296,13.038404810405298,13.0,26.0,38.0,29.61418578992169,{}
465,837,4.0,68.18357573492314,5.0990195135927845,12.16552506059644,19.026297590440446,20.09975124224178,28.635642126552707,49.8196748283246,37.65634076752546,35.0,37.0,32.0,6.5,14.5,2.5,2.5,7.280109889280518,8.06225774829855,8.0,25.0,40.0,32.55764119219941,{}
466,838,4.0,72.11102550927978,7.071067811865476,11.04536101718726,20.024984394500787,19.026297590440446,26.68332812825267,48.66210024238576,37.65634076752546,35.0,37.0,33.0,9.0,13.0,1.0,4.0,7.280109889280518,9.219544457292889,8.0,26.0,41.0,27.892651361962702,{}
467,839,4.0,67.1863081289633,7.071067811865476,11.04536101718726,18.027756377319943,19.1049731745428,27.65863337187866,49.64876634922564,38.63935817272331,36.0,38.0,33.0,8.5,13.5,1.5,3.5,7.071067811865476,9.219544457292889,8.5,26.0,40.0,30.80584360149873,{}
468,840,4.123105625617661,70.25667228100119,7.071067811865476,11.04536101718726,19.1049731745428,19.1049731745428,28.635642126552707,50.80354318352215,39.81205847478876,37.0,39.0,33.0,8.0,14.0,2.0,3.0,9.219544457292889,11.180339887498947,10.0,26.0,40.0,29.8328677803526,{}
469,841,5.0990195135927845,72.11102550927978,8.06225774829855,12.16552506059644,21.02379604162864,21.02379604162864,28.442925306655784,53.75872022286245,41.593268686170845,38.5,40.0,36.0,10.0,15.0,2.0,4.0,12.041594578792296,13.152946437965904,12.0,26.0,41.0,31.78049716414141,{}
470,842,8.06225774829855,72.17340230306452,7.071067811865476,10.04987562112089,19.1049731745428,20.024984394500787,27.65863337187866,52.773099207835045,42.7551166528639,38.0,39.0,34.0,9.5,15.5,4.5,4.5,12.041594578792296,14.317821063276352,13.5,27.0,42.0,33.24154027718932,{}
471,843,7.071067811865476,72.3394774656273,7.280109889280518,12.16552506059644,20.024984394500787,20.09975124224178,28.442925306655784,54.91812087098393,42.7551166528639,38.5,41.0,34.0,9.5,16.5,3.5,3.5,12.041594578792296,12.36931687685298,12.0,25.0,42.0,35.90264614203248,{}
472,844,7.280109889280518,69.35416353759881,7.071067811865476,12.041594578792296,19.1049731745428,19.1049731745428,28.442925306655784,54.74486277268398,42.7551166528639,38.5,41.0,34.0,9.5,16.5,4.5,4.5,12.041594578792296,13.152946437965904,12.5,25.0,43.0,30.083217912982647,{}
473,845,7.071067811865476,70.45565981523414,8.246211251235321,11.180339887498947,20.09975124224178,20.09975124224178,27.65863337187866,54.12947441089743,42.95346318982906,38.5,42.0,34.0,11.0,15.0,4.0,5.0,13.038404810405298,13.341664064126334,13.0,25.0,43.0,31.6227766016838,{}
474,846,7.071067811865476,71.56814934033156,7.280109889280518,11.180339887498947,20.223748416156685,20.09975124224178,28.635642126552707,54.12947441089743,42.95346318982906,38.5,42.0,33.0,9.5,15.5,4.5,5.5,14.142135623730953,14.142135623730953,13.5,25.0,43.0,29.8328677803526,{}
475,847,8.06225774829855,70.71067811865476,6.324555320336759,10.198039027185567,20.223748416156685,21.213203435596427,29.61418578992169,54.12947441089743,43.93176527297759,39.0,44.0,34.0,10.0,14.0,3.0,6.0,12.041594578792296,13.152946437965904,12.5,24.0,44.0,34.48187929913333,{}
476,848,9.055385138137416,68.73136110975832,7.280109889280518,11.180339887498947,18.110770276274835,20.223748416156685,28.442925306655784,55.90169943749474,44.7213595499958,39.5,43.0,33.0,10.0,17.0,5.0,5.0,12.041594578792296,13.341664064126334,12.5,22.0,44.0,40.26164427839479,{}
477,849,10.0,69.87131027825369,7.280109889280518,10.44030650891055,19.1049731745428,20.09975124224178,28.635642126552707,56.08921464952064,45.70557952810576,40.0,44.0,33.0,10.5,16.5,6.5,5.5,12.16552506059644,13.341664064126334,12.0,24.0,45.0,32.57299494980466,{}
478,850,12.041594578792296,70.71067811865476,6.324555320336759,12.36931687685298,19.235384061671343,21.095023109728988,28.442925306655784,59.033888572581766,46.69047011971501,40.0,45.0,35.0,12.0,18.0,6.0,8.0,12.16552506059644,12.36931687685298,12.0,24.0,46.0,30.364452901377952,{}
479,851,11.04536101718726,70.71067811865476,7.280109889280518,14.317821063276352,19.235384061671343,21.095023109728988,28.284271247461906,60.8276253029822,46.52956049652737,40.5,45.0,35.0,12.0,20.0,7.0,7.0,12.16552506059644,12.36931687685298,12.5,24.0,46.0,32.57299494980466,{}
480,852,2.0,67.26812023536856,8.246211251235321,12.36931687685298,18.43908891458577,19.4164878389476,30.26549190084312,52.773099207835045,40.44749683231337,39.0,46.0,33.0,9.5,12.5,0.5,5.5,11.180339887498947,11.40175425099138,11.0,22.0,44.0,31.32091952673165,{}
481,853,1.0,67.26812023536856,8.246211251235321,11.40175425099138,17.26267650163207,19.4164878389476,30.4138126514911,49.03060268852505,37.65634076752546,37.5,46.0,33.0,9.5,8.5,0.5,4.5,12.16552506059644,13.341664064126334,12.5,22.0,45.0,29.410882339705484,{}
482,854,0.0,68.24954212300622,8.246211251235321,12.36931687685298,16.278820596099706,17.46424919657298,29.42787793912432,50.00999900019995,37.65634076752546,37.0,44.0,31.0,8.5,11.5,0.5,3.5,12.16552506059644,12.36931687685298,11.5,21.0,44.0,31.95309061734092,{}
483,855,1.4142135623730951,65.30696746902278,8.246211251235321,13.341664064126334,17.11724276862369,18.24828759089466,30.26549190084312,52.952809179494906,39.6232255123179,38.5,46.0,33.0,9.5,12.5,0.5,4.5,12.36931687685298,12.16552506059644,12.0,19.0,43.0,28.46049894151541,{}
484,856,1.0,61.98386886924694,8.246211251235321,16.492422502470642,15.132745950421556,18.110770276274835,28.0713376952364,53.60037313302959,37.21558813185679,36.5,44.0,33.0,10.5,14.5,1.5,4.5,12.36931687685298,12.649110640673518,11.5,24.0,48.0,36.68787265568828,{}
485,857,5.0990195135927845,60.20797289396148,8.246211251235321,16.278820596099706,15.033296378372908,18.24828759089466,27.073972741361768,56.56854249492381,40.311288741492746,37.5,46.0,34.0,13.0,16.0,1.0,6.0,13.152946437965904,15.524174696260024,14.0,23.0,49.0,34.17601498127012,{}
486,858,7.280109889280518,64.32728814430156,7.280109889280518,16.278820596099706,17.11724276862369,19.235384061671343,27.29468812791236,58.05170109479997,41.77319714841085,37.5,46.0,33.0,12.5,17.5,1.5,7.5,12.36931687685298,13.152946437965904,13.0,20.0,47.0,31.016124838541646,{}
487,859,5.0990195135927845,67.468511173732,7.615773105863909,15.297058540778355,18.24828759089466,21.213203435596427,28.284271247461906,56.08921464952064,40.79215610874228,37.5,45.0,31.0,10.0,17.0,2.0,6.0,12.16552506059644,13.601470508735444,12.5,22.0,48.0,31.95309061734092,{}
488,860,2.23606797749979,66.2872536767062,7.615773105863909,16.492422502470642,19.235384061671343,21.213203435596427,26.1725046566048,52.172789842982326,35.6931365951495,34.0,41.0,28.0,8.5,16.5,1.5,4.5,12.36931687685298,13.601470508735444,12.0,20.0,45.0,31.6227766016838,{}
489,861,1.4142135623730951,69.63476143421474,6.324555320336759,15.524174696260024,19.4164878389476,20.39607805437113,26.476404589747453,49.47726750741192,33.95585369269929,32.5,40.0,25.0,6.5,15.5,1.5,3.5,11.40175425099138,12.36931687685298,12.0,19.0,46.0,28.792360097775937,{}
490,862,2.23606797749979,69.63476143421474,6.324555320336759,15.524174696260024,19.235384061671343,20.39607805437113,25.70992026436488,49.72926703662542,34.20526275297414,32.0,39.0,24.0,6.5,16.5,2.5,3.5,12.36931687685298,13.601470508735444,13.0,20.0,48.0,29.154759474226505,{}
491,863,3.1622776601683795,67.26812023536856,5.385164807134504,13.601470508735444,18.24828759089466,20.09975124224178,27.459060435491963,49.47726750741192,35.90264614203248,33.5,39.0,26.0,5.5,15.5,2.5,2.5,12.36931687685298,13.601470508735444,12.5,21.0,48.0,27.31300056749533,{}
492,864,1.4142135623730951,69.85699678629192,7.615773105863909,15.524174696260024,19.4164878389476,20.223748416156685,26.92582403567252,51.24451190127583,35.73513677041127,33.5,40.0,24.0,6.0,17.0,2.0,3.0,11.180339887498947,12.36931687685298,12.0,18.0,46.0,31.6227766016838,{}
493,865,2.23606797749979,67.68308503607086,6.324555320336759,14.866068747318506,18.43908891458577,19.4164878389476,29.410882339705484,52.20153254455275,37.33630940518894,34.5,40.0,25.0,4.5,16.5,2.5,2.5,11.180339887498947,12.649110640673518,11.5,18.0,45.0,31.95309061734092,{}
494,866,3.605551275463989,68.4470598345904,6.324555320336759,13.601470508735444,18.43908891458577,18.24828759089466,30.364452901377952,53.14132102234569,39.56008088970496,36.0,41.0,27.0,5.0,16.0,2.0,2.0,11.180339887498947,13.601470508735444,12.0,19.0,44.0,29.410882339705484,{}
495,867,3.605551275463989,68.65857557508748,6.324555320336759,12.649110640673518,16.278820596099706,17.46424919657298,30.675723300355934,53.14132102234569,40.49691346263317,36.5,40.0,25.0,3.5,17.5,5.5,0.5,12.36931687685298,13.601470508735444,12.5,18.0,45.0,28.792360097775937,{}
496,868,2.8284271247461903,69.2314957226839,6.324555320336759,13.92838827718412,16.278820596099706,18.24828759089466,30.364452901377952,53.14132102234569,39.21734310225516,36.0,38.0,25.0,2.5,18.5,5.5,0.5,12.16552506059644,13.601470508735444,12.5,19.0,45.0,30.364452901377952,{}
497,869,2.23606797749979,72.56721022610694,6.324555320336759,13.601470508735444,17.26267650163207,18.24828759089466,28.46049894151541,50.59644256269407,37.0,34.0,37.0,22.0,2.5,18.5,4.5,0.5,11.180339887498947,12.649110640673518,11.0,19.0,45.0,32.57299494980466,{}
498,870,3.1622776601683795,71.19691004531025,6.324555320336759,12.649110640673518,17.26267650163207,19.235384061671343,27.51363298439521,49.64876634922564,37.0,33.5,34.0,21.0,1.5,19.5,6.5,1.5,11.180339887498947,12.649110640673518,11.5,19.0,46.0,34.48187929913333,{}
499,871,2.23606797749979,70.03570517957252,7.280109889280518,13.601470508735444,18.24828759089466,19.235384061671343,26.570660511172846,49.64876634922564,36.05551275463989,33.0,33.0,21.0,2.0,20.0,6.0,2.0,10.198039027185567,12.649110640673518,12.0,20.0,45.0,33.52610922848042,{}
500,872,3.605551275463989,71.386273190299,7.280109889280518,12.649110640673518,19.235384061671343,20.39607805437113,26.570660511172846,49.9799959983992,37.33630940518894,33.5,36.0,22.0,4.0,18.0,5.0,0.0,11.180339887498947,13.601470508735444,12.5,21.0,44.0,28.16025568065745,{}
501,873,2.8284271247461903,73.348483283569,6.324555320336759,13.601470508735444,20.223748416156685,20.39607805437113,26.570660511172846,49.04079934095692,35.4682957019364,32.0,34.0,20.0,2.0,19.0,6.0,1.0,10.198039027185567,12.649110640673518,12.0,21.0,45.0,34.92849839314596,{}
502,874,3.605551275463989,68.24954212300622,6.324555320336759,12.649110640673518,18.24828759089466,19.4164878389476,25.6320112359526,48.104053883222775,35.4682957019364,31.5,33.0,20.0,2.5,18.5,6.5,0.5,11.180339887498947,12.649110640673518,11.5,21.0,44.0,30.364452901377952,{}
503,875,3.1622776601683795,73.16419889536138,6.324555320336759,12.649110640673518,21.213203435596427,22.36067977499789,26.92582403567252,49.04079934095692,36.40054944640259,32.5,34.0,21.0,2.5,18.5,5.5,0.5,11.04536101718726,12.649110640673518,11.5,21.0,44.0,35.90264614203248,{}
504,876,4.47213595499958,69.87131027825369,5.385164807134504,12.36931687685298,20.223748416156685,19.1049731745428,26.92582403567252,49.04079934095692,36.76955262170047,32.0,31.0,20.0,0.5,20.5,7.5,1.5,12.16552506059644,13.601470508735444,12.5,21.0,44.0,30.59411708155671,{}
505,877,4.47213595499958,73.824115301167,6.324555320336759,12.36931687685298,20.223748416156685,21.213203435596427,25.6320112359526,48.70318264754368,36.40054944640259,32.0,30.0,19.0,0.5,21.5,8.5,2.5,13.152946437965904,13.601470508735444,12.5,22.0,45.0,35.17101079013795,{}
506,878,4.47213595499958,73.97972695272672,5.385164807134504,11.40175425099138,19.235384061671343,20.223748416156685,26.92582403567252,48.104053883222775,36.76955262170047,32.0,31.0,19.0,0.0,20.0,8.0,2.0,12.16552506059644,13.341664064126334,12.5,21.0,44.0,34.92849839314596,{}
507,879,4.47213595499958,75.13321502504735,5.385164807134504,10.770329614269007,21.213203435596427,20.09975124224178,26.570660511172846,47.16990566028302,36.40054944640259,32.0,32.0,19.0,0.5,18.5,6.5,1.5,12.041594578792296,13.601470508735444,13.0,21.0,43.0,33.734255586866,{}
508,880,4.242640687119285,75.95393340703298,6.082762530298219,12.36931687685298,19.235384061671343,20.223748416156685,25.6320112359526,47.75981574503821,35.4682957019364,31.5,31.0,19.0,1.0,20.0,8.0,2.0,12.16552506059644,13.601470508735444,12.5,21.0,43.0,32.984845004941285,{}
