,video_id,frame_seq,gap,time_seconds,m1,m3,m4,m5,m6,m7,m8,m9,m10,m11,m12,m13,m14,m15,m16,m17,e1,e2,e3,b1,b2,b3
0,48,175,1,5.839166666666672,3.1622776601683795,30.265491900843113,4.0,6.082762530298219,8.06225774829855,9.055385138137417,6.324555320336759,19.4164878389476,13.341664064126334,11.5,14.0,10.0,6.0,7.0,1.0,3.0,4.0,4.0,3.5,9.0,12.0,10.0
1,48,176,0,5.8725333333333385,3.0,29.154759474226502,3.1622776601683795,6.082762530298219,7.0,9.0,6.082762530298219,18.24828759089466,12.165525060596439,10.5,13.0,10.0,5.5,6.5,0.5,2.5,4.0,4.0,4.0,9.0,11.0,10.0
2,48,177,0,5.905900000000005,3.0,28.071337695236398,3.0,5.0990195135927845,8.06225774829855,9.055385138137417,6.324555320336759,17.26267650163207,12.165525060596439,10.5,11.0,9.0,4.0,7.0,1.0,2.0,4.0,4.0,4.0,8.0,9.0,9.0
3,48,178,0,5.939266666666672,1.0,26.076809620810597,3.0,5.0990195135927845,8.06225774829855,8.0,6.324555320336759,15.297058540778355,10.198039027185569,9.5,11.0,9.0,4.0,5.0,0.0,2.0,3.0,3.0,3.5,8.0,8.0,9.0
4,48,179,0,5.972633333333339,2.0,26.019223662515376,3.0,5.0,7.0,8.0,5.385164807134504,15.132745950421556,10.198039027185569,9.0,10.0,9.0,4.5,5.5,0.5,1.5,3.0,3.0,3.5,9.0,9.0,8.06225774829855
5,48,180,0,6.006000000000006,2.0,26.019223662515376,3.0,5.0,8.06225774829855,7.0,5.385164807134504,15.132745950421556,10.198039027185569,9.0,10.0,9.0,4.5,5.5,0.5,2.5,3.0,3.1622776601683795,3.5,7.0,8.0,9.0
6,48,181,0,6.039366666666672,2.0,24.020824298928627,2.0,5.0,6.0,7.0,6.324555320336759,15.132745950421556,10.198039027185569,9.0,10.0,9.0,3.5,5.5,0.5,1.5,3.1622776601683795,2.0,2.0,7.0,8.0,8.0
7,48,182,0,6.072733333333339,2.0,24.020824298928627,3.0,4.0,7.0,8.0,5.385164807134504,14.142135623730951,10.198039027185569,9.0,10.0,9.0,4.5,4.5,0.5,1.5,3.0,3.0,3.0,8.0,8.0,8.0
8,48,183,0,6.106100000000006,1.0,24.08318915758459,3.0,5.0990195135927845,7.0710678118654755,7.0710678118654755,5.385164807134504,14.317821063276353,9.219544457292887,8.5,10.0,8.0,4.0,5.0,0.0,2.0,3.0,2.0,2.0,7.0,8.0,7.0
9,48,184,0,6.139466666666673,1.0,21.02379604162864,3.0,5.0,6.0,7.0710678118654755,5.385164807134504,14.142135623730951,9.219544457292887,8.5,10.0,9.0,4.5,4.5,0.5,1.5,3.1622776601683795,2.0,2.5,7.0,8.0,7.0
10,48,185,0,6.172833333333339,1.0,22.02271554554524,3.0,4.0,6.082762530298219,6.0,5.385164807134504,13.152946437965905,9.219544457292887,8.5,10.0,9.0,4.5,3.5,1.5,2.5,2.0,3.0,3.0,6.0,7.0,7.0
11,48,186,0,6.206200000000006,1.0,21.0,3.0,5.0990195135927845,5.0,6.082762530298219,4.123105625617661,13.152946437965905,8.06225774829855,7.5,8.0,8.0,4.0,5.0,0.0,1.0,3.1622776601683795,3.0,2.5,7.0,7.0,7.0
12,48,187,0,6.239566666666673,1.0,19.1049731745428,2.0,5.0990195135927845,6.0,6.0,4.123105625617661,12.165525060596439,7.0710678118654755,6.5,9.0,7.0,4.0,4.0,1.0,2.0,3.0,2.0,2.5,6.0,6.0,7.0710678118654755
13,48,188,0,6.27293333333334,2.0,20.0,2.0,4.0,6.0,6.0,4.47213595499958,12.165525060596439,8.246211251235321,7.0,8.0,8.0,4.0,4.0,0.0,2.0,3.0,2.0,2.0,6.0,6.0,7.0
14,48,189,0,6.306300000000007,1.0,17.029386365926403,2.23606797749979,4.0,5.0,5.0990195135927845,5.0990195135927845,12.165525060596439,8.246211251235321,7.5,10.0,9.0,4.5,2.5,1.5,2.5,2.0,2.0,2.0,6.0,6.0,6.0
15,48,256,1,8.541866666666666,20.0,81.02468759581859,5.0990195135927845,11.0,20.024984394500787,22.0,20.024984394500787,56.0,45.0,35.0,26.0,28.0,7.0,29.0,17.0,3.0,9.0,9.055385138137417,8.5,30.0,23.0,34.132096331752024
16,48,268,1,8.942266666666656,9.055385138137417,65.49045732013177,4.123105625617661,6.082762530298219,16.1245154965971,17.029386365926403,11.180339887498949,30.4138126514911,24.331050121192877,19.5,12.0,20.0,5.0,14.0,7.0,1.0,5.0990195135927845,5.0990195135927845,5.0,24.0,7.0,19.4164878389476
17,48,298,1,9.943266666666633,1.0,26.019223662515376,2.0,5.0990195135927845,7.0,8.06225774829855,6.082762530298219,14.142135623730951,9.055385138137417,8.5,8.0,9.0,2.5,5.5,0.5,0.5,3.0,3.1622776601683795,3.0,10.0,8.0,7.0
18,48,323,1,10.77743333333328,4.0,40.311288741492746,4.123105625617661,8.06225774829855,10.04987562112089,11.045361017187261,11.180339887498949,27.294688127912362,19.235384061671343,17.0,14.0,9.0,0.5,15.5,6.5,2.5,2.0,2.8284271247461903,2.5,12.0,20.0,20.223748416156685
19,48,324,0,10.810799999999944,5.0990195135927845,37.33630940518894,4.0,8.06225774829855,10.04987562112089,11.045361017187261,10.198039027185569,27.294688127912362,19.235384061671343,16.5,14.0,9.0,1.5,15.5,6.5,1.5,2.0,2.23606797749979,1.5,11.0,19.0,18.24828759089466
20,48,325,0,10.844166666666611,5.0,38.2099463490856,4.123105625617661,7.0710678118654755,9.055385138137417,10.04987562112089,10.198039027185569,26.30589287593181,19.235384061671343,16.5,13.0,9.0,1.0,15.0,7.0,2.0,2.23606797749979,1.4142135623730951,1.5,11.0,18.0,17.11724276862369
21,48,326,0,10.877533333333275,4.0,34.36568055487916,4.0,8.06225774829855,8.06225774829855,10.04987562112089,10.44030650891055,26.30589287593181,18.24828759089466,16.0,14.0,9.0,1.5,14.5,6.5,1.5,2.23606797749979,2.8284271247461903,2.0,10.0,18.0,17.11724276862369
22,48,327,0,10.910899999999945,3.0,36.22154055254967,4.123105625617661,8.06225774829855,9.055385138137417,10.0,9.055385138137417,24.186773244895647,16.1245154965971,14.5,11.0,7.0,0.0,15.0,7.0,3.0,2.0,2.8284271247461903,1.5,10.0,17.0,16.1245154965971
23,48,328,0,10.944266666666609,4.0,34.23448553724738,4.123105625617661,7.0710678118654755,9.055385138137417,9.055385138137417,9.219544457292887,24.331050121192877,17.26267650163207,15.0,12.0,8.0,1.0,14.0,6.0,2.0,1.4142135623730951,2.8284271247461903,2.0,9.0,16.0,16.1245154965971
24,48,329,0,10.977633333333277,4.0,33.24154027718932,3.1622776601683795,7.0710678118654755,8.06225774829855,9.055385138137417,9.055385138137417,23.194827009486403,16.1245154965971,14.0,11.0,7.0,0.0,14.0,7.0,3.0,2.0,2.23606797749979,1.0,10.0,16.0,14.035668847618199
25,48,330,0,11.01099999999994,4.0,32.2490309931942,3.1622776601683795,7.0710678118654755,9.055385138137417,9.055385138137417,8.06225774829855,22.20360331117452,15.132745950421556,13.0,10.0,6.0,0.0,14.0,7.0,2.0,1.4142135623730951,2.23606797749979,2.0,9.0,15.0,16.1245154965971
26,48,331,0,11.044366666666606,3.0,30.265491900843113,3.1622776601683795,7.0710678118654755,8.06225774829855,8.06225774829855,9.055385138137417,22.20360331117452,15.132745950421556,13.5,11.0,7.0,0.0,13.0,6.0,2.0,1.4142135623730951,2.8284271247461903,2.0,8.0,15.0,15.033296378372908
27,48,332,0,11.077733333333272,4.0,29.427877939124322,3.0,6.082762530298219,8.06225774829855,8.06225774829855,8.246211251235321,21.213203435596427,15.132745950421556,13.0,11.0,6.0,0.5,12.5,5.5,1.5,2.23606797749979,2.23606797749979,1.0,8.0,15.0,14.035668847618199
28,48,333,0,11.111099999999938,3.1622776601683795,29.274562336608895,3.0,7.0710678118654755,8.06225774829855,8.06225774829855,8.246211251235321,21.37755832643195,14.317821063276353,12.5,11.0,7.0,1.0,12.0,5.0,1.0,2.23606797749979,2.23606797749979,2.0,8.0,14.0,13.038404810405298
29,48,334,0,11.144466666666604,4.123105625617661,27.459060435491963,2.0,6.0,7.280109889280518,7.0710678118654755,8.246211251235321,20.223748416156685,14.317821063276353,12.0,11.0,6.0,0.5,11.5,5.5,0.5,1.0,1.4142135623730951,1.0,8.0,14.0,13.152946437965905
30,48,335,0,11.17783333333327,3.0,28.160255680657446,3.0,6.082762530298219,8.06225774829855,8.06225774829855,8.246211251235321,20.223748416156685,14.142135623730951,12.5,10.0,7.0,0.5,11.5,5.5,1.5,1.4142135623730951,1.4142135623730951,1.5,8.0,14.0,14.142135623730951
31,48,336,0,11.211199999999936,3.0,28.160255680657446,3.0,6.082762530298219,7.0710678118654755,8.06225774829855,7.280109889280518,19.235384061671343,13.152946437965905,11.5,9.0,6.0,0.5,11.5,5.5,1.5,1.0,1.4142135623730951,1.0,8.0,13.0,13.152946437965905
32,48,337,0,11.244566666666602,4.0,27.16615541441225,2.23606797749979,5.0990195135927845,7.0710678118654755,7.0,7.0710678118654755,18.24828759089466,13.152946437965905,11.0,8.0,5.0,0.5,11.5,6.5,1.5,1.0,1.4142135623730951,1.0,8.0,14.0,12.165525060596439
33,48,338,0,11.277933333333268,3.0,26.1725046566048,2.0,5.0990195135927845,6.0,7.0,8.246211251235321,18.24828759089466,13.152946437965905,11.5,9.0,6.0,0.5,10.5,4.5,2.5,2.0,1.4142135623730951,1.0,7.0,12.0,12.041594578792296
34,48,339,0,11.311299999999934,4.0,26.1725046566048,2.0,5.0990195135927845,8.0,7.0,6.324555320336759,17.26267650163207,12.165525060596439,10.0,8.0,5.0,0.5,10.5,5.5,1.5,1.0,1.4142135623730951,1.0,7.0,12.0,12.041594578792296
35,48,340,0,11.3446666666666,3.0,26.1725046566048,3.0,5.0990195135927845,6.0,7.0,6.082762530298219,17.11724276862369,12.041594578792296,10.5,8.0,5.0,0.5,10.5,4.5,1.5,1.0,1.4142135623730951,1.0,7.0,12.0,12.041594578792296
36,48,341,0,11.378033333333263,3.0,24.186773244895647,2.0,5.0990195135927845,6.0,6.082762530298219,7.0710678118654755,17.11724276862369,12.041594578792296,10.5,9.0,6.0,0.5,9.5,4.5,1.5,1.4142135623730951,1.4142135623730951,1.0,7.0,13.0,12.041594578792296
37,48,353,1,11.778433333333256,1.4142135623730951,50.24937810560445,4.123105625617661,8.06225774829855,14.035668847618199,16.0312195418814,16.1245154965971,29.427877939124322,21.37755832643195,20.5,14.0,19.0,0.5,12.5,2.5,2.5,3.0,3.0,3.0,13.0,8.0,16.1245154965971
38,48,354,0,11.811799999999922,1.0,51.24451190127583,4.123105625617661,8.06225774829855,15.132745950421556,15.033296378372908,16.1245154965971,28.442925306655784,20.396078054371138,20.0,14.0,19.0,0.5,11.5,2.5,3.5,4.123105625617661,5.0,4.5,13.0,8.0,13.0
39,48,355,0,11.845166666666588,0.0,48.093658625644196,4.123105625617661,7.0710678118654755,13.038404810405298,14.035668847618199,15.132745950421556,26.30589287593181,19.235384061671343,19.0,14.0,17.0,0.5,10.5,2.5,2.5,3.0,4.0,3.5,11.0,6.0,14.035668847618199
40,48,356,0,11.878533333333252,1.0,41.19465984809196,4.0,7.0710678118654755,12.041594578792296,13.038404810405298,14.142135623730951,25.317977802344327,18.24828759089466,18.0,13.0,17.0,1.0,10.0,2.0,2.0,3.0,4.123105625617661,4.0,12.0,8.0,12.0
41,48,357,0,11.91189999999992,0.0,43.104524124504614,4.123105625617661,6.082762530298219,13.0,13.038404810405298,13.152946437965905,23.345235059857504,17.26267650163207,17.0,12.0,15.0,0.5,9.5,2.5,2.5,3.1622776601683795,3.0,3.5,11.0,6.0,14.142135623730951
42,48,358,0,11.945266666666583,1.0,40.19950248448356,3.0,7.0,12.041594578792296,13.038404810405298,13.152946437965905,23.194827009486403,16.278820596099706,16.0,11.0,15.0,0.0,10.0,2.0,3.0,2.0,2.0,2.0,10.0,6.0,12.0
43,48,359,0,11.978633333333253,1.0,40.11234224026316,4.0,6.082762530298219,11.045361017187261,12.0,11.180339887498949,21.37755832643195,15.297058540778355,15.0,11.0,14.0,1.5,8.5,1.5,2.5,2.23606797749979,2.0,2.5,9.0,5.0,11.045361017187261
44,48,360,0,12.011999999999915,1.0,38.118237105091836,3.0,6.082762530298219,11.045361017187261,11.045361017187261,12.165525060596439,21.37755832643195,15.297058540778355,15.0,11.0,14.0,0.5,8.5,1.5,2.5,2.0,2.0,2.0,9.0,4.0,12.041594578792296
45,48,361,0,12.045366666666585,1.0,35.12833614050059,3.1622776601683795,5.0990195135927845,10.04987562112089,10.04987562112089,11.045361017187261,20.223748416156685,15.132745950421556,14.5,11.0,14.0,1.5,7.5,1.5,1.5,2.0,2.0,2.5,9.0,5.0,10.04987562112089
46,48,362,0,12.078733333333249,1.0,20.024984394500787,2.0,2.0,6.0,6.0,5.0,10.0,8.0,7.5,8.0,7.0,2.5,2.5,0.5,0.5,3.0,3.0,3.0,7.0,7.0,9.0
47,48,363,0,12.112099999999916,1.4142135623730951,33.06055050963308,2.0,5.0,10.04987562112089,10.04987562112089,10.198039027185569,18.24828759089466,13.341664064126334,12.5,9.0,11.0,0.0,8.0,2.0,2.0,2.0,2.0,2.0,8.0,4.0,9.0
48,48,364,0,12.14546666666658,1.0,31.144823004794873,3.0,5.0,9.055385138137417,9.055385138137417,9.055385138137417,17.11724276862369,12.165525060596439,12.0,9.0,12.0,1.5,6.5,0.5,1.5,1.0,2.0,2.0,8.0,4.0,9.055385138137417
49,48,365,0,12.178833333333246,1.0,30.14962686336267,3.0,4.0,9.0,9.055385138137417,10.04987562112089,17.11724276862369,13.152946437965905,13.0,9.0,12.0,0.5,6.5,1.5,1.5,1.0,2.0,1.5,7.0,4.0,10.04987562112089
50,48,366,0,12.212199999999912,1.0,29.068883707497267,2.0,4.123105625617661,8.06225774829855,9.055385138137417,9.219544457292887,16.278820596099706,12.165525060596439,11.5,9.0,11.0,1.0,6.0,1.0,1.0,2.0,2.0,2.0,7.0,4.0,9.055385138137417
51,48,367,0,12.245566666666578,1.0,29.068883707497267,3.0,4.0,8.0,8.0,8.06225774829855,15.132745950421556,11.180339887498949,11.0,8.0,10.0,1.0,6.0,1.0,1.0,1.0,1.0,1.5,7.0,4.0,8.0
52,48,368,0,12.278933333333244,1.0,28.160255680657446,2.0,4.123105625617661,8.06225774829855,8.0,9.219544457292887,16.278820596099706,12.165525060596439,11.5,8.0,11.0,0.5,6.5,1.5,1.5,2.0,1.0,1.5,7.0,3.0,8.06225774829855
53,48,369,0,12.31229999999991,1.0,27.16615541441225,2.23606797749979,3.0,7.0,8.0,8.06225774829855,14.142135623730951,11.180339887498949,10.5,7.0,10.0,0.5,5.5,1.5,1.5,1.0,1.0,1.0,6.0,4.0,8.0
54,48,370,0,12.345666666666576,0.0,25.179356624028344,2.0,4.0,8.0,7.0710678118654755,8.246211251235321,14.142135623730951,10.198039027185569,10.0,7.0,10.0,0.5,5.5,1.5,0.5,2.0,1.4142135623730951,1.5,7.0,4.0,8.246211251235321
55,48,371,0,12.379033333333242,1.0,24.186773244895647,2.0,4.0,7.0710678118654755,8.06225774829855,7.280109889280518,13.341664064126334,9.486832980505138,9.0,6.0,9.0,0.5,5.5,1.5,1.5,1.0,1.0,1.5,6.0,3.0,7.0710678118654755
56,48,372,0,12.412399999999908,0.0,24.08318915758459,2.0,3.1622776601683795,7.0,6.0,7.0710678118654755,12.165525060596439,9.055385138137417,9.0,7.0,9.0,1.0,4.0,0.0,0.0,2.0,2.0,2.0,7.0,4.0,5.0990195135927845
57,48,441,1,14.714699999999851,8.0,78.00640999302557,9.055385138137417,14.0,20.024984394500787,22.0,24.0,55.00909015790027,41.012193308819754,37.0,34.0,33.0,9.5,21.5,6.5,2.5,9.0,10.0,10.0,28.0,30.0,29.0
58,48,442,0,14.74806666666652,11.045361017187261,73.00684899377592,8.0,15.0,19.026297590440446,20.024984394500787,28.0,62.00806399170998,47.01063709417264,41.5,40.0,41.0,12.5,21.5,4.5,4.5,10.0,11.0,10.5,29.0,31.0,30.01666203960727
59,48,443,0,14.781433333333185,10.04987562112089,71.00704190430693,9.0,14.0,18.0,20.024984394500787,29.0,62.00806399170998,48.010415536631214,43.0,43.0,44.0,14.5,18.5,2.5,6.5,12.0,12.0,12.0,28.0,31.0,30.01666203960727
60,48,444,0,14.81479999999985,9.0,71.00704190430693,8.06225774829855,15.033296378372908,19.026297590440446,21.02379604162864,30.0,62.03224967708329,47.01063709417264,42.5,43.0,44.0,13.5,18.5,2.5,5.5,11.045361017187261,11.0,11.0,28.0,32.0,31.016124838541646
61,48,445,0,14.848166666666517,8.0,71.02816342831905,8.06225774829855,14.0,20.0,21.02379604162864,30.01666203960727,60.03332407921454,46.04345773288535,42.0,42.0,44.0,13.0,17.0,2.0,6.0,12.041594578792296,12.0,12.5,29.0,33.0,35.05709628591621
62,48,446,0,14.881533333333184,8.0,70.00714249274856,7.0710678118654755,14.0,19.026297590440446,20.024984394500787,31.0,60.00833275470999,46.010868281309364,42.0,43.0,44.0,12.5,16.5,1.5,5.5,12.041594578792296,12.0,12.0,29.0,32.0,34.058772731852805
63,48,447,0,14.914899999999848,9.0,72.02777242147643,7.0710678118654755,12.0,19.026297590440446,19.026297590440446,30.01666203960727,58.034472514187634,46.04345773288535,41.5,42.0,44.0,13.0,15.0,1.0,6.0,8.06225774829855,9.0,9.0,30.0,33.0,30.066592756745816
64,48,448,0,14.948266666666514,10.0,72.02777242147643,7.0,14.0,19.026297590440446,21.02379604162864,29.068883707497267,60.03332407921454,46.04345773288535,41.0,42.0,44.0,14.0,17.0,2.0,7.0,4.123105625617661,6.0,5.5,31.0,35.0,28.071337695236398
65,48,449,0,14.98163333333318,10.04987562112089,72.02777242147643,8.06225774829855,13.0,19.0,20.024984394500787,29.017236257093817,60.00833275470999,47.01063709417264,42.0,42.0,44.0,14.0,17.0,3.0,7.0,5.0,7.0710678118654755,7.0,31.0,34.0,28.160255680657446
66,48,450,0,15.014999999999846,7.0710678118654755,69.02897942168927,8.06225774829855,13.0,20.0,21.0,29.068883707497267,57.0350769263968,44.04543109109048,40.5,42.0,44.0,14.0,14.0,0.0,7.0,7.0,7.0,7.0,31.0,33.0,31.064449134018133
67,48,451,0,15.048366666666512,9.0,72.06247289678588,8.0,12.0,20.024984394500787,21.02379604162864,29.068883707497267,58.034472514187634,46.04345773288535,41.5,42.0,45.0,14.5,14.5,1.5,7.5,9.0,10.0,10.0,32.0,34.0,32.0624390837628
68,48,452,0,15.081733333333178,8.0,71.06335201775947,8.0,11.0,20.0,21.02379604162864,30.01666203960727,57.0087712549569,46.010868281309364,42.0,42.0,45.0,13.5,13.5,0.5,6.5,10.04987562112089,10.0,10.0,31.0,33.0,30.066592756745816
69,48,453,0,15.115099999999844,10.04987562112089,71.11258679024411,7.0,11.0,20.024984394500787,20.024984394500787,31.016124838541646,59.0,48.0,43.0,42.0,46.0,13.0,15.0,2.0,7.0,10.0,10.0,10.0,32.0,32.0,30.01666203960727
70,48,454,0,15.14846666666651,10.0,72.17340230306452,7.0,12.041594578792296,20.024984394500787,21.095023109728988,30.0,59.00847396772772,47.0,42.0,40.0,45.0,12.5,16.5,2.5,5.5,10.0,11.0,10.5,33.0,32.0,29.017236257093817
71,48,455,0,15.181833333333175,10.04987562112089,73.33484846919642,8.0,12.041594578792296,19.1049731745428,20.09975124224178,29.017236257093817,59.00847396772772,47.0,42.0,39.0,46.0,13.5,16.5,2.5,5.5,11.0,13.0,12.5,32.0,30.0,30.14962686336267
72,48,456,0,15.21519999999984,11.045361017187261,72.24956747275377,8.0,13.038404810405298,20.09975124224178,21.213203435596427,29.017236257093817,61.00819617067857,48.0,42.5,40.0,46.0,14.0,18.0,3.0,6.0,11.0,11.0,11.0,34.0,32.0,31.016124838541646
73,48,457,0,15.248566666666507,12.041594578792296,71.25307010929424,7.0,12.041594578792296,18.027756377319946,20.09975124224178,29.0,60.03332407921454,48.010415536631214,42.0,39.0,45.0,13.0,18.0,4.0,6.0,10.0,11.045361017187261,11.0,33.0,30.0,32.01562118716424
74,48,458,0,15.281933333333171,11.180339887498949,70.45565981523414,8.0,12.041594578792296,20.09975124224178,21.213203435596427,29.0,60.07495318350236,48.041648597857254,42.5,39.0,47.0,14.0,17.0,3.0,6.0,10.04987562112089,11.045361017187261,11.0,34.0,32.0,29.017236257093817
75,48,459,0,15.31529999999984,13.0,69.35416353759881,7.0710678118654755,12.041594578792296,19.1049731745428,21.213203435596427,29.017236257093817,61.00819617067857,49.0,42.5,40.0,47.0,14.5,17.5,3.5,6.5,11.0,12.0,12.0,34.0,32.0,27.018512172212592
76,48,460,0,15.348666666666505,14.0,70.34912934784623,7.0,13.152946437965905,19.235384061671343,21.213203435596427,28.0,62.03224967708329,49.0,42.0,40.0,47.0,15.5,18.5,3.5,7.5,12.0,13.0,12.5,35.0,33.0,30.066592756745816
77,48,461,0,15.38203333333317,13.0,70.34912934784623,8.0,14.035668847618199,20.09975124224178,22.20360331117452,29.0,64.00781202322104,50.0,43.5,41.0,48.0,15.5,19.5,2.5,7.5,12.041594578792296,14.035668847618199,13.0,33.0,31.0,27.073972741361768
78,48,462,0,15.415399999999837,1.0,66.37017402418047,7.0,13.038404810405298,19.1049731745428,19.235384061671343,32.01562118716424,53.03772242470448,40.01249804748511,39.5,39.0,46.0,10.5,10.5,4.5,3.5,11.045361017187261,12.041594578792296,11.5,33.0,31.0,29.068883707497267
79,48,463,0,15.448766666666502,1.0,70.45565981523414,7.0,11.045361017187261,19.1049731745428,20.223748416156685,31.0,49.040799340956916,38.01315561749642,38.0,37.0,45.0,10.0,8.0,5.0,3.0,11.0,11.045361017187261,10.5,33.0,31.0,28.071337695236398
80,48,464,0,15.482133333333168,0.0,70.34912934784623,7.0710678118654755,13.038404810405298,19.1049731745428,20.09975124224178,31.016124838541646,51.0098029794274,38.0,38.0,38.0,45.0,10.5,9.5,5.5,3.5,11.0,12.041594578792296,12.0,33.0,31.0,27.018512172212592
81,48,465,0,15.515499999999834,1.4142135623730951,69.26037828369117,7.0,10.04987562112089,19.1049731745428,20.09975124224178,32.01562118716424,50.00999900019995,40.0,39.5,39.0,45.0,10.0,8.0,5.0,3.0,11.0,11.0,11.5,33.0,30.0,28.071337695236398
82,48,466,0,15.5488666666665,7.0710678118654755,67.36467917239716,8.0,14.035668847618199,19.1049731745428,20.223748416156685,30.01666203960727,59.00847396772772,45.0,41.5,39.0,46.0,12.5,16.5,0.5,5.5,12.041594578792296,12.041594578792296,12.0,35.0,29.0,30.01666203960727
83,48,467,0,15.582233333333166,11.0,66.37017402418047,7.0,16.0312195418814,18.110770276274835,19.235384061671343,29.017236257093817,63.0317380372777,47.01063709417264,41.5,39.0,46.0,13.5,20.5,2.5,6.5,12.041594578792296,12.041594578792296,12.0,35.0,29.0,31.0
84,48,468,0,15.615599999999832,10.0,61.5223536610881,7.0,15.033296378372908,16.278820596099706,18.439088914585774,29.068883707497267,61.07372593840988,46.04345773288535,41.0,40.0,48.0,15.0,17.0,1.0,7.0,12.0,13.038404810405298,12.5,34.0,28.0,30.01666203960727
85,48,469,0,15.648966666666498,2.23606797749979,57.42821606144492,8.0,11.045361017187261,16.0312195418814,17.029386365926403,9.0,30.066592756745816,19.026297590440446,18.0,15.0,22.0,9.5,11.5,0.5,1.5,12.041594578792296,11.0,11.5,31.0,24.0,32.01562118716424
86,48,470,0,15.682333333333164,6.082762530298219,63.63961030678928,7.0,15.033296378372908,18.24828759089466,19.4164878389476,28.071337695236398,56.142675390472796,41.10960958218893,38.0,36.0,45.0,12.5,15.5,3.5,4.5,12.041594578792296,13.0,12.5,34.0,27.0,30.01666203960727
87,48,471,0,15.71569999999983,6.0,67.60177512462228,7.0,14.035668847618199,18.24828759089466,19.4164878389476,29.154759474226502,56.142675390472796,42.1070065428546,39.0,37.0,46.0,12.5,14.5,2.5,4.5,12.041594578792296,12.041594578792296,12.0,36.0,31.0,31.016124838541646
88,48,472,0,15.749066666666495,4.0,68.59300255857006,7.0,13.038404810405298,19.4164878389476,20.615528128088304,29.068883707497267,53.08483775994799,40.049968789001575,38.0,37.0,46.0,12.5,11.5,4.5,4.5,12.041594578792296,12.041594578792296,12.0,36.0,28.0,30.01666203960727
89,48,473,0,15.78243333333316,2.0,70.71067811865476,6.0,13.152946437965905,19.235384061671343,20.223748416156685,29.068883707497267,50.15974481593781,37.05401462729781,36.0,34.0,44.0,10.0,11.0,5.0,3.0,11.045361017187261,12.0,12.0,36.0,30.0,31.0
90,48,474,0,15.815799999999829,1.0,71.34423592694787,6.082762530298219,13.038404810405298,20.09975124224178,21.213203435596427,28.0178514522438,48.010415536631214,35.0,34.5,33.0,40.0,8.5,11.5,3.5,2.5,13.038404810405298,12.0,12.0,36.0,28.0,31.016124838541646
91,48,475,0,15.849166666666491,1.0,72.44308110509934,6.0,12.041594578792296,21.095023109728988,21.213203435596427,29.0,48.010415536631214,36.0,35.5,32.0,40.0,7.0,12.0,3.0,2.0,12.041594578792296,12.0,12.0,36.0,29.0,31.064449134018133
92,48,476,0,15.88253333333316,2.23606797749979,70.34912934784623,5.0,13.038404810405298,20.09975124224178,20.396078054371138,29.017236257093817,49.01020301937138,36.0,35.0,33.0,40.0,7.5,12.5,2.5,2.5,12.041594578792296,13.038404810405298,12.5,35.0,25.0,31.016124838541646
93,48,477,0,15.915899999999825,3.0,69.35416353759881,6.082762530298219,14.142135623730951,19.1049731745428,20.223748416156685,28.071337695236398,51.0098029794274,37.013511046643494,35.5,33.0,40.0,8.5,14.5,2.5,2.5,12.041594578792296,13.0,12.5,37.0,29.0,29.068883707497267
94,48,478,0,15.94926666666649,4.123105625617661,67.36467917239716,6.0,13.0,20.09975124224178,20.223748416156685,29.068883707497267,52.009614495783374,39.01281840626232,37.0,33.0,40.0,7.5,15.5,0.5,2.5,13.152946437965905,13.038404810405298,13.0,36.0,29.0,30.066592756745816
95,48,479,0,15.982633333333157,3.0,69.35416353759881,6.0,14.035668847618199,21.213203435596427,21.213203435596427,27.073972741361768,50.00999900019995,36.05551275463989,34.5,31.0,38.0,7.5,15.5,1.5,1.5,14.142135623730951,14.0,14.0,36.0,28.0,30.066592756745816
96,48,480,0,16.015999999999824,2.0,67.36467917239716,5.0,14.035668847618199,19.1049731745428,20.223748416156685,28.0178514522438,49.0,35.014282800023196,34.0,31.0,38.0,6.5,14.5,2.5,1.5,13.038404810405298,14.0,13.5,36.0,28.0,29.068883707497267
97,48,481,0,16.04936666666649,2.0,66.37017402418047,5.0,13.0,19.1049731745428,20.223748416156685,28.0178514522438,48.010415536631214,35.014282800023196,34.0,30.0,37.0,5.5,14.5,1.5,1.5,12.165525060596439,12.041594578792296,11.5,36.0,27.0,28.160255680657446
98,48,482,0,16.082733333333156,4.0,65.49045732013177,5.0,14.0,19.235384061671343,19.235384061671343,28.0178514522438,51.0098029794274,37.013511046643494,35.0,30.0,38.0,6.0,17.0,0.0,1.0,14.035668847618199,14.0,14.0,37.0,26.0,28.160255680657446
99,48,483,0,16.116099999999822,5.0,62.51399843235114,6.0,14.0,18.24828759089466,20.396078054371138,28.0,53.0,39.0,36.5,31.0,39.0,7.0,18.0,0.0,1.0,13.038404810405298,14.035668847618199,13.5,38.0,29.0,31.064449134018133
100,48,484,0,16.149466666666488,5.0,63.788713735268246,5.0,16.0312195418814,17.26267650163207,19.4164878389476,29.068883707497267,55.00909015790027,39.05124837953327,36.5,31.0,41.0,7.0,19.0,1.0,2.0,13.038404810405298,13.0,13.0,37.0,28.0,29.154759474226502
101,48,485,0,16.182833333333154,4.123105625617661,63.953107821277925,6.082762530298219,14.035668847618199,19.235384061671343,20.223748416156685,29.154759474226502,53.03772242470448,39.11521443121589,37.0,28.0,39.0,4.5,19.5,1.5,1.5,13.038404810405298,13.038404810405298,12.5,37.0,25.0,29.154759474226502
102,48,486,0,16.21619999999982,2.0,63.387695966961914,7.0,14.0,18.110770276274835,18.439088914585774,30.14962686336267,53.08483775994799,39.11521443121589,38.0,32.0,39.0,5.5,17.5,0.5,0.5,13.152946437965905,14.0,13.0,36.0,25.0,29.274562336608895
103,48,487,0,16.249566666666485,0.0,66.48308055437865,6.0,10.04987562112089,16.0312195418814,16.0312195418814,12.041594578792296,28.0,18.027756377319946,18.0,11.0,19.0,3.0,13.0,1.0,3.0,13.038404810405298,12.0,12.5,32.0,23.0,29.154759474226502
104,48,488,0,16.28293333333315,1.0,69.46221994724903,6.0,12.041594578792296,18.24828759089466,19.235384061671343,30.265491900843113,49.09175083453431,37.21558813185679,36.5,28.0,36.0,2.0,17.0,1.0,4.0,13.038404810405298,13.0,13.0,36.0,25.0,29.154759474226502
105,48,489,0,16.316299999999817,1.0,67.47592163134935,6.082762530298219,11.0,18.24828759089466,19.235384061671343,30.265491900843113,48.093658625644196,37.12142238654117,36.5,28.0,36.0,2.0,16.0,1.0,4.0,13.152946437965905,13.0,13.0,36.0,26.0,30.14962686336267
106,48,490,0,16.349666666666483,1.0,69.87131027825369,6.082762530298219,11.045361017187261,19.235384061671343,20.615528128088304,28.442925306655784,46.09772228646444,35.22782990761707,34.5,24.0,35.0,1.5,16.5,1.5,4.5,12.041594578792296,12.0,12.0,36.0,25.0,27.16615541441225
107,48,491,0,16.38303333333315,2.0,73.97972695272672,7.0710678118654755,11.180339887498949,20.396078054371138,21.37755832643195,26.476404589747453,46.04345773288535,35.22782990761707,34.0,23.0,35.0,3.0,17.0,2.0,4.0,12.041594578792296,12.0,11.5,36.0,23.0,29.154759474226502
108,48,492,0,16.416399999999815,4.47213595499958,76.2954782408499,6.0,12.041594578792296,20.396078054371138,21.587033144922902,25.317977802344327,47.01063709417264,35.05709628591621,33.0,21.0,35.0,3.0,19.0,3.0,4.0,12.041594578792296,13.0,12.5,38.0,25.0,28.160255680657446
109,48,493,0,16.44976666666648,4.123105625617661,72.99315036357864,7.0,12.165525060596439,20.223748416156685,21.37755832643195,25.179356624028344,48.0,36.05551275463989,34.0,24.0,36.0,5.0,18.0,2.0,2.0,12.041594578792296,13.038404810405298,12.5,38.0,27.0,28.160255680657446
110,48,494,0,16.483133333333146,4.0,67.7421582177598,7.0710678118654755,13.038404810405298,19.235384061671343,19.6468827043885,26.30589287593181,50.039984012787215,37.12142238654117,35.0,27.0,37.0,6.0,18.0,1.0,1.0,11.180339887498949,12.041594578792296,12.0,38.0,28.0,31.144823004794873
111,48,495,0,16.516499999999812,4.0,67.7421582177598,7.0,13.038404810405298,20.09975124224178,20.396078054371138,24.186773244895647,48.041648597857254,35.12833614050059,33.0,26.0,36.0,7.0,17.0,1.0,0.0,12.041594578792296,13.0,12.5,37.0,27.0,29.154759474226502
112,48,496,0,16.549866666666478,4.0,70.21395872616783,8.0,13.038404810405298,20.223748416156685,20.223748416156685,25.179356624028344,50.039984012787215,37.12142238654117,35.0,25.0,38.0,6.5,18.5,1.5,1.5,12.041594578792296,14.0,13.0,37.0,26.0,29.068883707497267
113,48,497,0,16.583233333333144,4.0,66.48308055437865,7.0,13.038404810405298,19.1049731745428,19.4164878389476,26.076809620810597,50.00999900019995,37.05401462729781,35.0,30.0,38.0,8.0,16.0,0.0,1.0,12.041594578792296,13.0,12.5,35.0,27.0,30.01666203960727
114,48,498,0,16.61659999999981,5.0990195135927845,67.60177512462228,7.0,13.038404810405298,20.09975124224178,20.223748416156685,27.16615541441225,52.009614495783374,39.05124837953327,36.5,32.0,41.0,9.5,15.5,0.5,2.5,13.038404810405298,14.0,13.0,36.0,29.0,29.068883707497267
115,48,499,0,16.649966666666476,4.123105625617661,68.59300255857006,8.0,13.038404810405298,19.235384061671343,21.213203435596427,27.073972741361768,52.0,39.01281840626232,37.0,32.0,41.0,9.5,15.5,0.5,1.5,13.038404810405298,13.0,12.5,35.0,29.0,29.017236257093817
116,48,500,0,16.68333333333314,5.0,69.58448102845921,8.06225774829855,13.038404810405298,20.09975124224178,20.223748416156685,27.073972741361768,53.0,40.01249804748511,37.5,34.0,43.0,11.5,14.5,1.5,3.5,13.038404810405298,14.0,13.5,35.0,29.0,29.017236257093817
117,48,501,0,16.716699999999808,4.0,70.57619995437555,8.06225774829855,14.142135623730951,19.235384061671343,20.223748416156685,27.018512172212592,53.03772242470448,39.0,37.0,35.0,44.0,12.5,13.5,3.5,3.5,13.038404810405298,14.0,13.0,35.0,27.0,29.0
118,48,502,0,16.750066666666473,2.23606797749979,66.48308055437865,7.0710678118654755,16.0312195418814,19.235384061671343,20.396078054371138,29.017236257093817,54.147945482723536,38.118237105091836,37.0,36.0,44.0,11.0,14.0,4.0,4.0,13.0,13.038404810405298,13.0,34.0,30.0,31.064449134018133
119,48,503,0,16.78343333333314,5.0,73.24616030891995,8.06225774829855,15.033296378372908,20.223748416156685,22.090722034374522,28.0178514522438,56.08029957123981,41.048751503547585,38.5,37.0,43.0,12.0,16.0,2.0,3.0,13.038404810405298,12.041594578792296,12.0,33.0,30.0,32.0
120,48,504,0,16.816799999999805,6.082762530298219,62.39390995922599,7.0,16.0312195418814,17.11724276862369,19.235384061671343,28.071337695236398,57.14017850864661,41.10960958218893,38.0,37.0,44.0,12.5,16.5,1.5,5.5,11.045361017187261,12.0,11.0,33.0,29.0,30.0
121,48,505,0,16.85016666666647,7.0,63.28506932918696,7.0710678118654755,15.033296378372908,18.110770276274835,20.09975124224178,28.071337695236398,57.0350769263968,42.01190307520001,38.5,37.0,43.0,12.0,17.0,0.0,5.0,13.038404810405298,13.0,13.0,33.0,31.0,28.071337695236398
122,48,506,0,16.883533333333137,6.0,65.37583651472461,7.0,13.038404810405298,17.11724276862369,18.110770276274835,28.0,54.00925846556311,41.0,38.0,35.0,42.0,10.5,15.5,0.5,3.5,13.038404810405298,14.0,14.0,34.0,34.0,29.017236257093817
123,48,507,0,16.916899999999803,4.123105625617661,67.36467917239716,6.0,12.0,18.110770276274835,19.1049731745428,29.068883707497267,51.0098029794274,39.01281840626232,37.0,34.0,41.0,8.5,13.5,1.5,2.5,13.0,13.0,12.5,34.0,29.0,30.066592756745816
124,48,508,0,16.95026666666647,6.324555320336759,67.36467917239716,6.0,13.038404810405298,20.223748416156685,21.213203435596427,27.294688127912362,52.009614495783374,39.05124837953327,36.0,32.0,39.0,8.5,16.5,0.5,2.5,11.0,13.038404810405298,12.0,35.0,30.0,28.0
125,48,509,0,16.983633333333135,5.0,68.3593446428504,6.0,13.0,19.1049731745428,20.223748416156685,27.294688127912362,51.15662224971465,38.2099463490856,35.5,30.0,37.0,6.5,17.5,1.5,0.5,13.038404810405298,13.0,13.0,36.0,30.0,26.0
126,48,510,0,17.0169999999998,1.0,68.3593446428504,7.0,12.041594578792296,20.223748416156685,20.396078054371138,25.495097567963924,44.10215414239989,32.2490309931942,32.0,27.0,34.0,5.5,13.5,1.5,1.5,11.045361017187261,13.038404810405298,12.0,36.0,30.0,26.0
127,48,511,0,17.050366666666466,1.0,66.48308055437865,6.0,12.041594578792296,20.223748416156685,20.396078054371138,25.709920264364882,43.18564576337837,31.400636936215164,31.0,26.0,34.0,5.0,13.0,2.0,1.0,10.04987562112089,12.0,11.5,36.0,30.0,27.018512172212592
128,48,512,0,17.083733333333132,1.0,66.37017402418047,7.0710678118654755,13.038404810405298,19.235384061671343,20.223748416156685,22.80350850198276,43.18564576337837,30.4138126514911,29.5,24.0,31.0,5.5,15.5,1.5,1.5,10.04987562112089,12.0,11.5,38.0,29.0,29.068883707497267
129,48,513,0,17.117099999999798,4.47213595499958,68.06614430096654,5.0,12.041594578792296,20.396078054371138,21.587033144922902,22.80350850198276,43.104524124504614,31.25699921617557,29.0,19.0,31.0,3.0,18.0,2.0,3.0,10.04987562112089,12.0,11.5,38.0,29.0,30.14962686336267
130,48,514,0,17.150466666666464,3.605551275463989,69.2314957226839,6.0,13.038404810405298,19.4164878389476,21.587033144922902,21.587033144922902,43.04648650006177,30.14962686336267,28.5,18.0,31.0,3.5,18.5,2.5,3.5,10.04987562112089,12.0,11.5,38.0,28.0,30.066592756745816
131,48,515,0,17.18383333333313,2.8284271247461903,67.7421582177598,6.0,12.041594578792296,20.223748416156685,20.396078054371138,22.80350850198276,42.1070065428546,30.265491900843113,29.0,21.0,31.0,4.0,16.0,0.0,2.0,10.04987562112089,11.0,10.5,37.0,27.0,26.076809620810597
132,48,516,0,17.217199999999796,7.0,75.31268153505093,5.0990195135927845,12.041594578792296,19.4164878389476,21.587033144922902,22.80350850198276,46.17358552246078,34.36568055487916,30.5,16.0,30.0,1.0,23.0,6.0,5.0,11.180339887498949,12.041594578792296,11.5,37.0,28.0,27.073972741361768
133,48,517,0,17.25056666666646,3.1622776601683795,68.59300255857006,5.0,11.0,20.223748416156685,21.37755832643195,23.08679276123039,41.43669871020132,30.59411708155671,28.5,22.0,31.0,4.5,14.5,0.5,0.5,10.04987562112089,12.0,11.0,35.0,26.0,28.0178514522438
134,48,518,0,17.283933333333128,4.47213595499958,69.87131027825369,5.0,10.0,19.4164878389476,20.396078054371138,23.08679276123039,41.30375285612676,31.400636936215164,29.0,19.0,30.0,2.5,16.5,2.5,3.5,10.04987562112089,11.0,11.0,37.0,29.0,27.073972741361768
135,48,519,0,17.317299999999793,0.0,76.53103945458993,6.0,10.0,21.213203435596427,22.360679774997898,21.840329667841555,37.48332962798263,27.65863337187866,27.0,18.0,27.0,1.5,14.5,1.5,4.5,11.045361017187261,12.0,11.5,35.0,26.0,25.079872407968907
136,48,520,0,17.35066666666646,0.0,75.4254598925323,5.0,10.0,20.223748416156685,20.396078054371138,21.840329667841555,36.49657518178932,26.68332812825267,26.0,17.0,25.0,0.0,15.0,1.0,5.0,11.045361017187261,11.0,11.0,34.0,25.0,26.1725046566048
137,48,521,0,17.384033333333125,0.0,78.23042886243178,4.0,9.0,20.223748416156685,21.213203435596427,23.08679276123039,35.6931365951495,26.92582403567252,26.0,18.0,24.0,1.0,14.0,2.0,5.0,12.041594578792296,12.0,12.0,35.0,27.0,29.154759474226502
138,48,522,0,17.41739999999979,1.0,81.2219182240853,4.0,9.0,21.095023109728988,21.213203435596427,23.08679276123039,36.6742416417845,27.892651361962706,26.5,18.0,24.0,1.0,15.0,2.0,5.0,11.045361017187261,12.0,11.0,35.0,27.0,31.064449134018133
139,48,523,0,17.450766666666457,0.0,80.30566605165541,5.0,10.0,20.09975124224178,20.396078054371138,23.40939982143925,37.8549864614954,28.160255680657446,27.0,17.0,24.0,1.5,16.5,3.5,5.5,12.041594578792296,13.0,12.0,35.0,27.0,29.017236257093817
140,48,524,0,17.484133333333123,2.0,77.41446893184762,5.0,12.0,21.095023109728988,21.37755832643195,23.08679276123039,41.593268686170845,29.832867780352597,28.0,17.0,25.0,1.0,20.0,4.0,5.0,11.045361017187261,12.0,11.5,35.0,27.0,29.017236257093817
141,48,525,0,17.51749999999979,3.0,74.33034373659252,5.0,12.0,18.110770276274835,19.235384061671343,24.041630560342615,43.56604182158393,31.78049716414141,29.5,21.0,28.0,1.5,18.5,2.5,3.5,12.165525060596439,13.0,12.5,35.0,25.0,28.071337695236398
142,48,526,0,17.550866666666455,3.1622776601683795,70.34912934784623,6.0,12.0,18.110770276274835,20.396078054371138,23.769728648009426,44.28317965096906,32.38826948140329,30.5,22.0,29.0,2.5,18.5,2.5,2.5,11.045361017187261,12.041594578792296,11.5,36.0,28.0,30.066592756745816
143,48,527,0,17.58423333333312,4.123105625617661,73.43704787094863,5.0,12.0,20.223748416156685,21.37755832643195,23.53720459187964,44.181444068749045,32.2490309931942,30.0,21.0,29.0,2.0,19.0,3.0,3.0,10.04987562112089,12.0,11.5,36.0,29.0,29.068883707497267
144,48,528,0,17.617599999999786,4.0,69.46221994724903,5.0,13.0,19.235384061671343,20.223748416156685,23.53720459187964,45.27692569068709,32.38826948140329,30.0,22.0,30.0,3.0,19.0,3.0,2.0,12.041594578792296,13.0,12.5,34.0,28.0,30.14962686336267
145,48,529,0,17.650966666666452,5.0,70.25667228100119,5.0,13.0,19.026297590440446,21.213203435596427,23.769728648009426,46.389654018972806,33.54101966249684,30.5,24.0,30.0,4.0,19.0,3.0,0.0,11.045361017187261,12.0,11.0,35.0,29.0,31.064449134018133
146,48,530,0,17.684333333333118,5.0,72.24956747275377,5.0,12.0,21.095023109728988,21.213203435596427,23.769728648009426,45.39823785126467,33.54101966249684,30.5,24.0,30.0,4.0,18.0,2.0,1.0,11.0,12.0,11.5,35.0,27.0,30.066592756745816
147,48,531,0,17.717699999999784,3.1622776601683795,71.34423592694787,5.0,11.0,19.1049731745428,19.235384061671343,24.73863375370596,43.289721643826724,32.38826948140329,30.5,23.0,30.0,2.5,16.5,2.5,2.5,11.045361017187261,12.0,11.5,34.0,28.0,31.016124838541646
148,48,532,0,17.75106666666645,0.0,74.33034373659252,6.0,10.04987562112089,20.09975124224178,20.223748416156685,22.80350850198276,38.3275357934736,28.635642126552707,28.0,20.0,27.0,1.5,14.5,1.5,3.5,12.041594578792296,13.0,12.0,36.0,27.0,30.01666203960727
149,48,533,0,17.784433333333116,1.4142135623730951,75.32595834106593,6.0,10.0,20.09975124224178,20.223748416156685,23.769728648009426,40.311288741492746,30.4138126514911,29.5,21.0,28.0,1.5,15.5,1.5,3.5,12.0,14.035668847618199,13.0,36.0,28.0,28.0178514522438
150,48,534,0,17.81779999999978,1.0,72.3394774656273,6.0,10.04987562112089,20.09975124224178,21.213203435596427,23.769728648009426,40.311288741492746,30.59411708155671,29.5,21.0,28.0,1.5,15.5,1.5,3.5,12.041594578792296,13.038404810405298,12.5,35.0,27.0,27.073972741361768
151,48,535,0,17.851166666666447,1.4142135623730951,78.63841300535,7.0,12.0,20.223748416156685,21.37755832643195,21.587033144922902,41.19465984809196,29.274562336608895,28.5,17.0,27.0,1.0,19.0,3.0,6.0,11.0,13.0,12.5,37.0,31.0,29.068883707497267
152,48,536,0,17.884533333333113,2.0,76.4198926981712,5.0,10.0,20.09975124224178,21.213203435596427,23.769728648009426,40.44749683231337,30.59411708155671,29.0,21.0,29.0,2.0,15.0,1.0,3.0,12.041594578792296,13.0,12.0,34.0,24.0,27.0
153,48,537,0,17.91789999999978,3.1622776601683795,72.56031973468694,5.0,11.0,20.223748416156685,21.37755832643195,23.769728648009426,42.2965719651132,31.400636936215164,29.5,21.0,30.0,2.5,16.5,2.5,3.5,12.041594578792296,13.0,12.5,35.0,29.0,30.066592756745816
154,48,538,0,17.951266666666445,2.23606797749979,72.44308110509934,5.0,12.0,21.213203435596427,21.37755832643195,23.53720459187964,42.190046219457976,30.265491900843113,29.0,22.0,30.0,3.0,16.0,1.0,3.0,11.045361017187261,12.041594578792296,11.0,35.0,29.0,29.0
155,48,539,0,17.98463333333311,3.605551275463989,77.64663547121665,7.0,11.045361017187261,21.37755832643195,22.360679774997898,22.561028345356956,43.04648650006177,32.14031735997639,30.5,19.0,29.0,2.0,19.0,4.0,5.0,11.180339887498949,12.0,12.0,37.0,30.0,33.13608305156178
156,48,540,0,18.017999999999777,6.0,80.62257748298549,6.0,12.0,21.213203435596427,22.360679774997898,22.561028345356956,46.2709412050371,34.36568055487916,31.0,18.0,28.0,1.0,23.0,8.0,5.0,11.045361017187261,13.0,12.0,37.0,30.0,33.06055050963308
157,48,541,0,18.051366666666443,5.0,82.60750571225353,7.0,13.038404810405298,21.213203435596427,22.561028345356956,23.769728648009426,48.25971404805462,35.510561809129406,32.5,19.0,29.0,1.0,24.0,7.0,5.0,12.041594578792296,13.0,12.0,35.0,25.0,29.017236257093817
158,48,542,0,18.08473333333311,5.0,81.39410298049853,6.0,11.0,22.090722034374522,23.194827009486403,21.587033144922902,43.289721643826724,32.38826948140329,29.5,18.0,26.0,1.0,21.0,6.0,4.0,12.041594578792296,13.038404810405298,12.5,35.0,29.0,29.017236257093817
159,48,543,0,18.11809999999977,2.0,81.61494961096282,6.082762530298219,11.045361017187261,23.08679276123039,23.345235059857504,22.80350850198276,41.19465984809196,30.4138126514911,29.0,16.0,26.0,1.0,20.0,5.0,6.0,11.180339887498949,12.0,11.5,35.0,25.0,29.017236257093817
160,48,544,0,18.15146666666644,3.1622776601683795,74.33034373659252,5.0,11.0,20.09975124224178,21.213203435596427,23.769728648009426,42.2965719651132,31.400636936215164,29.5,20.0,27.0,0.5,18.5,3.5,4.5,12.0,12.0,11.5,34.0,26.0,30.066592756745816
161,48,545,0,18.184833333333103,2.0,71.11258679024411,4.123105625617661,10.0,21.095023109728988,21.213203435596427,25.495097567963924,41.19465984809196,31.25699921617557,30.0,24.0,28.0,1.0,15.0,2.0,3.0,11.045361017187261,12.0,11.5,34.0,29.0,32.01562118716424
162,48,546,0,18.21819999999977,2.0,68.26419266350405,6.082762530298219,13.038404810405298,21.095023109728988,22.090722034374522,24.515301344262525,45.09988913511872,32.2490309931942,31.0,24.0,30.0,3.0,18.0,2.0,2.0,11.045361017187261,12.0,11.5,33.0,24.0,28.0178514522438
163,48,547,0,18.25156666666644,2.0,68.26419266350405,6.082762530298219,14.035668847618199,21.213203435596427,21.37755832643195,24.331050121192877,46.04345773288535,32.14031735997639,31.0,25.0,31.0,4.0,18.0,1.0,2.0,12.041594578792296,13.0,12.5,33.0,24.0,28.071337695236398
164,48,548,0,18.284933333333104,3.1622776601683795,64.28063471995279,6.0,13.038404810405298,19.1049731745428,20.223748416156685,25.317977802344327,47.042533945356304,34.132096331752024,32.5,26.0,32.0,4.0,18.0,2.0,1.0,11.045361017187261,13.038404810405298,12.5,34.0,29.0,32.01562118716424
165,48,549,0,18.31829999999977,2.0,68.26419266350405,7.0,13.038404810405298,21.213203435596427,21.213203435596427,25.317977802344327,47.095647357266465,34.23448553724738,33.0,27.0,33.0,5.0,17.0,1.0,2.0,12.041594578792296,12.0,11.5,35.0,29.0,28.071337695236398
166,48,550,0,18.35166666666644,2.0,64.28063471995279,6.0,15.033296378372908,19.1049731745428,21.37755832643195,25.317977802344327,48.093658625644196,33.24154027718932,32.0,27.0,33.0,5.0,18.0,0.0,1.0,12.041594578792296,13.038404810405298,13.0,35.0,29.0,29.068883707497267
167,48,551,0,18.3850333333331,1.4142135623730951,68.18357573492314,7.0710678118654755,15.0,20.09975124224178,21.213203435596427,24.186773244895647,47.095647357266465,32.14031735997639,31.5,27.0,32.0,5.5,17.5,0.5,1.5,13.0,13.0,12.5,34.0,29.0,28.0178514522438
168,48,552,0,18.418399999999767,2.0,69.26037828369117,7.0,13.0,18.027756377319946,19.235384061671343,25.495097567963924,47.265209192385896,34.36568055487916,33.0,27.0,33.0,5.0,17.0,0.0,1.0,13.038404810405298,14.0,13.0,34.0,29.0,29.017236257093817
169,48,553,0,18.45176666666644,2.0,67.47592163134935,7.0,14.0,19.235384061671343,20.223748416156685,25.495097567963924,48.25971404805462,34.36568055487916,33.0,26.0,34.0,5.0,18.0,1.0,2.0,11.045361017187261,12.041594578792296,12.0,36.0,30.0,28.071337695236398
170,48,554,0,18.4851333333331,3.1622776601683795,66.37017402418047,6.0,13.0,18.110770276274835,19.4164878389476,26.476404589747453,48.16637831516918,35.22782990761707,33.5,26.0,33.0,3.5,18.5,2.5,2.5,12.0,14.035668847618199,13.5,35.0,31.0,30.01666203960727
171,48,555,0,18.518499999999765,6.0,69.46221994724903,5.0,13.038404810405298,20.223748416156685,21.213203435596427,26.476404589747453,50.15974481593781,37.33630940518894,34.0,25.0,33.0,3.0,21.0,5.0,3.0,11.0,13.038404810405298,12.5,34.0,28.0,30.0
172,48,556,0,18.55186666666643,6.0,75.32595834106593,6.082762530298219,12.0,22.090722034374522,22.360679774997898,25.709920264364882,49.49747468305833,37.656340767525464,34.0,25.0,32.0,3.5,20.5,5.5,1.5,12.041594578792296,12.0,11.5,35.0,29.0,28.0
173,48,557,0,18.585233333333097,4.0,71.25307010929424,6.082762530298219,13.0,20.223748416156685,21.213203435596427,25.495097567963924,48.373546489791295,35.510561809129406,33.0,26.0,32.0,4.0,19.0,3.0,2.0,12.0,13.038404810405298,12.0,35.0,32.0,27.0
174,48,558,0,18.618599999999763,2.23606797749979,66.48308055437865,6.0,12.041594578792296,19.235384061671343,19.4164878389476,26.476404589747453,46.2709412050371,34.52535300326414,33.0,25.0,33.0,3.0,17.0,1.0,3.0,12.0,13.038404810405298,13.0,36.0,30.0,30.01666203960727
175,48,559,0,18.65196666666643,1.0,69.26037828369117,6.082762530298219,12.041594578792296,20.09975124224178,20.09975124224178,25.317977802344327,44.181444068749045,32.38826948140329,31.5,26.0,32.0,4.0,15.0,0.0,2.0,12.041594578792296,13.0,12.5,34.0,29.0,29.017236257093817
176,48,560,0,18.68533333333309,1.4142135623730951,72.24956747275377,6.0,12.041594578792296,20.09975124224178,21.213203435596427,24.515301344262525,43.289721643826724,31.575306807693888,30.5,26.0,32.0,5.0,14.0,1.0,1.0,12.041594578792296,14.035668847618199,13.0,34.0,29.0,28.0178514522438
177,48,561,0,18.71869999999976,1.0,69.46221994724903,7.0,12.041594578792296,19.1049731745428,20.223748416156685,24.186773244895647,43.104524124504614,31.25699921617557,31.0,23.0,31.0,3.0,16.0,1.0,3.0,13.152946437965905,13.038404810405298,13.0,35.0,29.0,29.017236257093817
178,48,562,0,18.752066666666423,1.0,74.33034373659252,5.0990195135927845,11.0,21.095023109728988,21.213203435596427,25.317977802344327,42.1070065428546,31.144823004794873,30.5,24.0,31.0,2.5,14.5,0.5,2.5,13.038404810405298,14.035668847618199,13.0,35.0,27.0,31.0
179,48,563,0,18.78543333333309,0.0,74.43117626371358,7.0,10.04987562112089,23.194827009486403,23.345235059857504,25.317977802344327,42.1070065428546,32.2490309931942,32.0,23.0,31.0,2.0,15.0,1.0,4.0,13.038404810405298,13.038404810405298,13.0,33.0,25.0,32.01562118716424
180,48,564,0,18.81879999999976,2.23606797749979,73.55270219373317,7.0,12.041594578792296,21.095023109728988,21.37755832643195,25.079872407968907,46.04345773288535,34.132096331752024,33.0,23.0,32.0,2.5,18.5,2.5,3.5,14.035668847618199,14.035668847618199,14.0,36.0,29.0,31.144823004794873
181,48,565,0,18.852166666666424,3.0,76.6550715869472,6.0,12.041594578792296,22.20360331117452,23.345235059857504,26.1725046566048,47.042533945356304,35.12833614050059,33.5,23.0,33.0,2.0,19.0,3.0,4.0,12.165525060596439,14.035668847618199,13.5,35.0,27.0,32.0624390837628
182,48,566,0,18.88553333333309,3.0,76.6550715869472,6.082762530298219,12.041594578792296,22.20360331117452,22.360679774997898,26.1725046566048,47.01063709417264,35.05709628591621,33.5,24.0,34.0,3.0,18.0,2.0,3.0,13.038404810405298,14.0,14.0,36.0,28.0,32.0624390837628
183,48,567,0,18.91889999999976,4.123105625617661,74.54528824815154,7.0,12.165525060596439,21.213203435596427,21.37755832643195,25.079872407968907,48.010415536631214,36.013886210738214,34.0,25.0,34.0,4.5,18.5,2.5,2.5,13.038404810405298,14.0,13.5,37.0,26.0,31.144823004794873
184,48,568,0,18.95226666666642,4.0,73.55270219373317,7.0,11.180339887498949,21.213203435596427,22.20360331117452,25.179356624028344,47.01063709417264,36.124783736376884,34.0,26.0,35.0,5.5,16.5,2.5,1.5,14.142135623730951,15.0,14.0,37.0,26.0,32.2490309931942
185,48,569,0,18.985633333333087,6.0,74.54528824815154,7.0,14.142135623730951,20.223748416156685,20.223748416156685,25.079872407968907,52.0,38.05259518088089,35.0,27.0,36.0,6.5,20.5,2.5,0.5,13.038404810405298,14.0,13.5,37.0,24.0,32.14031735997639
186,48,570,0,19.01899999999976,5.0,72.44308110509934,6.0,13.038404810405298,20.09975124224178,21.213203435596427,26.019223662515376,50.0,37.013511046643494,34.5,28.0,36.0,6.0,18.0,2.0,0.0,13.152946437965905,14.0,13.5,37.0,25.0,31.25699921617557
187,48,571,0,19.05236666666642,5.0,73.33484846919642,7.0,14.035668847618199,20.09975124224178,21.213203435596427,26.0,52.009614495783374,38.0,35.5,29.0,36.0,6.5,19.5,2.5,0.5,14.035668847618199,14.0,13.5,36.0,24.0,33.24154027718932
188,48,572,0,19.085733333333085,4.0,72.44308110509934,7.0,13.152946437965905,20.09975124224178,20.223748416156685,27.0,51.03920062069938,38.0,36.0,30.0,38.0,7.0,17.0,1.0,0.0,15.132745950421556,15.0,14.5,37.0,25.0,33.37663853655727
189,48,573,0,19.11909999999975,5.0,75.53806987208503,7.0710678118654755,14.142135623730951,21.095023109728988,21.37755832643195,27.018512172212592,53.03772242470448,39.0,36.5,30.0,39.0,7.5,18.5,1.5,0.5,14.142135623730951,14.0,14.0,37.0,24.0,33.37663853655727
190,48,574,0,19.152466666666417,4.0,72.44308110509934,8.0,12.165525060596439,19.235384061671343,19.4164878389476,26.0,50.039984012787215,38.0,36.0,29.0,37.0,7.0,17.0,2.0,1.0,15.033296378372908,15.0,15.5,37.0,25.0,34.23448553724738
191,48,575,0,19.185833333333083,4.123105625617661,73.43704787094863,7.0,12.041594578792296,20.09975124224178,20.223748416156685,27.0,50.039984012787215,38.01315561749642,36.0,30.0,38.0,7.0,16.0,1.0,0.0,15.132745950421556,15.0,15.0,39.0,25.0,34.23448553724738
192,48,576,0,19.21919999999975,5.0,72.44308110509934,7.0710678118654755,12.165525060596439,20.09975124224178,20.396078054371138,26.0,50.08991914547278,38.01315561749642,35.5,29.0,37.0,7.0,17.0,2.0,0.0,15.132745950421556,16.0,15.5,39.0,24.0,34.36568055487916
193,48,577,0,19.25256666666641,5.0,73.55270219373317,7.0710678118654755,13.152946437965905,20.223748416156685,21.213203435596427,26.019223662515376,51.03920062069938,38.0,35.5,29.0,38.0,7.5,17.5,1.5,0.5,15.132745950421556,15.0,15.0,39.0,25.0,35.35533905932738
194,48,578,0,19.28593333333308,4.0,75.53806987208503,7.0710678118654755,12.165525060596439,22.090722034374522,22.20360331117452,27.018512172212592,50.039984012787215,38.0,36.0,30.0,39.0,7.5,15.5,0.5,0.5,14.035668847618199,16.0,15.0,38.0,23.0,36.22154055254967
195,48,579,0,19.319299999999743,6.0,74.43117626371358,6.0,12.165525060596439,22.090722034374522,22.20360331117452,28.0178514522438,52.08646657242167,40.01249804748511,37.0,31.0,39.0,7.0,17.0,2.0,1.0,14.142135623730951,15.033296378372908,15.0,37.0,24.0,31.25699921617557
196,48,580,0,19.35266666666641,6.0,74.54528824815154,7.0710678118654755,11.045361017187261,21.213203435596427,22.360679774997898,27.0,51.03920062069938,40.01249804748511,37.0,31.0,40.0,8.5,15.5,1.5,0.5,16.1245154965971,16.0,16.0,37.0,25.0,35.22782990761707
197,48,581,0,19.38603333333308,6.0,72.44308110509934,7.0710678118654755,12.165525060596439,21.095023109728988,21.213203435596427,27.0,52.08646657242167,40.01249804748511,37.0,31.0,39.0,8.0,17.0,2.0,1.0,15.132745950421556,15.0,14.5,37.0,24.0,35.22782990761707
198,48,582,0,19.419399999999744,5.0,73.43704787094863,7.0,11.180339887498949,20.09975124224178,21.213203435596427,28.0178514522438,51.088159097779204,40.01249804748511,37.5,31.0,39.0,7.0,16.0,2.0,0.0,14.035668847618199,15.0,15.0,36.0,24.0,32.14031735997639
199,48,583,0,19.45276666666641,6.0,73.43704787094863,7.0,12.165525060596439,20.09975124224178,20.223748416156685,28.071337695236398,53.150729063673246,41.048751503547585,38.0,32.0,40.0,8.0,17.0,2.0,1.0,16.0312195418814,17.0,16.5,37.0,25.0,36.124783736376884
200,48,584,0,19.48613333333308,6.0,73.33484846919642,6.082762530298219,13.038404810405298,21.095023109728988,21.213203435596427,29.0,54.037024344425184,41.012193308819754,38.0,33.0,40.0,7.5,17.5,2.5,1.5,14.142135623730951,14.035668847618199,14.0,35.0,24.0,33.13608305156178
201,48,585,0,19.51949999999974,6.0,73.33484846919642,7.0,11.180339887498949,20.09975124224178,21.213203435596427,28.0178514522438,52.08646657242167,41.012193308819754,38.0,33.0,40.0,8.5,15.5,1.5,1.5,15.033296378372908,15.033296378372908,15.0,36.0,26.0,34.132096331752024
202,48,586,0,19.552866666666407,6.0,73.24616030891995,6.0,10.04987562112089,22.090722034374522,22.090722034374522,28.0,50.00999900019995,40.0,37.0,33.0,39.0,8.0,14.0,2.0,2.0,14.035668847618199,15.033296378372908,14.5,35.0,26.0,33.13608305156178
203,48,587,0,19.58623333333308,6.0,74.24284477308234,7.0,10.04987562112089,21.02379604162864,22.090722034374522,28.0178514522438,51.0,41.012193308819754,38.0,34.0,40.0,9.0,14.0,2.0,3.0,14.035668847618199,14.0,14.0,33.0,26.0,36.013886210738214
204,48,588,0,19.61959999999974,6.0,75.16648189186454,7.0,11.045361017187261,21.02379604162864,22.090722034374522,29.0,53.009433122794285,42.0,39.0,35.0,40.0,8.5,15.5,1.5,2.5,15.033296378372908,15.033296378372908,15.0,33.0,27.0,34.0147027033899
205,48,589,0,19.652966666666405,5.0990195135927845,76.10519036176179,7.0,11.045361017187261,22.02271554554524,22.090722034374522,28.0,51.0,40.01249804748511,37.5,35.0,39.0,9.0,14.0,1.0,3.0,15.033296378372908,15.033296378372908,15.0,33.0,29.0,34.0
206,48,590,0,19.68633333333307,6.0,76.10519036176179,7.0,11.045361017187261,22.02271554554524,23.08679276123039,28.0,52.009614495783374,41.0,38.0,36.0,40.0,10.0,14.0,1.0,4.0,16.0,16.0,15.5,32.0,28.0,32.01562118716424
207,48,591,0,19.719699999999737,5.0,77.05841939723393,7.0,12.041594578792296,22.02271554554524,22.02271554554524,29.0,53.009433122794285,41.0,38.5,37.0,40.0,9.5,14.5,0.5,2.5,15.033296378372908,15.0,15.5,33.0,30.0,31.0
208,48,592,0,19.753066666666403,5.0,75.05997601918082,7.0,13.0,23.0,22.02271554554524,29.0,54.0,41.0,38.5,38.0,41.0,10.5,14.5,0.5,4.5,14.035668847618199,15.033296378372908,15.0,33.0,30.0,33.0
209,48,593,0,19.78643333333307,3.1622776601683795,75.02666192761077,7.0,12.041594578792296,21.02379604162864,21.02379604162864,28.0,50.0,38.01315561749642,36.5,37.0,39.0,10.0,12.0,1.0,3.0,15.0,15.0,14.5,34.0,30.0,35.0
210,48,594,0,19.81979999999973,3.0,78.02563681252464,7.0,10.04987562112089,22.02271554554524,23.021728866442675,29.0,49.01020301937138,39.0,37.5,37.0,39.0,9.0,11.0,1.0,2.0,15.0,15.033296378372908,15.0,33.0,30.0,37.013511046643494
211,48,595,0,19.8531666666664,2.0,77.05841939723393,7.0,10.0,21.0,21.0,28.0178514522438,47.01063709417264,37.013511046643494,36.0,35.0,38.0,8.5,10.5,1.5,2.5,14.035668847618199,16.0,15.0,32.0,30.0,36.013886210738214
212,48,596,0,19.886533333333063,2.0,80.02499609497022,7.0,10.04987562112089,24.020824298928627,23.021728866442675,28.0178514522438,47.0,37.013511046643494,36.0,36.0,38.0,9.0,10.0,2.0,3.0,14.0,15.033296378372908,14.0,33.0,31.0,35.014282800023196
213,48,597,0,19.91989999999973,2.0,78.05767098754612,7.0,12.041594578792296,22.0,23.0,29.017236257093817,50.0,38.01315561749642,37.0,37.0,40.0,9.5,11.5,2.5,3.5,14.0,14.0,13.5,34.0,30.0,37.0
214,48,598,0,19.9532666666664,3.0,76.10519036176179,8.0,14.0,22.0,23.021728866442675,28.0,53.0,39.0,37.5,37.0,41.0,11.0,14.0,1.0,4.0,15.0,17.029386365926403,16.5,33.0,30.0,34.0
215,48,599,0,19.986633333333064,3.1622776601683795,76.10519036176179,8.0,13.0,21.02379604162864,22.02271554554524,28.0178514522438,52.03844732503075,39.05124837953327,37.5,38.0,42.0,12.0,12.0,2.0,4.0,15.033296378372908,16.0312195418814,15.5,33.0,29.0,37.0
216,48,600,0,20.01999999999973,3.0,75.05997601918082,8.0,13.038404810405298,21.02379604162864,22.02271554554524,28.0,52.009614495783374,39.0,37.5,38.0,41.0,11.5,12.5,2.5,3.5,15.033296378372908,15.033296378372908,14.5,34.0,29.0,35.014282800023196
217,48,601,0,20.053366666666395,3.0,76.05918747922567,8.0,13.038404810405298,22.02271554554524,22.090722034374522,28.0178514522438,52.03844732503075,39.01281840626232,37.5,38.0,41.0,11.5,12.5,1.5,3.5,16.0,16.0312195418814,16.0,33.0,30.0,37.013511046643494
218,48,602,0,20.08673333333306,3.0,76.05918747922567,8.0,13.038404810405298,21.095023109728988,22.02271554554524,29.0,53.009433122794285,40.0,38.5,39.0,42.0,11.5,12.5,1.5,3.5,15.033296378372908,15.033296378372908,15.0,35.0,32.0,38.0
219,48,603,0,20.120099999999727,3.0,75.05997601918082,8.0,12.0,21.02379604162864,21.095023109728988,30.0,53.0,41.0,39.5,38.0,41.0,9.5,13.5,0.5,2.5,14.035668847618199,15.0,15.0,34.0,30.0,34.058772731852805
220,48,604,0,20.1534666666664,2.0,75.05997601918082,6.082762530298219,13.038404810405298,21.0,22.02271554554524,32.0,53.03772242470448,40.01249804748511,39.0,38.0,41.0,7.5,13.5,1.5,2.5,16.0312195418814,17.0,16.5,34.0,30.0,35.014282800023196
221,48,605,0,20.18683333333306,1.4142135623730951,74.06078584514209,7.0,11.045361017187261,22.02271554554524,22.090722034374522,32.01562118716424,51.0098029794274,40.049968789001575,39.5,38.0,41.0,7.5,11.5,1.5,1.5,14.0,15.033296378372908,14.5,33.0,28.0,31.016124838541646
222,48,606,0,20.220199999999725,2.0,75.05997601918082,7.0,11.180339887498949,21.02379604162864,21.095023109728988,31.0,51.03920062069938,40.0,39.0,38.0,41.0,8.5,11.5,1.5,2.5,14.035668847618199,16.0312195418814,16.0,34.0,30.0,35.014282800023196
223,48,607,0,20.25356666666639,3.1622776601683795,72.02777242147643,7.0710678118654755,13.038404810405298,21.02379604162864,21.02379604162864,32.01562118716424,55.0,42.01190307520001,40.5,40.0,42.0,9.0,14.0,1.0,3.0,15.0,16.0,15.5,34.0,30.0,35.0
224,48,608,0,20.286933333333057,2.0,72.00694410957877,7.0,12.041594578792296,18.027756377319946,19.026297590440446,34.0,55.00909015790027,43.0,42.0,42.0,43.0,8.5,12.5,1.5,2.5,16.0312195418814,16.0312195418814,16.0,34.0,30.0,34.0147027033899
225,48,609,0,20.32029999999972,2.0,74.02702209328699,7.0,10.04987562112089,18.027756377319946,19.0,35.014282800023196,54.0,44.01136216933077,43.0,41.0,43.0,7.0,12.0,0.0,1.0,11.0,12.041594578792296,11.0,34.0,31.0,35.014282800023196
226,48,610,0,20.35366666666639,4.0,75.0066663703967,7.0,11.045361017187261,20.024984394500787,20.024984394500787,33.015148038438355,55.0,44.01136216933077,42.0,41.0,42.0,8.5,13.5,0.5,2.5,8.0,9.055385138137417,9.0,36.0,34.0,34.0147027033899
227,48,611,0,20.38703333333305,4.0,77.02596964660685,7.0,11.045361017187261,21.02379604162864,21.02379604162864,33.015148038438355,55.0,44.01136216933077,42.0,39.0,41.0,7.0,15.0,1.0,1.0,10.0,10.04987562112089,10.0,36.0,33.0,36.013886210738214
228,48,612,0,20.42039999999972,4.0,76.05918747922567,7.0710678118654755,12.0,22.0,23.0,31.016124838541646,54.0,42.0,40.0,37.0,40.0,7.5,15.5,1.5,2.5,12.041594578792296,13.0,12.5,36.0,32.0,36.013886210738214
229,48,613,0,20.453766666666382,5.0,75.05997601918082,7.0710678118654755,12.041594578792296,21.0,22.090722034374522,31.0,55.036351623268054,43.01162633521314,40.5,37.0,40.0,7.5,16.5,2.5,1.5,13.0,13.0,12.5,34.0,29.0,37.05401462729781
230,48,614,0,20.48713333333305,7.0,69.1158447825099,6.082762530298219,12.041594578792296,19.026297590440446,20.09975124224178,32.0,57.0350769263968,45.0111097397076,41.5,38.0,42.0,8.0,17.0,3.0,2.0,14.035668847618199,15.0,14.5,36.0,30.0,32.01562118716424
231,48,615,0,20.52049999999972,3.1622776601683795,68.0294054067798,7.0710678118654755,14.035668847618199,19.026297590440446,21.095023109728988,32.01562118716424,56.0,42.01190307520001,40.5,39.0,41.0,8.0,16.0,0.0,2.0,13.0,14.0,13.5,34.0,28.0,32.0624390837628
232,48,616,0,20.553866666666384,3.0,69.06518659932803,6.0,16.0,18.027756377319946,19.1049731745428,31.016124838541646,56.00892785976178,40.01249804748511,38.5,38.0,41.0,8.5,16.5,1.5,2.5,14.0,14.035668847618199,14.0,33.0,28.0,32.01562118716424
233,48,617,0,20.58723333333305,2.0,69.1158447825099,7.0,13.038404810405298,18.027756377319946,18.110770276274835,32.01562118716424,54.037024344425184,41.012193308819754,40.0,38.0,42.0,8.0,14.0,1.0,2.0,13.038404810405298,15.033296378372908,14.5,35.0,28.0,33.13608305156178
234,48,618,0,20.620599999999715,2.0,69.18092222571191,7.0,16.0312195418814,19.1049731745428,20.09975124224178,31.016124838541646,56.0357029044876,40.01249804748511,39.0,38.0,43.0,9.5,15.5,2.5,2.5,14.035668847618199,15.0,14.0,34.0,28.0,34.058772731852805
235,48,619,0,20.65396666666638,4.0,68.11754546370561,7.0,16.0312195418814,18.110770276274835,18.027756377319946,30.01666203960727,57.0350769263968,41.012193308819754,39.0,38.0,42.0,10.0,17.0,1.0,3.0,15.033296378372908,15.033296378372908,15.0,33.0,27.0,33.06055050963308
236,48,620,0,20.687333333333047,2.0,71.17583859709698,7.0710678118654755,15.033296378372908,17.029386365926403,18.027756377319946,32.0,56.0357029044876,41.012193308819754,40.0,37.0,42.0,7.5,16.5,0.5,1.5,13.152946437965905,14.0,14.0,33.0,27.0,34.058772731852805
237,48,621,0,20.72069999999972,3.0,73.17103251970687,6.082762530298219,14.035668847618199,19.026297590440446,20.09975124224178,33.0,56.0357029044876,42.01190307520001,40.5,36.0,41.0,5.5,17.5,1.5,0.5,14.035668847618199,15.033296378372908,14.5,33.0,27.0,33.13608305156178
238,48,622,0,20.75406666666638,4.0,72.17340230306452,6.0,10.198039027185569,18.027756377319946,19.1049731745428,33.015148038438355,53.08483775994799,43.01162633521314,41.0,36.0,41.0,5.5,14.5,2.5,0.5,14.035668847618199,15.033296378372908,15.0,33.0,26.0,32.0624390837628
239,48,623,0,20.787433333333045,4.0,76.16429609731846,6.0,10.198039027185569,20.024984394500787,21.095023109728988,31.0,51.03920062069938,41.0,39.0,35.0,40.0,6.5,13.5,1.5,1.5,14.035668847618199,13.0,13.0,34.0,26.0,39.11521443121589
240,48,624,0,20.82079999999971,7.0,72.17340230306452,6.082762530298219,11.045361017187261,19.026297590440446,19.1049731745428,29.017236257093817,53.009433122794285,42.0,38.5,35.0,40.0,8.5,15.5,2.5,2.5,13.038404810405298,14.035668847618199,14.0,33.0,25.0,33.06055050963308
241,48,625,0,20.854166666666377,5.0,72.17340230306452,8.0,13.038404810405298,19.026297590440446,20.09975124224178,27.018512172212592,53.03772242470448,40.01249804748511,37.5,35.0,40.0,10.5,15.5,0.5,2.5,14.035668847618199,15.033296378372908,14.5,34.0,26.0,32.14031735997639
242,48,626,0,20.88753333333304,4.0,71.11258679024411,6.082762530298219,12.041594578792296,20.024984394500787,20.09975124224178,27.0,49.040799340956916,37.013511046643494,35.0,35.0,39.0,10.0,12.0,2.0,4.0,13.0,14.0,14.0,33.0,24.0,33.06055050963308
243,48,627,0,20.92089999999971,3.0,73.10950690573696,6.082762530298219,14.142135623730951,21.02379604162864,22.02271554554524,26.019223662515376,49.16299421312742,35.05709628591621,33.5,32.0,36.0,8.0,15.0,1.0,3.0,13.038404810405298,13.0,13.5,34.0,27.0,33.13608305156178
244,48,628,0,20.95426666666637,2.23606797749979,75.16648189186454,6.082762530298219,14.142135623730951,23.08679276123039,23.08679276123039,26.0,48.16637831516918,34.058772731852805,33.0,31.0,36.0,7.5,14.5,1.5,2.5,13.038404810405298,13.038404810405298,13.0,34.0,26.0,33.13608305156178
245,48,629,0,20.98763333333304,4.123105625617661,76.16429609731846,6.0,15.132745950421556,22.02271554554524,24.020824298928627,25.019992006393608,50.15974481593781,35.05709628591621,33.0,30.0,35.0,7.5,17.5,0.5,2.5,13.038404810405298,13.0,13.5,34.0,26.0,32.0624390837628
246,48,630,0,21.020999999999702,4.123105625617661,74.16872656315464,6.0,17.11724276862369,21.095023109728988,22.090722034374522,25.019992006393608,52.15361924162119,35.05709628591621,33.0,32.0,37.0,9.5,17.5,0.5,3.5,14.142135623730951,14.0,13.5,33.0,26.0,33.13608305156178
247,48,631,0,21.05436666666637,4.47213595499958,72.24956747275377,6.0,16.1245154965971,20.09975124224178,21.02379604162864,26.019223662515376,52.23983154643591,36.124783736376884,34.0,33.0,39.0,10.0,16.0,2.0,4.0,14.035668847618199,15.0,14.5,33.0,26.0,33.13608305156178
248,48,632,0,21.08773333333304,5.0990195135927845,74.24284477308234,6.0,13.038404810405298,21.095023109728988,22.090722034374522,27.0,51.03920062069938,38.01315561749642,35.5,34.0,40.0,10.0,14.0,1.0,4.0,12.0,13.038404810405298,13.0,33.0,24.0,35.12833614050059
249,48,633,0,21.121099999999704,5.0,74.33034373659252,6.082762530298219,12.165525060596439,20.09975124224178,20.09975124224178,27.018512172212592,50.15974481593781,38.05259518088089,35.5,32.0,39.0,8.5,14.5,0.5,2.5,12.041594578792296,13.0,13.0,32.0,24.0,32.0624390837628
250,48,634,0,21.15446666666637,5.0,68.26419266350405,7.0710678118654755,12.165525060596439,19.1049731745428,20.09975124224178,26.0,50.08991914547278,38.01315561749642,35.5,33.0,39.0,10.0,14.0,0.0,3.0,13.038404810405298,14.0,14.0,34.0,26.0,33.13608305156178
251,48,635,0,21.187833333333035,6.0,69.18092222571191,6.082762530298219,11.045361017187261,19.026297590440446,19.1049731745428,26.019223662515376,49.09175083453431,38.05259518088089,35.0,33.0,38.0,9.5,13.5,0.5,3.5,14.035668847618199,14.0,14.0,33.0,23.0,34.132096331752024
252,48,636,0,21.2211999999997,5.0,72.24956747275377,7.0,12.041594578792296,20.024984394500787,20.09975124224178,27.018512172212592,51.03920062069938,39.01281840626232,36.5,34.0,40.0,10.0,14.0,0.0,4.0,12.041594578792296,13.0,13.0,34.0,25.0,36.124783736376884
253,48,637,0,21.254566666666367,4.0,70.25667228100119,7.0,12.165525060596439,20.024984394500787,21.095023109728988,27.073972741361768,50.15974481593781,38.05259518088089,36.0,34.0,40.0,10.0,13.0,1.0,4.0,13.038404810405298,14.0,14.0,34.0,26.0,34.132096331752024
254,48,638,0,21.28793333333304,6.0,70.34912934784623,6.0,11.180339887498949,19.026297590440446,20.09975124224178,28.0178514522438,51.088159097779204,40.01249804748511,37.0,34.0,41.0,9.5,13.5,0.5,3.5,14.035668847618199,14.0,13.5,34.0,25.0,34.058772731852805
255,48,639,0,21.3212999999997,4.123105625617661,71.25307010929424,7.0710678118654755,12.165525060596439,19.026297590440446,19.1049731745428,27.018512172212592,50.08991914547278,38.01315561749642,36.0,34.0,40.0,10.0,13.0,0.0,3.0,14.035668847618199,14.0,13.5,35.0,26.0,34.132096331752024
256,48,640,0,21.354666666666365,4.0,69.26037828369117,7.0710678118654755,13.038404810405298,19.1049731745428,19.026297590440446,27.018512172212592,51.088159097779204,38.05259518088089,36.0,33.0,39.0,9.0,15.0,0.0,2.0,14.035668847618199,15.0,14.5,34.0,23.0,34.058772731852805
257,48,641,0,21.38803333333303,7.0,72.24956747275377,8.0,12.041594578792296,21.095023109728988,21.095023109728988,26.019223662515376,53.03772242470448,41.012193308819754,37.5,34.0,40.0,11.0,16.0,2.0,3.0,14.035668847618199,15.0,14.5,34.0,26.0,33.13608305156178
258,48,642,0,21.421399999999696,8.0,74.16872656315464,7.0710678118654755,13.038404810405298,21.02379604162864,22.090722034374522,26.0,54.037024344425184,41.012193308819754,37.0,34.0,39.0,10.5,17.5,2.5,3.5,13.038404810405298,14.0,13.5,33.0,25.0,32.14031735997639
259,48,643,0,21.45476666666636,5.0,73.24616030891995,6.082762530298219,13.038404810405298,20.09975124224178,21.095023109728988,28.0,52.03844732503075,39.01281840626232,36.5,33.0,39.0,8.0,16.0,1.0,2.0,13.038404810405298,14.0,13.5,34.0,26.0,32.0624390837628
260,48,644,0,21.488133333333028,3.1622776601683795,73.17103251970687,7.0710678118654755,11.045361017187261,22.02271554554524,21.02379604162864,27.0,48.093658625644196,37.05401462729781,35.5,34.0,39.0,9.5,11.5,1.5,3.5,13.038404810405298,14.0,14.5,35.0,24.0,33.13608305156178
261,48,645,0,21.52149999999969,4.0,72.24956747275377,7.0710678118654755,12.041594578792296,20.024984394500787,21.02379604162864,27.018512172212592,50.00999900019995,38.0,36.0,33.0,39.0,9.0,14.0,0.0,3.0,15.033296378372908,15.0,14.5,35.0,26.0,32.14031735997639
262,48,646,0,21.55486666666636,5.0990195135927845,71.25307010929424,7.0,12.041594578792296,21.02379604162864,21.095023109728988,27.0,51.03920062069938,39.01281840626232,36.5,33.0,39.0,9.0,15.0,1.0,3.0,13.152946437965905,14.0,14.0,35.0,26.0,36.013886210738214
263,48,647,0,21.588233333333022,4.0,74.16872656315464,6.0,12.041594578792296,19.026297590440446,20.09975124224178,27.018512172212592,49.040799340956916,37.013511046643494,35.0,33.0,38.0,8.5,13.5,0.5,2.5,15.132745950421556,15.0,15.0,34.0,26.0,37.05401462729781
264,48,648,0,21.62159999999969,4.123105625617661,73.17103251970687,7.0710678118654755,13.152946437965905,21.02379604162864,22.02271554554524,27.018512172212592,51.088159097779204,38.01315561749642,36.0,33.0,38.0,8.5,15.5,0.5,2.5,13.038404810405298,15.033296378372908,14.5,36.0,27.0,38.05259518088089
265,48,649,0,21.65496666666636,5.0,71.25307010929424,7.0,13.038404810405298,19.026297590440446,20.09975124224178,26.076809620810597,51.088159097779204,38.05259518088089,35.5,32.0,38.0,9.0,16.0,1.0,3.0,14.035668847618199,16.0,15.5,35.0,26.0,38.05259518088089
266,48,650,0,21.688333333333023,5.0,72.17340230306452,5.0990195135927845,14.035668847618199,20.024984394500787,21.095023109728988,27.018512172212592,51.088159097779204,37.05401462729781,34.5,33.0,38.0,8.5,15.5,0.5,3.5,15.033296378372908,16.0,15.5,35.0,27.0,35.014282800023196
267,48,651,0,21.72169999999969,5.0990195135927845,70.25667228100119,6.0,11.045361017187261,20.09975124224178,20.09975124224178,26.0,48.041648597857254,37.013511046643494,34.5,32.0,38.0,9.0,13.0,0.0,3.0,13.152946437965905,13.0,13.5,35.0,24.0,36.22154055254967
268,48,652,0,21.755066666666355,4.123105625617661,71.17583859709698,6.0,15.033296378372908,22.02271554554524,23.08679276123039,26.076809620810597,51.15662224971465,36.124783736376884,34.0,32.0,37.0,8.5,16.5,1.5,3.5,14.035668847618199,15.0,15.0,33.0,25.0,32.14031735997639
269,48,653,0,21.78843333333302,2.23606797749979,71.17583859709698,6.0,15.033296378372908,20.09975124224178,21.095023109728988,26.076809620810597,49.16299421312742,34.132096331752024,33.0,31.0,36.0,7.5,15.5,1.5,2.5,14.142135623730951,15.033296378372908,15.0,34.0,26.0,33.24154027718932
270,48,654,0,21.821799999999687,2.0,72.17340230306452,6.082762530298219,14.142135623730951,22.090722034374522,23.08679276123039,26.0,48.093658625644196,34.0147027033899,33.0,30.0,35.0,6.5,15.5,0.5,1.5,14.035668847618199,15.033296378372908,15.0,34.0,25.0,33.24154027718932
271,48,655,0,21.85516666666636,3.1622776601683795,73.17103251970687,6.0,15.132745950421556,22.090722034374522,23.08679276123039,26.019223662515376,50.15974481593781,35.05709628591621,33.5,31.0,36.0,7.5,16.5,0.5,2.5,14.035668847618199,14.0,14.0,33.0,24.0,32.14031735997639
272,48,656,0,21.88853333333302,2.0,72.17340230306452,6.082762530298219,13.152946437965905,21.02379604162864,21.095023109728988,27.0,48.093658625644196,35.014282800023196,34.0,33.0,38.0,8.5,12.5,2.5,3.5,14.035668847618199,15.0,15.0,34.0,24.0,35.22782990761707
273,48,657,0,21.921899999999685,3.1622776601683795,72.17340230306452,6.082762530298219,12.165525060596439,20.09975124224178,21.095023109728988,27.018512172212592,48.093658625644196,36.013886210738214,34.5,33.0,38.0,8.5,12.5,1.5,2.5,13.038404810405298,14.0,14.0,34.0,24.0,36.05551275463989
274,48,658,0,21.95526666666635,4.0,70.25667228100119,6.0,12.041594578792296,20.09975124224178,20.09975124224178,26.019223662515376,48.041648597857254,36.013886210738214,34.0,31.0,37.0,8.0,14.0,0.0,2.0,15.132745950421556,16.0,16.0,34.0,25.0,34.132096331752024
275,48,659,0,21.988633333333016,3.0,73.24616030891995,6.0,11.045361017187261,20.09975124224178,20.09975124224178,26.0,46.010868281309364,35.0,33.5,31.0,37.0,8.0,12.0,1.0,2.0,15.033296378372908,15.0,15.0,33.0,26.0,36.124783736376884
276,48,660,0,22.02199999999968,2.0,75.16648189186454,6.0,11.045361017187261,22.090722034374522,22.090722034374522,26.019223662515376,45.044422518220834,34.0147027033899,33.0,31.0,36.0,7.5,11.5,1.5,1.5,14.035668847618199,15.0,15.0,34.0,26.0,40.11234224026316
277,48,661,0,22.055366666666348,2.23606797749979,76.10519036176179,7.0,13.038404810405298,21.02379604162864,22.090722034374522,25.0,47.042533945356304,34.0147027033899,33.0,31.0,35.0,8.0,14.0,1.0,2.0,15.033296378372908,15.0,15.0,34.0,27.0,39.01281840626232
278,48,662,0,22.08873333333301,2.0,78.16009211867653,7.0710678118654755,11.180339887498949,23.08679276123039,23.08679276123039,25.0,45.09988913511872,34.0147027033899,33.0,30.0,35.0,7.5,12.5,0.5,0.5,13.038404810405298,14.035668847618199,14.0,33.0,24.0,35.05709628591621
279,48,663,0,22.12209999999968,3.0,78.16009211867653,6.082762530298219,11.045361017187261,21.02379604162864,21.095023109728988,26.0,46.04345773288535,35.014282800023196,33.5,30.0,35.0,6.5,13.5,0.5,0.5,14.035668847618199,15.0,15.0,34.0,28.0,38.05259518088089
280,48,664,0,22.155466666666342,2.0,78.10249675906654,7.0,10.04987562112089,21.02379604162864,21.02379604162864,25.0,44.01136216933077,34.0,33.0,29.0,33.0,6.0,13.0,0.0,0.0,14.035668847618199,14.035668847618199,14.0,34.0,26.0,37.12142238654117
281,48,665,0,22.18883333333301,2.0,80.09993757800315,7.0,10.04987562112089,21.095023109728988,22.090722034374522,25.0,44.01136216933077,34.0,33.0,29.0,33.0,6.0,13.0,1.0,1.0,15.033296378372908,15.0,15.0,34.0,28.0,37.12142238654117
282,48,666,0,22.22219999999968,2.0,80.15609770940699,6.0,10.0,22.0,22.02271554554524,26.0,44.0,34.0,33.0,29.0,34.0,5.5,12.5,0.5,0.5,14.0,14.0,13.5,32.0,24.0,35.05709628591621
283,48,667,0,22.255566666666343,1.0,82.09750300709517,7.0,10.04987562112089,22.02271554554524,22.02271554554524,25.019992006393608,43.04648650006177,33.015148038438355,32.5,27.0,31.0,4.0,14.0,2.0,2.0,16.0,16.0312195418814,15.5,33.0,28.0,33.015148038438355
284,48,668,0,22.28893333333301,1.4142135623730951,82.09750300709517,8.0,9.0,22.0,22.02271554554524,25.019992006393608,43.04648650006177,34.058772731852805,33.5,27.0,31.0,4.0,14.0,3.0,2.0,14.035668847618199,15.0,14.5,32.0,26.0,33.015148038438355
285,48,669,0,22.322299999999675,2.0,82.09750300709517,7.0,10.04987562112089,25.019992006393608,24.020824298928627,24.0,43.01162633521314,33.0,32.0,25.0,29.0,3.0,16.0,4.0,3.0,11.045361017187261,10.0,10.0,32.0,20.0,35.35533905932738
286,48,670,0,22.35566666666634,4.0,84.09518416651456,7.0710678118654755,12.041594578792296,23.021728866442675,23.021728866442675,25.0,48.041648597857254,36.013886210738214,34.0,26.0,30.0,3.0,20.0,6.0,3.0,14.035668847618199,14.035668847618199,14.0,34.0,25.0,38.2099463490856
287,48,671,0,22.389033333333007,8.06225774829855,84.09518416651456,8.0,13.0,23.0,23.021728866442675,25.0,54.00925846556311,41.012193308819754,37.0,29.0,33.0,6.0,23.0,9.0,1.0,13.038404810405298,13.038404810405298,12.5,33.0,23.0,36.05551275463989
288,48,672,0,22.42239999999968,8.06225774829855,83.09632964216891,8.06225774829855,11.045361017187261,25.0,25.019992006393608,26.019223662515376,53.0,42.01190307520001,38.0,30.0,34.0,6.0,21.0,8.0,0.0,14.035668847618199,14.035668847618199,14.0,32.0,26.0,33.06055050963308
289,48,673,0,22.45576666666634,8.0,81.09870529176159,7.0,11.045361017187261,22.02271554554524,23.021728866442675,25.0,51.0098029794274,40.0,36.0,29.0,33.0,6.0,20.0,7.0,0.0,14.035668847618199,14.0,14.0,33.0,26.0,35.05709628591621
290,48,674,0,22.489133333333005,4.0,77.05841939723393,6.0,11.045361017187261,22.02271554554524,21.02379604162864,25.0,46.010868281309364,35.0,33.0,30.0,33.0,6.5,14.5,1.5,0.5,15.033296378372908,14.0,14.5,33.0,27.0,34.132096331752024
291,48,675,0,22.52249999999967,1.0,74.06078584514209,6.0,11.0,21.02379604162864,21.095023109728988,25.0,43.0,32.0,31.5,30.0,33.0,6.5,11.5,1.5,1.5,14.035668847618199,14.035668847618199,14.0,33.0,26.0,35.12833614050059
292,48,676,0,22.555866666666336,3.0,76.10519036176179,5.0,11.045361017187261,24.08318915758459,24.08318915758459,25.0,44.01136216933077,33.0,31.5,30.0,34.0,7.0,12.0,1.0,2.0,14.035668847618199,15.0,15.0,33.0,26.0,34.058772731852805
293,48,677,0,22.589233333333,2.0,78.10249675906654,6.0,13.038404810405298,23.021728866442675,23.021728866442675,25.019992006393608,46.04345773288535,33.015148038438355,32.0,30.0,34.0,7.0,14.0,1.0,2.0,14.0,14.0,14.0,34.0,26.0,36.124783736376884
294,48,678,0,22.622599999999668,3.0,74.10802925459562,6.082762530298219,13.152946437965905,23.0,23.021728866442675,25.019992006393608,47.16990566028302,34.058772731852805,32.5,31.0,35.0,8.0,14.0,1.0,4.0,13.152946437965905,14.0,14.0,32.0,24.0,33.13608305156178
295,48,679,0,22.65596666666633,4.123105625617661,74.16872656315464,6.082762530298219,14.035668847618199,23.08679276123039,23.021728866442675,26.019223662515376,50.15974481593781,36.124783736376884,34.0,31.0,36.0,7.5,16.5,0.5,2.5,13.038404810405298,14.035668847618199,14.5,32.0,25.0,30.265491900843113
296,48,680,0,22.689333333333,4.123105625617661,72.24956747275377,7.0710678118654755,14.142135623730951,22.090722034374522,23.021728866442675,27.0,52.15361924162119,38.05259518088089,36.0,33.0,39.0,9.0,16.0,0.0,3.0,13.038404810405298,13.038404810405298,12.5,33.0,23.0,33.24154027718932
297,48,681,0,22.722699999999666,6.0,70.25667228100119,7.0710678118654755,14.035668847618199,20.024984394500787,20.09975124224178,27.018512172212592,54.08326913195984,40.049968789001575,37.0,35.0,41.0,11.0,16.0,0.0,5.0,14.142135623730951,15.0,14.5,35.0,25.0,33.24154027718932
298,48,682,0,22.75606666666633,5.0,69.18092222571191,7.0710678118654755,14.035668847618199,18.027756377319946,19.235384061671343,27.018512172212592,53.08483775994799,39.05124837953327,36.5,34.0,39.0,9.5,16.5,0.5,3.5,14.035668847618199,15.0,14.5,34.0,24.0,32.14031735997639
299,48,683,0,22.789433333333,5.0990195135927845,70.25667228100119,6.0,9.055385138137417,20.09975124224178,20.09975124224178,27.073972741361768,47.16990566028302,38.118237105091836,35.5,32.0,38.0,8.0,12.0,0.0,2.0,14.035668847618199,15.033296378372908,14.5,35.0,23.0,33.37663853655727
300,48,684,0,22.822799999999663,3.1622776601683795,73.33484846919642,6.0,9.055385138137417,21.02379604162864,20.09975124224178,28.071337695236398,46.17358552246078,37.12142238654117,35.5,31.0,38.0,6.5,11.5,0.5,1.5,15.132745950421556,15.0,15.0,33.0,23.0,34.132096331752024
301,48,685,0,22.85616666666633,4.0,72.3394774656273,7.0710678118654755,12.165525060596439,20.09975124224178,20.223748416156685,27.073972741361768,50.24937810560445,38.118237105091836,36.0,31.0,38.0,7.5,15.5,1.5,0.5,14.142135623730951,15.0,15.0,34.0,25.0,36.124783736376884
302,48,686,0,22.889533333332995,4.0,74.33034373659252,6.082762530298219,10.04987562112089,20.09975124224178,20.09975124224178,27.018512172212592,47.095647357266465,37.05401462729781,35.0,31.0,38.0,7.5,12.5,1.5,1.5,14.035668847618199,15.0,14.5,35.0,23.0,35.22782990761707
303,48,687,0,22.92289999999966,3.0,75.32595834106593,7.0,10.198039027185569,21.095023109728988,21.213203435596427,27.073972741361768,47.16990566028302,37.05401462729781,35.5,31.0,38.0,7.5,12.5,0.5,0.5,14.035668847618199,14.035668847618199,14.5,35.0,24.0,37.12142238654117
304,48,688,0,22.956266666666327,3.0,74.33034373659252,6.082762530298219,10.04987562112089,20.09975124224178,20.09975124224178,27.018512172212592,46.09772228646444,36.05551275463989,34.5,30.0,37.0,6.5,12.5,0.5,0.5,15.033296378372908,15.0,15.0,35.0,26.0,37.12142238654117
305,48,689,0,22.989633333333,3.1622776601683795,73.33484846919642,7.0,11.045361017187261,20.09975124224178,20.223748416156685,26.019223662515376,47.095647357266465,36.05551275463989,34.5,30.0,37.0,7.5,13.5,0.5,0.5,15.033296378372908,16.0,15.5,35.0,24.0,37.21558813185679
306,48,690,0,23.02299999999966,2.23606797749979,73.33484846919642,7.0,12.041594578792296,20.09975124224178,20.223748416156685,27.073972741361768,48.16637831516918,36.124783736376884,35.0,31.0,38.0,7.5,13.5,0.5,0.5,13.038404810405298,14.0,13.5,35.0,26.0,36.22154055254967
307,48,691,0,23.056366666666325,4.0,74.24284477308234,7.0710678118654755,11.045361017187261,21.02379604162864,21.095023109728988,28.0178514522438,50.08991914547278,39.05124837953327,37.0,33.0,39.0,8.0,14.0,1.0,2.0,16.1245154965971,15.0,15.5,35.0,25.0,38.118237105091836
308,48,692,0,23.08973333333299,3.1622776601683795,72.44308110509934,7.0,10.04987562112089,20.024984394500787,20.09975124224178,28.0178514522438,48.093658625644196,38.05259518088089,36.5,32.0,40.0,8.0,12.0,1.0,2.0,15.033296378372908,14.0,14.0,37.0,26.0,37.21558813185679
309,48,693,0,23.123099999999656,4.123105625617661,72.3394774656273,6.0,12.165525060596439,20.09975124224178,21.095023109728988,28.0178514522438,50.15974481593781,38.05259518088089,36.0,32.0,39.0,7.5,14.5,0.5,1.5,14.035668847618199,15.0,14.5,37.0,24.0,37.21558813185679
310,48,694,0,23.15646666666632,2.0,71.449282711585,7.0710678118654755,12.041594578792296,19.1049731745428,20.09975124224178,29.017236257093817,50.08991914547278,38.05259518088089,37.0,33.0,41.0,8.0,13.0,1.0,1.0,14.142135623730951,13.0,13.0,36.0,23.0,37.12142238654117
311,48,695,0,23.189833333332988,2.0,74.33034373659252,7.0710678118654755,11.045361017187261,20.024984394500787,21.213203435596427,28.0178514522438,48.093658625644196,37.05401462729781,36.0,32.0,39.0,7.5,12.5,0.5,1.5,15.033296378372908,15.0,15.0,35.0,25.0,35.12833614050059
312,48,696,0,23.22319999999965,5.0,75.4254598925323,7.0710678118654755,11.180339887498949,20.09975124224178,21.213203435596427,27.018512172212592,50.15974481593781,39.05124837953327,36.5,32.0,40.0,9.0,14.0,1.0,2.0,15.033296378372908,15.0,15.0,36.0,25.0,36.22154055254967
313,48,697,0,23.25656666666632,3.0,68.3593446428504,7.0,12.165525060596439,19.1049731745428,19.1049731745428,28.071337695236398,50.15974481593781,38.05259518088089,36.5,33.0,40.0,8.5,13.5,0.5,1.5,15.132745950421556,16.0,15.5,36.0,25.0,38.2099463490856
314,48,698,0,23.289933333332986,6.0,71.34423592694787,7.0710678118654755,12.165525060596439,20.024984394500787,20.09975124224178,27.018512172212592,52.15361924162119,40.049968789001575,37.0,33.0,40.0,9.5,15.5,1.5,2.5,16.0312195418814,16.0312195418814,16.0,36.0,26.0,39.20459156782532
315,48,699,0,23.32329999999965,6.082762530298219,72.3394774656273,7.0,12.041594578792296,19.026297590440446,20.09975124224178,27.073972741361768,52.15361924162119,40.11234224026316,37.0,33.0,40.0,9.5,15.5,1.5,3.5,15.033296378372908,15.0,15.0,36.0,26.0,38.2099463490856
316,48,700,0,23.35666666666632,5.0990195135927845,71.34423592694787,7.0,12.041594578792296,19.1049731745428,20.09975124224178,28.0178514522438,52.08646657242167,40.049968789001575,37.5,34.0,41.0,9.5,14.5,0.5,2.5,14.035668847618199,15.0,15.0,36.0,26.0,35.22782990761707
317,48,701,0,23.390033333332983,7.0,71.34423592694787,6.082762530298219,12.041594578792296,19.1049731745428,20.09975124224178,27.018512172212592,52.08646657242167,40.049968789001575,36.5,33.0,40.0,9.5,15.5,1.5,3.5,15.033296378372908,15.0,15.0,36.0,25.0,35.12833614050059
318,48,702,0,23.42339999999965,6.0,71.25307010929424,7.0710678118654755,11.180339887498949,20.09975124224178,20.09975124224178,27.0,51.088159097779204,40.01249804748511,37.0,33.0,39.0,9.0,15.0,1.0,2.0,14.035668847618199,15.033296378372908,15.0,34.0,24.0,36.124783736376884
319,48,703,0,23.456766666666315,7.0,70.25667228100119,6.082762530298219,12.041594578792296,20.024984394500787,20.09975124224178,28.0178514522438,53.08483775994799,41.048751503547585,37.5,34.0,40.0,9.0,16.0,1.0,3.0,14.142135623730951,14.0,14.0,36.0,25.0,36.22154055254967
320,48,704,0,23.49013333333298,5.0,69.18092222571191,8.06225774829855,14.035668847618199,20.024984394500787,20.09975124224178,27.018512172212592,54.08326913195984,40.049968789001575,37.5,34.0,39.0,9.5,17.5,1.5,2.5,15.132745950421556,15.0,14.5,35.0,24.0,33.24154027718932
321,48,705,0,23.523499999999647,5.0,68.26419266350405,8.06225774829855,12.041594578792296,19.1049731745428,19.1049731745428,27.018512172212592,52.08646657242167,40.049968789001575,37.5,34.0,40.0,10.0,15.0,1.0,2.0,14.035668847618199,15.0,15.0,35.0,25.0,37.21558813185679
322,48,706,0,23.55686666666632,5.0,69.35416353759881,7.0710678118654755,10.04987562112089,20.024984394500787,19.1049731745428,28.0178514522438,50.08991914547278,40.049968789001575,37.5,33.0,40.0,8.5,13.5,1.5,2.5,16.0312195418814,16.0312195418814,15.5,35.0,25.0,35.12833614050059
323,48,707,0,23.59023333333298,7.0710678118654755,69.26037828369117,7.0710678118654755,12.165525060596439,20.09975124224178,21.095023109728988,27.018512172212592,53.08483775994799,41.012193308819754,37.5,33.0,39.0,9.0,17.0,3.0,2.0,15.132745950421556,16.0,16.0,35.0,25.0,35.22782990761707
324,48,708,0,23.623599999999644,8.0,68.26419266350405,6.0,11.045361017187261,19.026297590440446,20.09975124224178,28.0178514522438,53.03772242470448,42.01190307520001,38.0,34.0,40.0,9.0,16.0,3.0,3.0,17.029386365926403,17.029386365926403,16.5,35.0,25.0,37.33630940518894
325,48,709,0,23.65696666666631,7.0,70.25667228100119,8.0,12.165525060596439,19.026297590440446,19.1049731745428,26.019223662515376,53.08483775994799,41.012193308819754,37.5,33.0,39.0,10.0,17.0,3.0,3.0,16.0312195418814,16.0,15.5,36.0,25.0,33.24154027718932
326,48,710,0,23.690333333332976,8.0,69.26037828369117,7.0,13.038404810405298,20.024984394500787,20.024984394500787,26.019223662515376,54.037024344425184,41.012193308819754,37.0,33.0,39.0,10.0,18.0,4.0,3.0,15.033296378372908,16.0,15.5,36.0,25.0,31.25699921617557
327,48,711,0,23.72369999999964,9.0,70.178344238091,7.0,12.041594578792296,19.026297590440446,20.223748416156685,27.0,55.00909015790027,43.0,38.5,35.0,40.0,10.5,17.5,3.5,3.5,16.0312195418814,15.0,15.0,35.0,23.0,32.2490309931942
328,48,712,0,23.757066666666308,9.0,69.18092222571191,7.0,13.038404810405298,19.026297590440446,20.024984394500787,26.0,55.00909015790027,42.0,37.5,34.0,39.0,10.5,18.5,3.5,3.5,15.033296378372908,15.033296378372908,15.0,35.0,26.0,35.05709628591621
329,48,713,0,23.79043333333297,7.0,70.25667228100119,7.0,13.0,21.02379604162864,20.223748416156685,27.0,54.0,41.0,37.5,34.0,40.0,10.0,17.0,2.0,3.0,15.033296378372908,16.0,16.5,34.0,25.0,36.05551275463989
330,48,714,0,23.82379999999964,6.0,71.17583859709698,8.0,13.038404810405298,20.09975124224178,20.09975124224178,26.019223662515376,53.0,40.01249804748511,37.0,34.0,39.0,10.5,16.5,1.5,2.5,15.132745950421556,15.0,15.0,34.0,22.0,34.132096331752024
331,48,715,0,23.857166666666306,8.0,69.1158447825099,8.0,12.041594578792296,20.09975124224178,21.095023109728988,26.019223662515376,54.037024344425184,42.01190307520001,38.0,35.0,39.0,11.0,17.0,3.0,3.0,16.0312195418814,16.0,15.5,35.0,24.0,36.22154055254967
332,48,716,0,23.89053333333297,7.0710678118654755,70.11419257183242,7.0710678118654755,11.180339887498949,20.09975124224178,21.095023109728988,26.019223662515376,51.0098029794274,40.01249804748511,36.5,34.0,38.0,10.0,15.0,1.0,3.0,15.033296378372908,17.0,16.5,35.0,26.0,34.058772731852805
333,48,717,0,23.92389999999964,3.0,70.11419257183242,7.0710678118654755,11.180339887498949,19.1049731745428,20.09975124224178,26.0,47.095647357266465,36.013886210738214,34.5,33.0,37.0,9.0,12.0,1.0,3.0,15.033296378372908,16.0,15.5,34.0,26.0,33.06055050963308
334,48,718,0,23.957266666666303,3.1622776601683795,70.06425622241343,6.082762530298219,15.033296378372908,21.02379604162864,20.024984394500787,26.019223662515376,50.039984012787215,35.014282800023196,33.5,33.0,36.0,8.5,15.5,1.5,3.5,15.033296378372908,16.0312195418814,15.5,33.0,24.0,30.265491900843113
335,48,719,0,23.99063333333297,3.0,72.11102550927978,6.082762530298219,15.132745950421556,21.095023109728988,22.090722034374522,27.0,51.088159097779204,36.013886210738214,34.5,34.0,38.0,9.0,15.0,1.0,3.0,14.035668847618199,15.0,15.0,33.0,26.0,34.058772731852805
336,48,720,0,24.023999999999635,6.082762530298219,70.11419257183242,6.0,16.0312195418814,20.024984394500787,21.095023109728988,28.071337695236398,56.142675390472796,40.11234224026316,37.0,36.0,40.0,10.0,18.0,0.0,5.0,15.033296378372908,16.0,16.0,34.0,25.0,31.144823004794873
337,48,721,0,24.0573666666663,6.0,70.178344238091,6.082762530298219,14.035668847618199,19.1049731745428,20.09975124224178,27.018512172212592,53.08483775994799,39.05124837953327,36.0,35.0,40.0,10.5,15.5,0.5,4.5,15.033296378372908,15.033296378372908,15.0,35.0,26.0,33.24154027718932
338,48,722,0,24.090733333332967,6.324555320336759,70.25667228100119,6.0,13.038404810405298,20.024984394500787,20.024984394500787,26.0,51.088159097779204,38.05259518088089,35.0,35.0,41.0,12.0,13.0,2.0,6.0,14.035668847618199,15.0,14.5,34.0,25.0,34.23448553724738
339,48,723,0,24.12409999999964,5.385164807134504,75.16648189186454,5.0,13.038404810405298,22.02271554554524,22.02271554554524,25.019992006393608,48.16637831516918,35.12833614050059,32.5,33.0,38.0,10.5,12.5,1.5,5.5,13.038404810405298,13.0,13.0,33.0,23.0,35.22782990761707
340,48,724,0,24.1574666666663,1.0,77.1621668954417,5.0990195135927845,12.165525060596439,22.090722034374522,21.095023109728988,25.019992006393608,43.04648650006177,31.0,30.5,31.0,36.0,8.5,9.5,3.5,3.5,14.035668847618199,15.0,15.0,34.0,25.0,36.124783736376884
341,48,725,0,24.190833333332964,1.4142135623730951,76.16429609731846,6.082762530298219,13.152946437965905,21.02379604162864,20.024984394500787,25.019992006393608,45.09988913511872,32.01562118716424,31.5,31.0,36.0,8.5,11.5,3.5,3.5,14.142135623730951,14.0,14.0,34.0,25.0,34.132096331752024
342,48,726,0,24.22419999999963,1.0,74.10802925459562,5.0,10.04987562112089,20.024984394500787,21.095023109728988,27.0,43.01162633521314,33.0,32.5,32.0,36.0,7.0,9.0,3.0,2.0,15.033296378372908,15.0,15.0,34.0,25.0,35.12833614050059
343,48,727,0,24.257566666666296,2.0,70.178344238091,5.0,11.045361017187261,20.0,19.1049731745428,28.0178514522438,46.04345773288535,35.014282800023196,34.0,32.0,37.0,6.5,11.5,1.5,2.5,16.0312195418814,16.0,15.5,34.0,24.0,35.22782990761707
344,48,728,0,24.29093333333296,2.0,72.24956747275377,6.082762530298219,10.198039027185569,20.024984394500787,20.09975124224178,27.0,45.09988913511872,35.014282800023196,34.0,32.0,38.0,8.0,10.0,2.0,2.0,15.033296378372908,16.0,15.5,35.0,26.0,34.132096331752024
345,48,729,0,24.324299999999628,2.0,72.24956747275377,6.082762530298219,10.04987562112089,21.095023109728988,21.095023109728988,28.0,46.04345773288535,36.013886210738214,35.0,33.0,39.0,8.0,10.0,2.0,3.0,15.132745950421556,15.0,15.0,34.0,23.0,35.22782990761707
346,48,730,0,24.357666666666294,3.0,74.16872656315464,6.082762530298219,11.045361017187261,21.095023109728988,21.095023109728988,27.018512172212592,47.095647357266465,36.05551275463989,34.5,33.0,38.0,8.5,11.5,1.5,2.5,14.035668847618199,14.0,13.5,34.0,22.0,37.21558813185679
347,48,731,0,24.39103333333296,3.0,72.24956747275377,6.0,11.180339887498949,19.1049731745428,20.09975124224178,27.018512172212592,47.095647357266465,36.013886210738214,34.5,33.0,39.0,9.0,11.0,2.0,3.0,15.132745950421556,15.0,15.0,35.0,23.0,34.23448553724738
348,48,732,0,24.424399999999626,5.0,68.26419266350405,6.082762530298219,10.198039027185569,19.026297590440446,20.09975124224178,28.0,49.09175083453431,39.01281840626232,36.5,34.0,40.0,9.0,12.0,0.0,3.0,16.0312195418814,16.0,16.0,34.0,24.0,33.24154027718932
349,48,733,0,24.45776666666629,5.0990195135927845,69.26037828369117,6.0,10.04987562112089,20.09975124224178,20.09975124224178,28.071337695236398,49.16299421312742,39.11521443121589,36.5,34.0,40.0,9.0,12.0,0.0,3.0,13.038404810405298,12.0,12.0,34.0,21.0,33.13608305156178
350,48,734,0,24.49113333333296,4.123105625617661,70.34912934784623,6.082762530298219,9.055385138137417,18.110770276274835,19.235384061671343,30.01666203960727,49.040799340956916,40.01249804748511,38.0,34.0,41.0,7.5,11.5,0.5,1.5,16.0312195418814,16.0,16.5,35.0,25.0,36.124783736376884
351,48,735,0,24.524499999999623,2.23606797749979,73.24616030891995,6.082762530298219,11.180339887498949,18.110770276274835,19.235384061671343,31.016124838541646,50.08991914547278,39.01281840626232,38.0,35.0,41.0,7.0,12.0,1.0,1.0,15.033296378372908,15.0,15.0,33.0,23.0,35.22782990761707
352,48,736,0,24.55786666666629,3.0,74.33034373659252,7.0710678118654755,12.041594578792296,20.024984394500787,20.09975124224178,29.017236257093817,51.088159097779204,39.05124837953327,37.5,33.0,40.0,7.5,14.5,0.5,1.5,16.0312195418814,16.0,16.0,35.0,26.0,38.118237105091836
353,48,737,0,24.591233333332955,2.0,66.27216610312357,7.0710678118654755,10.04987562112089,17.029386365926403,17.11724276862369,30.01666203960727,49.09175083453431,39.05124837953327,38.0,35.0,41.0,8.0,11.0,1.0,2.0,15.033296378372908,15.0,14.5,34.0,25.0,33.06055050963308
354,48,738,0,24.62459999999962,4.0,67.36467917239716,8.06225774829855,13.038404810405298,19.1049731745428,20.223748416156685,30.01666203960727,55.08175741568164,42.04759208325728,40.0,36.0,43.0,9.5,15.5,0.5,1.5,15.033296378372908,15.0,15.0,35.0,25.0,39.11521443121589
355,48,739,0,24.657966666666287,3.0,69.46221994724903,7.0,11.045361017187261,19.1049731745428,20.09975124224178,31.016124838541646,52.03844732503075,41.012193308819754,39.5,35.0,43.0,8.0,13.0,0.0,1.0,15.033296378372908,15.0,15.0,35.0,26.0,37.12142238654117
356,48,740,0,24.69133333333296,2.0,71.34423592694787,6.0,9.055385138137417,19.1049731745428,19.1049731745428,32.01562118716424,49.040799340956916,40.01249804748511,39.0,34.0,41.0,5.5,11.5,0.5,0.5,15.132745950421556,16.0,16.0,36.0,27.0,35.22782990761707
357,48,741,0,24.72469999999962,2.0,71.25307010929424,6.0,9.055385138137417,19.1049731745428,19.1049731745428,32.01562118716424,49.040799340956916,40.01249804748511,39.0,35.0,41.0,6.0,11.0,1.0,1.0,14.142135623730951,15.0,15.0,35.0,25.0,36.345563690772494
358,48,742,0,24.758066666666284,2.0,72.24956747275377,7.0710678118654755,9.055385138137417,20.024984394500787,19.1049731745428,30.066592756745816,48.16637831516918,39.11521443121589,38.0,36.0,42.0,9.0,9.0,3.0,3.0,15.132745950421556,15.033296378372908,15.0,36.0,26.0,35.12833614050059
359,48,743,0,24.79143333333295,4.0,70.25667228100119,7.0,10.04987562112089,20.024984394500787,20.09975124224178,28.0178514522438,49.040799340956916,39.01281840626232,37.0,34.0,40.0,9.0,12.0,1.0,2.0,14.035668847618199,15.0,15.0,35.0,23.0,33.13608305156178
360,48,744,0,24.824799999999616,6.0,67.26812023536856,7.0,12.041594578792296,19.1049731745428,20.09975124224178,29.068883707497267,54.08326913195984,42.04759208325728,39.0,36.0,42.0,10.0,15.0,1.0,3.0,15.033296378372908,15.0,14.5,35.0,25.0,34.058772731852805
361,48,745,0,24.85816666666628,6.082762530298219,70.25667228100119,7.0710678118654755,13.152946437965905,19.1049731745428,20.09975124224178,27.018512172212592,53.08483775994799,40.01249804748511,37.0,35.0,41.0,11.0,15.0,1.0,3.0,16.1245154965971,17.0,16.5,36.0,26.0,35.05709628591621
362,48,746,0,24.891533333332948,5.0,70.25667228100119,8.0,13.152946437965905,20.223748416156685,21.095023109728988,28.0,54.037024344425184,41.0,38.5,36.0,42.0,11.0,15.0,0.0,3.0,14.035668847618199,14.0,14.0,36.0,25.0,33.13608305156178
363,48,747,0,24.924899999999614,7.0,66.18912297349165,6.0,13.152946437965905,19.1049731745428,19.235384061671343,29.068883707497267,55.14526271584895,42.04759208325728,38.5,36.0,41.0,9.5,16.5,1.5,3.5,16.0,17.0,16.5,36.0,25.0,33.13608305156178
364,48,748,0,24.95826666666628,8.06225774829855,67.1863081289633,7.0710678118654755,13.038404810405298,20.09975124224178,20.024984394500787,27.073972741361768,55.08175741568164,42.04759208325728,38.0,35.0,40.0,10.5,17.5,2.5,3.5,15.033296378372908,16.0,15.5,37.0,26.0,34.132096331752024
365,48,749,0,24.991633333332945,7.0710678118654755,68.18357573492314,7.0,12.041594578792296,20.09975124224178,21.095023109728988,28.071337695236398,54.147945482723536,42.1070065428546,38.5,36.0,41.0,10.5,15.5,1.5,3.5,14.035668847618199,15.0,14.5,35.0,25.0,33.06055050963308
366,48,750,0,25.02499999999961,6.0,66.18912297349165,7.0,11.180339887498949,18.110770276274835,19.1049731745428,28.0178514522438,52.08646657242167,41.012193308819754,38.0,35.0,40.0,9.5,14.5,1.5,2.5,14.035668847618199,16.0,15.5,34.0,25.0,35.05709628591621
367,48,751,0,25.05836666666628,4.123105625617661,72.24956747275377,6.082762530298219,10.198039027185569,20.09975124224178,20.223748416156685,29.0,49.040799340956916,39.0,37.0,35.0,41.0,9.0,11.0,1.0,3.0,15.033296378372908,15.0,15.0,35.0,25.0,34.23448553724738
368,48,752,0,25.091733333332943,3.0,70.25667228100119,7.0710678118654755,14.035668847618199,19.026297590440446,20.09975124224178,28.0,52.03844732503075,38.01315561749642,36.5,34.0,40.0,9.0,15.0,1.0,3.0,14.035668847618199,16.0,15.5,36.0,26.0,31.25699921617557
369,48,753,0,25.12509999999961,2.23606797749979,71.17583859709698,7.0,15.033296378372908,18.027756377319946,19.1049731745428,29.017236257093817,53.08483775994799,38.05259518088089,37.0,35.0,40.0,8.5,15.5,0.5,1.5,15.033296378372908,15.0,14.5,35.0,25.0,30.14962686336267
370,48,754,0,25.158466666666275,2.0,70.11419257183242,8.06225774829855,14.035668847618199,17.029386365926403,18.110770276274835,28.0178514522438,52.009614495783374,38.0,37.0,35.0,39.0,9.0,15.0,1.0,2.0,15.132745950421556,15.0,14.5,36.0,26.0,30.265491900843113
371,48,755,0,25.19183333333294,2.23606797749979,70.178344238091,7.0,14.035668847618199,17.029386365926403,18.110770276274835,29.0,52.03844732503075,38.01315561749642,37.0,35.0,40.0,8.5,14.5,1.5,2.5,15.132745950421556,17.029386365926403,16.5,36.0,27.0,35.05709628591621
372,48,756,0,25.225199999999607,4.123105625617661,67.1863081289633,7.0710678118654755,14.142135623730951,18.110770276274835,19.1049731745428,28.0178514522438,53.08483775994799,39.01281840626232,37.0,34.0,39.0,8.5,16.5,0.5,1.5,16.0312195418814,17.0,17.0,35.0,26.0,33.24154027718932
373,48,757,0,25.258566666666272,5.0990195135927845,67.1863081289633,7.0710678118654755,13.038404810405298,19.026297590440446,19.1049731745428,28.0,53.08483775994799,40.049968789001575,37.5,34.0,39.0,8.5,16.5,1.5,2.5,16.0312195418814,16.0,15.5,35.0,25.0,32.2490309931942
374,48,758,0,25.29193333333294,7.0,64.1248781675256,6.0,13.038404810405298,17.029386365926403,18.110770276274835,29.017236257093817,55.036351623268054,42.01190307520001,38.5,35.0,39.0,8.0,18.0,3.0,3.0,16.0312195418814,16.0312195418814,16.0,35.0,26.0,34.132096331752024
375,48,759,0,25.325299999999604,6.0,70.11419257183242,7.0710678118654755,13.038404810405298,18.027756377319946,20.024984394500787,28.0,54.037024344425184,41.012193308819754,38.0,35.0,39.0,9.0,17.0,2.0,3.0,16.0312195418814,17.029386365926403,16.5,36.0,28.0,38.2099463490856
376,48,760,0,25.35866666666627,4.0,71.17583859709698,6.082762530298219,11.045361017187261,21.095023109728988,20.09975124224178,29.0,50.039984012787215,39.01281840626232,37.0,34.0,39.0,7.5,13.5,0.5,1.5,16.0312195418814,16.0312195418814,16.0,36.0,26.0,33.24154027718932
377,48,761,0,25.392033333332936,4.0,69.18092222571191,7.0710678118654755,12.041594578792296,19.1049731745428,19.1049731745428,27.0,50.039984012787215,38.01315561749642,36.0,33.0,38.0,8.5,14.5,0.5,1.5,14.035668847618199,15.0,14.0,35.0,27.0,37.21558813185679
378,48,762,0,25.4253999999996,4.123105625617661,69.26037828369117,7.0710678118654755,11.180339887498949,19.1049731745428,19.1049731745428,27.0,49.040799340956916,38.0,36.0,32.0,38.0,8.0,14.0,1.0,1.0,14.035668847618199,15.0,14.5,35.0,25.0,36.345563690772494
379,48,763,0,25.458766666666268,4.0,70.25667228100119,6.0,11.045361017187261,20.09975124224178,20.09975124224178,28.0,49.01020301937138,38.0,36.0,32.0,38.0,7.0,14.0,0.0,1.0,15.033296378372908,16.0312195418814,16.0,35.0,26.0,34.132096331752024
380,48,764,0,25.492133333332934,3.1622776601683795,71.17583859709698,6.0,10.04987562112089,20.09975124224178,20.223748416156685,29.0,48.041648597857254,38.01315561749642,36.5,33.0,38.0,6.5,12.5,0.5,1.5,16.1245154965971,17.0,16.5,34.0,26.0,32.14031735997639
381,48,765,0,25.5254999999996,4.0,70.25667228100119,6.0,11.045361017187261,20.09975124224178,19.235384061671343,29.068883707497267,50.08991914547278,39.05124837953327,37.0,33.0,39.0,7.0,14.0,0.0,1.0,15.033296378372908,16.0312195418814,16.0,36.0,26.0,35.22782990761707
382,48,766,0,25.558866666666265,4.0,69.26037828369117,7.0,12.041594578792296,20.09975124224178,20.223748416156685,28.0,51.0098029794274,39.0,37.0,33.0,39.0,8.0,15.0,0.0,1.0,16.0312195418814,16.0312195418814,16.0,35.0,28.0,37.12142238654117
383,48,767,0,25.59223333333293,4.0,73.24616030891995,7.0,13.038404810405298,20.09975124224178,20.09975124224178,27.0,51.0098029794274,38.0,36.0,33.0,39.0,9.0,15.0,1.0,2.0,15.033296378372908,15.033296378372908,15.0,35.0,26.0,34.36568055487916
384,48,768,0,25.6255999999996,4.0,68.26419266350405,7.0,11.045361017187261,19.1049731745428,20.09975124224178,28.0178514522438,50.039984012787215,39.01281840626232,37.0,32.0,38.0,7.0,15.0,1.0,0.0,15.033296378372908,16.0312195418814,16.0,35.0,26.0,35.22782990761707
385,48,769,0,25.658966666666263,5.0990195135927845,69.18092222571191,6.082762530298219,11.045361017187261,19.1049731745428,20.09975124224178,28.0,50.00999900019995,39.0,36.5,33.0,38.0,7.5,14.5,0.5,1.5,15.033296378372908,16.0,15.5,35.0,25.0,32.14031735997639
386,48,770,0,25.69233333333293,4.0,70.25667228100119,6.0,11.045361017187261,20.09975124224178,20.09975124224178,29.017236257093817,50.039984012787215,39.01281840626232,37.0,33.0,39.0,7.0,14.0,1.0,1.0,16.0312195418814,17.0,16.5,35.0,27.0,35.12833614050059
387,48,771,0,25.725699999999595,4.0,70.25667228100119,7.0,12.041594578792296,19.026297590440446,19.1049731745428,28.0178514522438,51.03920062069938,39.01281840626232,37.0,33.0,39.0,8.0,15.0,1.0,2.0,16.0312195418814,17.0,16.5,35.0,28.0,34.23448553724738
388,48,772,0,25.75906666666626,4.0,70.11419257183242,7.0,12.041594578792296,19.1049731745428,19.026297590440446,28.0,51.0098029794274,39.0,37.0,34.0,38.0,8.0,15.0,1.0,1.0,16.0312195418814,17.0,16.0,35.0,27.0,32.14031735997639
389,48,773,0,25.792433333332927,4.123105625617661,67.1863081289633,7.0,12.041594578792296,19.026297590440446,19.026297590440446,27.018512172212592,50.00999900019995,38.0,36.0,32.0,37.0,7.5,15.5,1.5,1.5,16.0312195418814,18.027756377319946,17.0,35.0,28.0,33.13608305156178
390,48,774,0,25.825799999999592,5.0,69.18092222571191,6.0,11.045361017187261,19.1049731745428,20.223748416156685,28.0178514522438,50.039984012787215,39.01281840626232,36.5,33.0,38.0,7.5,14.5,1.5,1.5,16.0312195418814,16.0,16.0,35.0,28.0,35.12833614050059
391,48,775,0,25.85916666666626,4.0,67.1863081289633,7.0,12.041594578792296,18.110770276274835,18.110770276274835,28.0,51.0098029794274,39.0,37.0,33.0,38.0,7.5,15.5,1.5,0.5,16.0312195418814,17.029386365926403,16.5,35.0,26.0,34.132096331752024
392,48,776,0,25.892533333332924,4.0,69.18092222571191,7.0,11.045361017187261,19.026297590440446,19.1049731745428,28.0,50.00999900019995,39.0,37.0,34.0,39.0,8.5,13.5,0.5,2.5,15.033296378372908,16.0312195418814,15.5,35.0,27.0,35.22782990761707
393,48,777,0,25.92589999999959,4.0,70.178344238091,7.0,11.045361017187261,20.024984394500787,19.1049731745428,28.0178514522438,50.039984012787215,39.01281840626232,37.0,33.0,38.0,7.5,14.5,0.5,1.5,16.1245154965971,17.029386365926403,16.5,37.0,28.0,35.12833614050059
394,48,778,0,25.959266666666256,4.0,70.25667228100119,7.0,13.038404810405298,19.1049731745428,19.235384061671343,27.018512172212592,51.03920062069938,38.01315561749642,36.0,32.0,38.0,8.0,16.0,1.0,1.0,15.033296378372908,16.0,15.5,35.0,27.0,36.124783736376884
395,48,779,0,25.99263333333292,4.123105625617661,70.25667228100119,7.0,12.041594578792296,19.1049731745428,20.09975124224178,28.0178514522438,51.0098029794274,39.0,37.0,32.0,38.0,7.0,16.0,2.0,0.0,16.1245154965971,16.0,16.0,35.0,28.0,37.12142238654117
396,48,780,0,26.025999999999588,4.0,70.25667228100119,7.0,12.165525060596439,19.026297590440446,19.1049731745428,27.0,50.039984012787215,38.0,36.0,32.0,38.0,8.0,15.0,0.0,2.0,14.035668847618199,15.0,14.5,35.0,25.0,37.12142238654117
397,48,781,0,26.059366666666254,5.0,68.26419266350405,7.0,12.041594578792296,19.1049731745428,19.1049731745428,27.0,51.0098029794274,39.0,36.5,31.0,37.0,7.0,17.0,2.0,0.0,16.0312195418814,16.0312195418814,16.0,35.0,27.0,33.13608305156178
398,48,782,0,26.09273333333292,4.0,68.26419266350405,7.0,12.041594578792296,19.1049731745428,19.026297590440446,27.018512172212592,50.039984012787215,38.01315561749642,36.0,30.0,36.0,6.0,17.0,3.0,1.0,15.033296378372908,16.0312195418814,15.5,35.0,27.0,35.05709628591621
399,48,783,0,26.126099999999585,4.0,71.25307010929424,8.0,11.045361017187261,18.110770276274835,18.110770276274835,27.018512172212592,50.039984012787215,39.01281840626232,37.0,30.0,36.0,6.0,17.0,3.0,1.0,16.0312195418814,15.033296378372908,15.0,34.0,26.0,34.132096331752024
400,48,784,0,26.15946666666625,5.0990195135927845,73.24616030891995,7.0,10.04987562112089,20.09975124224178,19.1049731745428,27.0,49.040799340956916,39.01281840626232,36.5,31.0,37.0,7.0,15.0,2.0,0.0,14.142135623730951,16.0,15.5,35.0,25.0,35.22782990761707
401,48,785,0,26.19283333333292,5.0,71.25307010929424,7.0,10.198039027185569,19.1049731745428,19.1049731745428,27.0,49.040799340956916,39.0,36.5,30.0,36.0,6.0,16.0,3.0,1.0,15.033296378372908,16.0312195418814,15.5,36.0,27.0,34.132096331752024
402,48,786,0,26.226199999999583,6.0,74.24284477308234,6.0,11.045361017187261,20.024984394500787,21.095023109728988,27.0,50.00999900019995,39.0,36.0,30.0,36.0,6.0,17.0,4.0,0.0,15.132745950421556,16.0,15.5,35.0,27.0,36.124783736376884
403,48,787,0,26.25956666666625,7.0710678118654755,73.24616030891995,5.0,9.219544457292887,19.1049731745428,20.09975124224178,28.0178514522438,49.040799340956916,40.0,36.5,30.0,36.0,5.0,16.0,4.0,0.0,14.035668847618199,16.0312195418814,16.0,36.0,27.0,36.124783736376884
404,48,788,0,26.292933333332915,7.0,73.17103251970687,6.0,10.0,21.095023109728988,21.095023109728988,27.018512172212592,50.00999900019995,40.01249804748511,36.5,30.0,35.0,5.5,17.5,4.5,0.5,15.033296378372908,16.0312195418814,16.0,36.0,27.0,38.118237105091836
405,48,789,0,26.32629999999958,5.0,76.16429609731846,7.0,11.045361017187261,22.02271554554524,21.095023109728988,27.0,50.00999900019995,39.0,36.5,30.0,35.0,5.5,17.5,4.5,0.5,11.045361017187261,12.0,11.5,35.0,26.0,34.132096331752024
406,48,790,0,26.359666666666246,5.0,76.10519036176179,6.0,12.041594578792296,21.02379604162864,21.095023109728988,27.018512172212592,50.039984012787215,38.01315561749642,35.5,30.0,34.0,5.0,18.0,4.0,1.0,7.0,8.06225774829855,8.0,36.0,27.0,35.05709628591621
407,48,791,0,26.393033333332912,5.0,78.05767098754612,7.0,12.041594578792296,21.02379604162864,22.02271554554524,25.019992006393608,49.0,37.013511046643494,34.5,29.0,32.0,5.5,18.5,4.5,1.5,9.0,10.0,10.0,34.0,27.0,33.015148038438355
408,48,792,0,26.42639999999958,6.082762530298219,78.02563681252464,6.082762530298219,12.0,22.02271554554524,22.02271554554524,26.076809620810597,50.039984012787215,38.05259518088089,35.0,29.0,31.0,4.0,20.0,6.0,1.0,12.0,12.041594578792296,12.0,35.0,28.0,35.014282800023196
409,48,793,0,26.459766666666244,5.0,78.0,6.0,13.0,21.0,21.0,26.1725046566048,50.08991914547278,37.12142238654117,34.5,30.0,30.0,4.0,20.0,6.0,1.0,14.0,14.035668847618199,13.5,33.0,29.0,35.0
410,48,794,0,26.49313333333291,4.0,77.00649323271382,6.082762530298219,12.0,21.0,21.0,27.073972741361768,49.09175083453431,37.12142238654117,35.0,31.0,30.0,3.5,18.5,5.5,0.5,12.0,12.041594578792296,12.0,30.0,30.0,34.0
411,48,795,0,26.526499999999576,4.0,75.1065909225016,6.082762530298219,13.038404810405298,21.02379604162864,22.02271554554524,27.16615541441225,50.24937810560445,37.21558813185679,35.0,34.0,30.0,5.0,18.0,5.0,0.0,13.038404810405298,13.152946437965905,13.0,29.0,32.0,33.06055050963308
412,48,796,0,26.55986666666624,5.0,74.16872656315464,6.082762530298219,14.035668847618199,21.02379604162864,22.02271554554524,28.160255680657446,53.23532661682466,39.20459156782532,36.5,36.0,31.0,5.5,19.5,4.5,1.5,12.041594578792296,12.165525060596439,12.0,28.0,34.0,33.06055050963308
413,48,797,0,26.593233333332908,6.0,67.26812023536856,6.082762530298219,15.132745950421556,17.029386365926403,18.0,28.160255680657446,55.326304774492215,40.19950248448356,37.0,38.0,32.0,7.0,20.0,4.0,3.0,13.038404810405298,14.142135623730951,13.5,27.0,35.0,30.14962686336267
414,48,798,0,26.626599999999573,5.0990195135927845,67.26812023536856,6.082762530298219,16.0312195418814,18.027756377319946,19.026297590440446,30.265491900843113,57.42821606144492,41.43669871020132,38.5,40.0,34.0,7.0,20.0,3.0,3.0,12.041594578792296,13.038404810405298,12.5,25.0,36.0,31.144823004794873
415,48,799,0,26.65996666666624,4.0,66.48308055437865,7.280109889280518,16.1245154965971,18.110770276274835,19.1049731745428,29.274562336608895,56.568542494923804,40.44749683231337,38.0,40.0,32.0,7.0,20.0,2.0,2.0,13.152946437965905,13.341664064126334,12.0,27.0,39.0,30.4138126514911
416,48,800,0,26.693333333332905,2.0,66.48308055437865,8.246211251235321,15.297058540778355,17.11724276862369,19.1049731745428,29.274562336608895,54.74486277268398,39.45883931389772,38.0,39.0,31.0,6.0,19.0,3.0,1.0,13.152946437965905,13.152946437965905,12.5,25.0,39.0,29.427877939124322
417,48,801,0,26.72669999999957,1.4142135623730951,67.47592163134935,8.06225774829855,17.26267650163207,17.029386365926403,19.1049731745428,29.427877939124322,55.90169943749474,38.63935817272331,37.5,39.0,31.0,6.0,20.0,3.0,0.0,13.038404810405298,14.317821063276353,13.5,24.0,39.0,31.400636936215164
418,48,802,0,26.76006666666624,2.23606797749979,68.46897107449476,7.280109889280518,16.278820596099706,21.095023109728988,22.090722034374522,28.635642126552707,54.3415126767741,38.07886552931954,36.0,39.0,31.0,7.0,18.0,2.0,2.0,13.038404810405298,14.317821063276353,13.5,24.0,40.0,30.805843601498726
419,48,803,0,26.793433333332903,2.23606797749979,68.59300255857006,8.246211251235321,15.297058540778355,20.09975124224178,21.02379604162864,28.442925306655784,54.12947441089743,38.8329756778952,37.0,39.0,30.0,6.5,18.5,2.5,1.5,13.152946437965905,13.341664064126334,13.0,24.0,41.0,30.59411708155671
420,48,804,0,26.82679999999957,3.605551275463989,68.46897107449476,6.324555320336759,15.132745950421556,20.09975124224178,20.024984394500787,28.635642126552707,53.36665625650534,38.3275357934736,35.5,37.0,29.0,5.0,19.0,4.0,1.0,12.165525060596439,14.317821063276353,13.5,24.0,42.0,28.861739379323623
421,48,805,0,26.860166666666235,3.605551275463989,67.47592163134935,7.0710678118654755,15.132745950421556,19.1049731745428,21.095023109728988,26.68332812825267,52.172789842982326,37.107950630558946,34.5,36.0,28.0,6.0,19.0,3.0,1.0,9.219544457292887,9.219544457292887,9.0,24.0,41.0,28.861739379323623
422,48,806,0,26.8935333333329,3.1622776601683795,67.47592163134935,6.082762530298219,14.317821063276353,20.024984394500787,21.095023109728988,27.65863337187866,51.19570294468082,36.87817782917155,34.5,36.0,28.0,5.0,18.0,3.0,1.0,7.615773105863909,8.246211251235321,7.5,24.0,41.0,29.614185789921695
423,48,807,0,26.926899999999566,3.1622776601683795,66.37017402418047,7.280109889280518,14.142135623730951,20.024984394500787,20.024984394500787,26.476404589747453,50.99019513592785,36.87817782917155,34.5,35.0,28.0,5.5,18.5,3.5,0.5,8.246211251235321,9.219544457292887,9.0,25.0,41.0,29.614185789921695
424,48,808,0,26.960266666666232,4.123105625617661,62.20128616033595,7.280109889280518,16.1245154965971,17.0,19.0,26.68332812825267,54.12947441089743,38.07886552931954,35.0,35.0,30.0,6.5,20.5,2.5,0.5,11.045361017187261,11.045361017187261,11.0,28.0,43.0,30.59411708155671
425,48,809,0,26.99363333333289,6.082762530298219,61.1310068623117,7.280109889280518,15.297058540778355,16.0312195418814,18.0,26.68332812825267,55.31726674375732,40.024992192379,36.0,35.0,31.0,7.0,21.0,4.0,1.0,11.045361017187261,12.165525060596439,11.5,28.0,42.0,26.68332812825267
426,48,810,0,27.026999999999564,4.123105625617661,60.207972893961475,7.280109889280518,13.152946437965905,16.0312195418814,17.0,28.160255680657446,52.630789467763066,39.56008088970496,36.0,36.0,31.0,6.5,17.5,2.5,1.5,12.041594578792296,13.152946437965905,12.0,30.0,44.0,23.769728648009426
427,48,811,0,27.06036666666623,4.47213595499958,65.12296062065974,7.280109889280518,12.165525060596439,18.027756377319946,19.0,26.68332812825267,50.44799302251776,38.3275357934736,35.0,33.0,29.0,5.0,18.0,4.0,0.0,12.041594578792296,12.36931687685298,12.0,28.0,42.0,29.614185789921695
428,48,812,0,27.093733333332896,3.605551275463989,68.26419266350405,6.082762530298219,11.180339887498949,19.026297590440446,20.0,26.92582403567252,47.53945729601885,36.40054944640259,33.5,33.0,27.0,4.0,16.0,3.0,0.0,12.041594578792296,13.341664064126334,12.0,28.0,42.0,26.92582403567252
429,48,813,0,27.12709999999956,1.4142135623730951,69.1158447825099,7.0710678118654755,11.180339887498949,18.027756377319946,19.0,27.202941017470888,46.57252408878007,35.4400902933387,33.5,31.0,27.0,3.0,16.0,4.0,2.0,12.165525060596439,13.152946437965905,12.0,28.0,40.0,29.614185789921695
430,48,814,0,27.160466666666228,1.0,69.18092222571191,6.082762530298219,11.180339887498949,18.0,20.024984394500787,27.202941017470888,45.35416188179427,34.20526275297414,32.5,31.0,26.0,2.5,15.5,2.5,2.5,12.041594578792296,12.165525060596439,12.0,27.0,42.0,29.614185789921695
431,48,815,0,27.193833333332893,2.0,69.18092222571191,7.0710678118654755,11.180339887498949,19.026297590440446,20.024984394500787,26.248809496813376,46.32493928760188,35.17101079013795,33.0,31.0,26.0,3.5,16.5,3.5,1.5,12.165525060596439,14.317821063276353,13.0,29.0,44.0,30.805843601498726
432,48,816,0,27.22719999999956,6.082762530298219,68.11754546370561,7.0710678118654755,11.045361017187261,19.026297590440446,20.0,25.632011235952593,49.47726750741192,38.600518131237564,34.0,31.0,27.0,5.0,19.0,5.0,0.0,13.038404810405298,14.142135623730951,13.5,29.0,43.0,29.614185789921695
433,48,817,0,27.260566666666225,7.0710678118654755,68.06614430096654,6.082762530298219,11.180339887498949,20.024984394500787,20.0,26.248809496813376,50.44799302251776,39.293765408777,34.5,30.0,27.0,3.5,20.5,7.5,0.5,13.038404810405298,13.152946437965905,13.0,28.0,42.0,28.635642126552707
434,48,818,0,27.29393333333289,2.0,64.07027391856539,6.082762530298219,9.219544457292887,17.029386365926403,18.0,27.892651361962706,45.12205669071391,35.90264614203248,34.0,33.0,30.0,4.5,12.5,1.5,0.5,14.035668847618199,13.152946437965905,12.5,28.0,40.0,28.635642126552707
435,48,819,0,27.32729999999956,1.4142135623730951,60.13318551349163,6.324555320336759,11.40175425099138,15.0,16.0,27.294688127912362,45.70557952810576,34.36568055487916,33.5,34.0,30.0,5.0,13.0,1.0,0.0,13.038404810405298,13.152946437965905,13.0,29.0,41.0,29.614185789921695
436,48,820,0,27.360666666666223,2.23606797749979,60.07495318350236,6.082762530298219,12.041594578792296,18.0,19.026297590440446,28.284271247461902,47.67598976424087,35.6931365951495,34.5,34.0,31.0,4.5,14.5,0.5,0.5,12.0,13.152946437965905,13.0,28.0,39.0,29.427877939124322
437,48,821,0,27.39403333333289,2.23606797749979,59.00847396772772,5.385164807134504,13.152946437965905,16.0,19.026297590440446,29.154759474226502,49.64876634922564,36.49657518178932,35.0,34.0,33.0,4.5,15.5,0.5,0.5,13.0,13.152946437965905,13.0,29.0,40.0,30.265491900843113
438,48,822,0,27.427399999999555,3.1622776601683795,57.0,7.0710678118654755,15.132745950421556,16.0312195418814,17.029386365926403,27.459060435491963,52.773099207835045,37.656340767525464,35.5,34.0,34.0,7.0,18.0,0.0,1.0,12.041594578792296,13.038404810405298,12.5,30.0,39.0,29.154759474226502
439,48,823,0,27.46076666666622,3.1622776601683795,56.0357029044876,6.324555320336759,14.142135623730951,16.0312195418814,17.11724276862369,28.284271247461902,51.78802950489621,37.656340767525464,35.5,34.0,36.0,7.0,16.0,1.0,1.0,12.0,12.041594578792296,12.0,29.0,37.0,26.1725046566048
440,48,824,0,27.494133333332886,2.23606797749979,59.033888572581766,6.082762530298219,15.033296378372908,17.029386365926403,18.110770276274835,28.284271247461902,51.478150704935004,36.49657518178932,35.0,34.0,36.0,7.0,16.0,1.0,2.0,13.0,13.038404810405298,12.5,31.0,39.0,27.16615541441225
441,48,825,0,27.527499999999552,2.8284271247461903,61.032778078668514,6.082762530298219,16.0312195418814,16.0312195418814,18.110770276274835,28.284271247461902,52.61178575186362,36.6742416417845,35.0,34.0,36.0,7.0,17.0,1.0,1.0,12.0,13.038404810405298,12.5,32.0,39.0,25.179356624028344
442,48,826,0,27.56086666666621,2.0,63.00793600809346,7.0710678118654755,14.035668847618199,17.029386365926403,18.027756377319946,26.476404589747453,49.49747468305833,35.510561809129406,34.0,34.0,35.0,8.5,14.5,1.5,1.5,11.0,12.041594578792296,12.0,30.0,39.0,26.1725046566048
443,48,827,0,27.594233333332884,4.0,62.0,7.0,11.045361017187261,16.0,17.0,25.709920264364882,47.51841748206689,36.49657518178932,34.0,34.0,34.0,9.0,13.0,0.0,3.0,14.0,14.142135623730951,13.5,31.0,40.0,27.294688127912362
444,48,828,0,27.62759999999955,2.0,62.0,7.0710678118654755,11.045361017187261,18.0,18.027756377319946,26.476404589747453,46.52956049652737,35.510561809129406,34.0,33.0,33.0,7.0,13.0,0.0,2.0,12.0,13.038404810405298,13.0,31.0,38.0,28.284271247461902
445,48,829,0,27.660966666666216,3.1622776601683795,68.0,6.0,11.0,19.0,19.0,25.709920264364882,45.5411901469428,34.713109915419565,32.5,32.0,32.0,7.0,13.0,0.0,2.0,14.0,14.035668847618199,14.0,30.0,39.0,32.2490309931942
446,48,830,0,27.69433333333288,2.0,67.00746227100382,6.0,11.045361017187261,18.027756377319946,19.0,25.709920264364882,44.553338819890925,33.54101966249684,32.0,32.0,31.0,6.5,12.5,0.5,1.5,14.035668847618199,15.132745950421556,14.5,31.0,41.0,30.4138126514911
447,48,831,0,27.727699999999547,1.4142135623730951,71.06335201775947,6.0,11.045361017187261,20.0,20.024984394500787,25.709920264364882,43.73785545725808,32.7566787083184,31.5,32.0,29.0,5.5,12.5,0.5,0.5,12.041594578792296,14.035668847618199,13.5,29.0,40.0,33.37663853655727
448,48,832,0,27.761066666666213,3.0,70.0,6.082762530298219,11.045361017187261,21.02379604162864,21.02379604162864,24.73863375370596,44.721359549995796,33.734255586866,31.5,29.0,29.0,5.0,15.0,2.0,1.0,13.0,14.035668847618199,14.0,30.0,41.0,30.265491900843113
449,48,833,0,27.79443333333288,1.0,72.11102550927978,6.082762530298219,12.041594578792296,21.02379604162864,20.0,25.709920264364882,42.7551166528639,30.805843601498726,30.5,33.0,29.0,6.0,11.0,2.0,2.0,13.0,13.152946437965905,13.0,29.0,40.0,36.22154055254967
450,48,834,0,27.827799999999545,2.23606797749979,70.11419257183242,6.082762530298219,12.041594578792296,21.02379604162864,21.02379604162864,26.476404589747453,46.69047011971501,34.713109915419565,33.0,34.0,30.0,6.0,14.0,1.0,2.0,13.0,14.142135623730951,14.5,27.0,41.0,32.38826948140329
451,48,835,0,27.86116666666621,2.23606797749979,69.06518659932803,6.082762530298219,12.041594578792296,20.024984394500787,21.02379604162864,26.476404589747453,46.69047011971501,34.713109915419565,33.0,33.0,30.0,5.5,14.5,1.5,1.5,13.038404810405298,14.035668847618199,14.0,26.0,40.0,33.37663853655727
452,48,836,0,27.89453333333288,2.0,71.11258679024411,7.0710678118654755,12.041594578792296,20.024984394500787,19.026297590440446,26.68332812825267,47.67598976424087,35.6931365951495,34.0,35.0,31.0,7.0,14.0,1.0,2.0,12.041594578792296,13.038404810405298,13.0,26.0,38.0,29.614185789921695
453,48,837,0,27.927899999999543,4.0,68.18357573492314,5.0990195135927845,12.165525060596439,19.026297590440446,20.09975124224178,28.635642126552707,49.8196748283246,37.656340767525464,35.0,37.0,32.0,6.5,14.5,2.5,2.5,7.280109889280518,8.06225774829855,8.0,25.0,40.0,32.55764119219941
454,48,838,0,27.96126666666621,4.0,72.11102550927978,7.0710678118654755,11.045361017187261,20.024984394500787,19.026297590440446,26.68332812825267,48.662100242385755,37.656340767525464,35.0,37.0,33.0,9.0,13.0,1.0,4.0,7.280109889280518,9.219544457292887,8.0,26.0,41.0,27.892651361962706
455,48,839,0,27.994633333332875,4.0,67.1863081289633,7.0710678118654755,11.045361017187261,18.027756377319946,19.1049731745428,27.65863337187866,49.64876634922564,38.63935817272331,36.0,38.0,33.0,8.5,13.5,1.5,3.5,7.0710678118654755,9.219544457292887,8.5,26.0,40.0,30.805843601498726
456,48,840,0,28.02799999999954,4.123105625617661,70.25667228100119,7.0710678118654755,11.045361017187261,19.1049731745428,19.1049731745428,28.635642126552707,50.80354318352215,39.81205847478876,37.0,39.0,33.0,8.0,14.0,2.0,3.0,9.219544457292887,11.180339887498949,10.0,26.0,40.0,29.832867780352597
457,48,841,0,28.061366666666206,5.0990195135927845,72.11102550927978,8.06225774829855,12.165525060596439,21.02379604162864,21.02379604162864,28.442925306655784,53.75872022286245,41.593268686170845,38.5,40.0,36.0,10.0,15.0,2.0,4.0,12.041594578792296,13.152946437965905,12.0,26.0,41.0,31.78049716414141
458,48,842,0,28.094733333332872,8.06225774829855,72.17340230306452,7.0710678118654755,10.04987562112089,19.1049731745428,20.024984394500787,27.65863337187866,52.773099207835045,42.7551166528639,38.0,39.0,34.0,9.5,15.5,4.5,4.5,12.041594578792296,14.317821063276353,13.5,27.0,42.0,33.24154027718932
459,48,843,0,28.12809999999953,7.0710678118654755,72.3394774656273,7.280109889280518,12.165525060596439,20.024984394500787,20.09975124224178,28.442925306655784,54.91812087098393,42.7551166528639,38.5,41.0,34.0,9.5,16.5,3.5,3.5,12.041594578792296,12.36931687685298,12.0,25.0,42.0,35.90264614203248
460,48,844,0,28.161466666666204,7.280109889280518,69.35416353759881,7.0710678118654755,12.041594578792296,19.1049731745428,19.1049731745428,28.442925306655784,54.74486277268398,42.7551166528639,38.5,41.0,34.0,9.5,16.5,4.5,4.5,12.041594578792296,13.152946437965905,12.5,25.0,43.0,30.083217912982647
461,48,845,0,28.19483333333287,7.0710678118654755,70.45565981523414,8.246211251235321,11.180339887498949,20.09975124224178,20.09975124224178,27.65863337187866,54.12947441089743,42.95346318982906,38.5,42.0,34.0,11.0,15.0,4.0,5.0,13.038404810405298,13.341664064126334,13.0,25.0,43.0,31.622776601683793
462,48,846,0,28.228199999999536,7.0710678118654755,71.56814934033156,7.280109889280518,11.180339887498949,20.223748416156685,20.09975124224178,28.635642126552707,54.12947441089743,42.95346318982906,38.5,42.0,33.0,9.5,15.5,4.5,5.5,14.142135623730951,14.142135623730951,13.5,25.0,43.0,29.832867780352597
463,48,847,0,28.2615666666662,8.06225774829855,70.71067811865476,6.324555320336759,10.198039027185569,20.223748416156685,21.213203435596427,29.614185789921695,54.12947441089743,43.93176527297759,39.0,44.0,34.0,10.0,14.0,3.0,6.0,12.041594578792296,13.152946437965905,12.5,24.0,44.0,34.48187929913333
464,48,848,0,28.294933333332867,9.055385138137417,68.73136110975832,7.280109889280518,11.180339887498949,18.110770276274835,20.223748416156685,28.442925306655784,55.90169943749474,44.721359549995796,39.5,43.0,33.0,10.0,17.0,5.0,5.0,12.041594578792296,13.341664064126334,12.5,22.0,44.0,40.26164427839479
465,48,849,0,28.328299999999533,10.0,69.87131027825369,7.280109889280518,10.44030650891055,19.1049731745428,20.09975124224178,28.635642126552707,56.089214649520635,45.70557952810576,40.0,44.0,33.0,10.5,16.5,6.5,5.5,12.165525060596439,13.341664064126334,12.0,24.0,45.0,32.57299494980466
466,48,850,0,28.3616666666662,12.041594578792296,70.71067811865476,6.324555320336759,12.36931687685298,19.235384061671343,21.095023109728988,28.442925306655784,59.033888572581766,46.69047011971501,40.0,45.0,35.0,12.0,18.0,6.0,8.0,12.165525060596439,12.36931687685298,12.0,24.0,46.0,30.364452901377952
