,video_id,frame_seq,gap,time_seconds,m1,m3,m4,m5,m6,m7,m8,m9,m10,m11,m12,m13,m14,m15,m16,m17,e1,e2,e3,b1,b2,b3,label_measures
0,93,0,0,0.0,40.02237169566893,201.8989993438456,16.952286363663692,34.07782154431314,55.59238190806047,60.170732490688,26.09139418203188,117.0068176274243,83.00634668087552,62.92630361548879,38.369697326517496,19.952242609789096,3.0695757861213906,87.48290990446003,52.18278836406387,7.673939465303533,16.952286363663625,17.499274384074955,16.882666823667705,61.39151572242804,69.06545518773154,67.54810581459871,{}
1,93,1,0,0.04,37.26668413989098,203.5600540384084,17.091755479109754,34.35818512036158,55.90002620983642,60.66576653247992,26.35152506765406,115.01987647548484,80.70328403402239,61.89659333910015,37.13795600346009,18.568978001730045,1.5474148334775464,86.6552306747401,51.06468950475755,9.284489000864994,18.568978001730045,17.30062378523611,17.021563168252555,61.89659333910012,71.18108233996514,69.65085888250715,{}
2,93,2,0,0.08,41.72330522859445,202.72743217427296,15.48771700611332,32.509232997299975,55.820488805291085,60.417625295447536,27.91024440264553,117.61824163128448,85.10922528485611,63.9550458120014,38.527136031326165,20.03411073628962,1.541085441253074,87.84187015142368,53.93799044385662,7.705427206265199,18.557126094848403,16.089404363101433,15.410854412530512,61.64341765012185,70.88993029764012,66.28459114981307,{}
3,93,3,0,0.12,41.7233052285944,204.2621406836546,17.02184505697124,32.50923299729997,55.67137828454532,61.95086802445336,26.243739402002312,117.48692049777743,84.98356152546921,63.95504581200146,38.527136031326165,20.03411073628962,3.082170882506091,87.84187015142368,52.3969050026036,7.705427206265256,18.557126094848403,17.571077480947842,16.18139713315702,63.18450309137489,70.88993029764012,67.87777260819378,{}
4,93,4,0,0.16,43.42734474662485,202.86750337342576,16.963652519000107,34.06721204408623,55.70984351162952,63.52835411831268,26.26187208394313,120.64307378496838,86.58043971009107,64.77030961800057,40.09590595400033,21.590103206000208,4.626450686999988,89.44471328200075,53.97525801500046,6.168600916000059,18.50580274800018,17.241763717804467,16.963652519000107,64.77030961800051,70.93891053400057,67.87213224803604,{}
5,93,5,0,0.2,49.39198935928,205.8858717600732,17.24843086842496,34.08038536194604,55.88065697958522,62.01764405427208,26.2266914703626,126.74017426961994,92.68042719059964,67.88084851152678,41.654157041164126,24.68394491328246,6.942359506860669,93.33616670334936,57.85299589050578,3.8568663927003968,18.57712857818687,17.248430868424926,16.97021212788161,63.25260884028634,67.8808485115268,69.49212775564905,{}
6,93,6,0,0.24,52.28354054953604,203.47681560526425,16.977675379441777,33.95535075888355,55.52691763305776,61.79011283874029,26.130470611272813,129.26157284780496,95.34893394930371,69.16889279454574,41.50133567672742,26.130470611272813,7.685432532727304,95.29936340581855,59.94637375527293,3.074173013090899,16.90795157200006,17.185149579666597,16.139408318727362,64.55763327490928,69.16889279454566,67.70163780509306,{}
7,93,7,0,0.28,59.97537653279977,201.8642801297919,16.980308345017626,32.42990395615776,54.1566195279963,61.66570188341339,24.645192723373658,133.82675809300585,101.4750880794816,71.48560710824017,43.0450967533489,29.20917279691531,11.529936630361306,97.62013013705922,62.261657803951096,0.7686624420240946,18.4478986085781,16.980308345017615,16.910573724529968,67.64229489811973,69.17961978216789,69.33318183523201,{}
8,93,8,0,0.32,63.28226832259952,201.0306667296913,17.048182917307948,32.44959761624267,52.68186532874987,60.37315841785901,24.695519345404705,137.40350669926994,104.96730564825864,73.3148230566702,43.217158854458205,30.869399181755853,12.347759672702296,100.32554734070663,64.82573828168734,1.5434699590877583,18.52163950905356,17.048182917307948,16.978169549965685,72.5430880771263,70.99961811803851,69.73000293497634,{}
9,93,9,0,0.36,63.820130448460944,205.7854970432876,17.18797079832456,32.71567057619509,53.11383431676641,60.86819275239492,24.89801214693341,138.57385074632154,105.86231013541628,73.91597356120855,43.5715212571335,31.122515183666792,12.449006073466704,101.14817434691702,66.91340764488359,0.0,18.673509110200087,18.9310869207846,17.8954462306084,71.5817849224336,70.02565916325025,67.20229579935993,{}
10,93,10,0,0.3999999999999999,66.65265706993834,200.1200336202165,17.046070800840084,34.127342583284154,54.4363731787894,62.06314577715973,26.343927601298333,144.15010220648597,110.03555124173052,76.70731860378044,46.48928400229119,37.19142720183294,15.496428000763729,102.27642480504056,66.63464040328398,3.099285600152712,18.595713600916497,17.325533209069427,17.046070800840084,71.28356880351316,69.7339260034368,71.5525643585919,{}
11,93,11,0,0.4399999999999999,63.28226832259946,199.4005488928805,18.58583949188031,35.63377107864469,55.75751847564101,63.4514474199363,26.238989304492463,143.61737080681723,108.0539213591358,76.40176297484567,47.84756873172154,37.043279018107,16.206434570421834,101.09728232025044,64.05400330214343,3.8586748977194816,18.52163950905356,17.048182917307937,16.978169549965685,70.99961811803848,69.4561481589507,71.26754215728926,{}
12,93,12,0,0.4799999999999999,69.6962461048835,197.2584185041228,17.102893135115366,34.20578627023084,55.936452852108026,63.65507278724849,24.823112094184083,145.75754170999005,111.5832041241628,76.64694787892034,49.54954206314045,34.06531016840904,17.03265508420452,103.7443536947004,66.58219714734503,4.645269568419394,18.64548428403604,17.31189754799488,17.032655084204578,68.13062033681817,69.67904352629131,66.74404472558734,{}
13,93,13,0,0.5199999999999999,67.85750870853451,199.37798856819305,17.02993600900155,35.59563175572451,57.23447579687148,63.38353444946925,26.21090534773208,146.60248616234057,111.05371325572402,77.09089808156506,49.338174772201626,35.46181311751991,16.189088597128716,104.0727124101128,67.06908133096158,3.854544904078296,18.501815539575603,15.72351974553171,16.18908859712866,67.83999031177731,70.9236262350399,69.45029970990241,{}
14,93,14,0,0.5599999999999999,68.08702386886951,198.62359759807947,17.087536539406923,35.71602723273396,54.34469062942668,62.18995164582803,26.345020440585515,147.1715387031647,111.4830141656538,77.35164343119993,49.50505179596792,34.03472310972796,15.47032868624001,105.19823506643183,66.52241335083193,3.094065737248002,18.56439442348796,17.29635328834884,17.01736155486401,68.0694462194559,69.6164790880799,68.22748203541465,{}
15,93,15,0,0.6,66.62622858375465,198.7187395109248,17.02551297468267,35.63243122865873,52.82876808630557,62.21974101139642,26.357639865814846,145.62241309974758,109.99000198207294,76.61480838607184,49.528765017258536,34.05102594936528,15.47773906789331,103.7008517548851,66.55427799194115,3.095547813578662,17.025512974682613,15.784258706697068,16.25162602128796,68.10205189873048,68.10205189873048,68.38288629388202,{}
16,93,16,0,0.64,65.07561309937411,197.21385433408625,17.109047376663366,35.66020605897499,52.86994714759382,60.588699256698426,26.332666261491227,144.1301054290705,108.4728733362922,75.9000380478277,48.01839141801344,34.07756810310627,14.715313499068657,103.00719449348048,64.28268528540502,2.3234705524845367,15.48980368323015,15.796562248502418,15.48980368323015,71.25309694285866,69.70411657453565,66.89371748082499,{}
17,93,17,0,0.68,68.44933536644498,196.2361180812516,18.73270785614817,32.70601968020858,51.4311979371174,60.85023705756151,23.386798760600264,143.1297920450702,110.45233661403626,76.22766893081376,45.11433467333876,35.78033439609629,17.112333841611246,102.67400304966748,66.89366865357124,3.111333425747489,17.112333841611246,18.73270785614817,18.66800055448499,70.00500207931873,66.89366865357124,67.34437897087155,{}
18,93,18,0,0.7200000000000001,67.18698740592112,198.7371823394694,17.18736887128216,34.41023051169134,51.65671606333799,59.559291077109705,26.56229734652697,145.3197915970363,110.93665362373024,77.34315992076966,46.87464237622408,35.93722582177179,14.843636752470957,103.90545726729653,67.96823144552485,2.343732118811204,17.18736887128216,15.70281085551915,15.624880792074691,71.8744516435435,67.18698740592109,67.47705669815514,{}
19,93,19,0,0.7600000000000001,69.01748507731764,197.8649358506829,15.685792063026724,36.11140519303992,53.42388269937277,59.688509546583056,25.14623762506822,145.87786618614854,109.81174800679368,75.29180190252833,45.4887969827775,36.077321744961466,15.685792063026724,105.09480682227904,67.44890587101492,3.137158412605345,15.685792063026724,15.764025925218446,14.901502459875474,72.15464348992299,67.44890587101497,66.17842921279045,{}
20,93,20,0,0.8000000000000002,67.43801777449278,197.8329950431624,17.25158594231209,36.105575825458494,54.98095540585393,62.9092290459396,26.707629312419755,147.42264350703073,111.36218962922798,77.63213674040452,47.04977984266941,37.63982387413552,15.683259947556508,105.07784164862824,65.86969177973708,3.136651989511336,14.114933952800811,14.20179590466486,14.114933952800811,73.71132175351536,69.00634376924845,69.29090721886172,{}
21,93,21,0,0.8400000000000002,67.12556116234555,197.19463556202345,17.242466430683514,35.93828997877525,53.28223534688589,61.06117950420565,24.976952990640257,145.21210655085886,109.285319190652,75.71138875287818,49.95390598128046,35.90436992404534,17.95218496202267,102.24940130543337,64.78397181947298,5.463708466702599,15.610595619150104,15.688454434407324,15.610595619150104,70.24768028617561,68.68662072426062,68.84608942504317,{}
22,93,22,0,0.8800000000000002,60.67442593049302,198.01124625266672,17.178224139922886,34.3564482798459,53.242955568286405,59.4257645121472,26.4391367492899,138.55638372871866,104.24771849585969,73.8740585641923,49.767786822192704,35.77059677845102,16.33005505103199,95.64746529890158,59.87686852045056,5.443351683677349,15.552433381935202,15.860432259667862,15.552433381935202,68.43070688051498,68.43070688051498,70.14130213065978,{}
23,93,23,0,0.9200000000000004,49.588569602443954,201.834654090925,18.66017034046418,34.232728349056934,56.13044952493291,60.614610416777104,24.84266393952011,127.22180443919336,93.03020842400636,68.1842832033604,44.93964120221477,32.54249880160381,13.946785200687373,88.32963960435325,52.687855202596666,1.5496428000763558,17.046070800840084,17.325533209069388,16.271249400801878,68.1842832033604,68.1842832033604,68.3425856346283,{}
24,93,24,0,0.9600000000000004,49.68532787904027,205.138995718482,18.66017034046419,31.03157288857987,56.130449524932914,62.15980234682317,24.794284801221977,124.12629155431948,93.0947186657396,68.18428320336045,46.48928400229119,30.992856001527457,13.946785200687316,85.23035400420054,54.23749800267308,1.5496428000763558,17.046070800840084,15.803317753375946,14.72160660072558,66.63464040328404,66.63464040328404,70.00887601424586,{}
25,93,25,0,1.0000000000000002,52.35127999562938,203.59869798787847,16.90795157200006,29.245065295784386,53.99529147895671,60.26084869353021,24.78477519440257,123.2068562064689,93.9636457795972,67.63180628800023,46.11259519636383,29.20464362436377,13.065235305636463,85.30830111327293,56.10365748890922,0.7685432532727532,15.370865065454607,14.171237381800896,13.83377855890916,67.63180628800023,69.16889279454568,67.78882604187083,{}
26,93,26,0,1.0400000000000005,43.207736033166114,202.73264339125163,17.033606022043177,34.06721204408629,57.24681003421069,61.99367196213288,26.397359855481813,120.64307378496838,86.58043971009101,64.77030961800057,47.8066570990004,30.84300458000024,13.108276946500098,80.9628870225007,47.035581984500425,0.771075114499979,17.03360602204312,15.726908221125315,14.65042717550017,66.31245984700055,69.39676030500058,67.92467164352945,{}
27,93,27,0,1.0800000000000003,47.6480895006704,195.9709816315436,16.968281919608796,30.877962708657314,55.644836841622656,60.22750738801835,24.771062198656345,120.18040601516506,89.31333490496326,65.29003266269126,47.6233179421983,29.188485190379595,13.826124563864028,81.42051132053263,50.69579006750144,3.07247212530308,16.898596689167107,14.16339667651262,13.826124563864028,66.05815069401697,67.59438675666854,69.2840761109566,{}
28,93,28,0,1.1200000000000003,49.40044088282887,201.0715024925455,17.04310844912867,29.47917494274399,54.35691278978852,58.81684155554362,26.276522623839625,122.14173575394985,92.69628585155012,67.89246368631831,44.74730561143707,30.86021076650832,11.572579037440562,84.09407433873525,53.23386357222694,0.7715052691626738,16.97311592157962,14.225854256162632,13.11558957576608,69.43547422464371,69.43547422464371,68.05008860457488,{}
29,93,29,0,1.1600000000000004,49.21841112928762,189.84561869183213,16.980308345017683,30.899847747876453,54.00366528400044,60.27019418616321,24.645192723373658,121.69167033633268,90.8193460607758,66.10497001407163,49.19439628954166,32.28382256501169,16.141911282505873,80.7095564125292,49.96305873156575,3.843312210120473,15.449923873938229,14.173435113784828,13.067261514409497,66.10497001407157,66.10497001407157,69.45238424986667,{}
30,93,30,0,1.2000000000000004,47.740639238081584,194.5162234145756,15.444905665174504,30.774907728177624,55.5174907648204,60.25061814040886,26.171196129510736,120.1184268407565,89.3476065933939,65.31508602856792,49.17841771562763,30.736511072267263,13.831429982520262,79.91492878789484,49.178417715627575,3.0736511072267376,15.368255536133631,15.672606973725092,14.599842759326975,66.08349880537457,66.08349880537457,66.3688039584545,{}
31,93,31,0,1.2400000000000004,49.25547517704511,194.44161146180207,16.968281919608796,29.349748766723323,54.11826271303645,60.22750738801834,24.62773758852257,120.180406015165,90.84599207971962,66.058150694017,49.15955400484984,30.72472125303113,15.362360626515567,79.88427525788103,50.69579006750138,4.608708187954676,16.968281919608796,15.438981354328618,14.594242595189826,64.52191463136543,66.05815069401697,64.68630194143826,{}
32,93,32,0,1.2800000000000005,46.14584254864005,200.23541883260185,16.952286363663625,29.201331191578053,55.59238190806047,60.34664210505913,26.2713369638645,118.5369063812206,89.34785877729728,65.99587940161018,47.57842468488178,30.69575786121402,13.045697091015938,79.04157649262618,49.8806065244728,2.3021818395910145,16.952286363663635,15.65182683188494,14.580484984076634,64.46109150854946,67.53066729467088,66.15630176243263,{}
33,93,33,0,1.3200000000000005,47.32711793620487,189.9510789280755,16.82776028807583,29.106690889601552,53.67008613227277,58.39253092421442,26.078356122084493,119.31165882140486,90.20951697245172,66.2728516878941,50.27595645288517,30.47027663811224,14.473381403103303,78.46096234313887,49.51419953693232,3.808784579764051,16.82776028807582,15.905951375659354,15.235138319056093,63.98758094003568,68.5581224357525,67.10382349952181,{}
34,93,34,0,1.3600000000000003,45.81783834485279,191.51220085655933,15.31479074864854,30.62958149729708,53.8772458440365,59.91769875498292,26.08460055409638,117.82252772979622,87.19462573817114,64.00290269179459,48.76411633660541,28.95369407485947,12.952968401910766,78.4797497292243,48.00217701884594,3.8096965887972942,16.831789675685194,15.540573797716204,15.238786355189175,64.00290269179462,67.05065996283244,70.24733413842756,{}
35,93,35,0,1.4000000000000006,47.44522451683508,192.2432221293012,15.373248840481754,29.22479021389289,55.40792516174853,61.492995361927,26.184168089797662,118.14359831780412,88.93307730320736,65.01205590518578,48.95025385802222,29.06421322820069,13.002411181037132,78.77931480275447,48.1854061414906,3.824238582657984,16.896038304525575,15.599893726085972,14.532106614100371,65.77690362171737,68.83629448784376,67.46286377987818,{}
36,93,36,0,1.4400000000000006,47.34910338812688,191.555298696554,15.2422156864439,27.604826679861787,53.69501816172576,58.240424362021095,26.090470623658337,116.20127830856347,88.61483904676545,64.77941666738644,48.77509019662034,28.96020980424333,12.955883333477344,76.97318921654153,49.53720098094254,3.810553921611018,16.76643725508825,15.544071043113426,15.242215686443842,64.01730588306421,68.58997058899735,68.74222376321859,{}
37,93,37,0,1.4800000000000006,45.79524539335914,191.5813108777775,15.307238966700256,29.09930439542179,53.656466109977885,58.37771247262703,25.937921660609582,116.1178478927096,87.03176039249463,63.97134261545296,47.21694335902481,25.89316248720717,10.661890435908788,79.20261466675129,50.26319776928449,1.5231272051298106,15.231272051298332,15.532910681282134,15.231272051298332,60.92508820519328,65.49446982058276,64.13432719200168,{}
38,93,38,0,1.520000000000001,45.78296620145225,192.8810546024387,16.818978931999713,29.0915019272844,55.344073320513765,61.21253839610336,26.064747458360515,117.73285252399792,88.64525540435027,65.4769086271258,47.20428296374183,27.408938495075915,11.42039103961497,79.94273727730473,51.0110799769468,2.2840782079230166,15.22718805281994,15.528745803695143,15.22718805281994,63.95418982184378,70.04506504297177,67.06880620915575,{}
39,93,39,0,1.5600000000000007,49.04576663929888,202.619694573748,16.896038304525575,29.22479021389289,55.40792516174853,61.663994288753294,26.049774551826264,121.1939762375762,91.98545925553005,67.30659905478058,44.36116755883268,27.534517795137504,9.943020314910768,84.89809653500726,54.30418787374339,0.7648477165315626,16.826649763695173,15.599893726085972,15.296954330631934,64.24720818865416,68.83629448784376,67.37609478734076,{}
40,93,40,0,1.6000000000000008,51.952357795866185,203.4473490126068,16.779111222057224,30.659632875387043,55.25138705140798,61.489781572542825,25.97617889793312,125.3129580436376,94.68382022579144,68.64181863568871,45.76121242379247,30.507474949194943,12.202989979677966,86.94630360520563,56.438828656010685,1.5253737474597528,16.848303726832743,15.555821007638809,15.253737474597472,65.59107114076917,67.11644488822893,67.27226813523995,{}
41,93,41,0,1.6400000000000008,53.60510846920712,201.0271725892825,16.909892993937937,30.771709696242496,55.45335945707054,61.543419392485006,24.54299199398868,125.7710417397668,95.02993857627804,68.12726510788724,42.86659377574927,29.08804577640126,11.482123332789968,89.56056199576187,57.410616663949895,0.7654748888526797,16.84044755475861,15.612685581700047,15.309497777053366,65.83084044132926,65.83084044132926,67.79532404273631,{}
42,93,42,0,1.6800000000000008,47.4921306795216,202.4902844328693,18.43818292268365,35.25104962290385,53.78878048832552,59.89351941917702,24.547127579556456,125.70833273247526,90.45796880019591,66.6075370573704,42.87381695646832,30.62415496890594,12.249661987562376,88.81004940982729,50.5298556986948,1.531207748445297,15.31207748445297,15.615316377374084,14.546473610230294,65.8419331831478,65.8419331831478,69.17602779664857,{}
43,93,43,0,1.7200000000000009,60.003885623320734,190.2149705243608,15.442056587732193,32.413390260806175,55.65592053018109,60.102172152131246,26.301363462004307,134.11116552685613,101.70237135084318,71.44920578126118,58.38859827285864,36.87700943548964,21.511588837368947,86.04635534947585,52.24243003361033,10.755794418684502,15.442056587732193,14.166217830937788,13.82887853830863,66.07130857191896,66.07130857191896,67.88664707486737,"{'neutral': (['m1', 'm3', 'm12', 'e1', 'e2'], 5.071748443375031, 123)}"
44,93,44,0,1.760000000000001,65.967753370321,184.0057664637547,17.13361447731244,34.0265128760719,55.50868022318728,61.6048156567253,26.231781990821947,143.1861810189546,109.19369588598992,75.85761480965942,68.96146800878131,44.44183493899243,30.649541337236144,85.81871574426123,52.104220273301394,18.389724802341675,9.321694080848316,9.692235986514913,8.42862386773993,65.89651387505768,68.96146800878131,69.11454581757947,"{'neutral': (['m1', 'm3', 'm12', 'e1', 'e2'], 5.071748443375031, 123)}"
45,93,45,0,1.800000000000001,64.23779753708074,177.3487908203665,19.89118859743414,35.38566912436676,53.743032123955146,59.98477293955534,26.33567211507564,145.73125704015413,110.35998730153732,77.8048107280394,76.2792262039602,50.34428929461376,37.37682083994048,81.61877203823735,46.53032798441569,22.12097559914849,9.64864371838857,8.215524089380406,7.627922620396021,67.12571905948496,71.70247263172257,70.32597171553121,"{'neutral': (['m1', 'm3', 'm12', 'e1', 'e2'], 5.071748443375031, 123)}"
46,93,46,0,1.840000000000001,60.97197863249571,166.15265536107242,22.908087979669105,38.36889144582513,48.97616592166965,56.56649004703405,24.09376261599387,145.5630206829641,107.1996456287525,76.19116726995748,80.76263730615489,57.90528712516766,46.47661203467408,75.4292555972579,35.809848616880004,25.143085199085988,9.269055548187607,8.20603985193345,7.619116726995742,70.09587388836087,73.14352057915917,72.20093063820477,"{'neutral': (['m1', 'm3', 'm12', 'e1', 'e2'], 5.071748443375031, 123)}"
47,93,47,0,1.880000000000001,47.21219465011286,164.0062047488432,24.364477033689376,39.63190869280356,45.82183466252346,51.87444879125204,25.47673045685241,136.11462484091817,96.51718421133616,72.1911802203681,80.55015898272654,59.27275849672327,45.59442961286408,65.3520157784385,24.317029126860803,22.797214806432063,10.746710121196305,10.746710121196305,10.638700243001637,68.39164441929609,71.43127306015367,67.147591392909,"{'neutral': (['m1', 'm3', 'm12', 'e1', 'e2'], 5.071748443375031, 123)}"
48,93,48,0,1.920000000000001,24.559688222404613,161.14944961363034,25.93792166060957,35.16412213382444,42.89165153062122,48.95379175248666,28.454364385262704,113.73589718837611,78.6293674603365,65.49446982058276,76.15636025649155,56.35570658980379,38.83974373081077,46.45537975645982,11.423454038473722,15.992835653863269,13.708144846168524,12.279844111202308,11.423454038473665,68.54072423084241,68.54072423084241,68.9625172841273,"{'neutral': (['m1', 'm3', 'm12', 'e1', 'e2'], 5.071748443375031, 123)}"
49,93,49,0,1.960000000000001,4.281075327119635,156.95411226292498,25.731007853901644,28.797988984134875,38.11118959112141,41.31293144641824,30.87127321210676,88.42519375822617,59.72445319363213,57.516370496956654,69.62508007526333,51.46201570780335,30.27177394576665,27.24459655119,0.0,7.567943486441663,15.135886972883329,12.202942202449911,11.351915229662495,71.13866877255168,66.59790268068667,65.52283338885418,"{'neutral': (['m1', 'm3', 'm12', 'e1', 'e2'], 5.071748443375031, 123)}"
50,93,50,0,2.000000000000001,3.373659994030908,157.6333381243459,25.64869247072357,28.705862103157447,40.98684504918478,43.987144694844055,29.29456032015953,80.47434385429688,51.84910424113065,52.80613155737211,64.87610448477142,49.78863832552224,28.666185702573387,22.63119923887376,4.526239847774718,6.034986463699681,16.59621277517408,13.578719543324269,12.824346235361816,73.92858418032094,64.87610448477142,61.02502396838662,"{'neutral': (['m1', 'm3', 'm12', 'e1', 'e2'], 5.071748443375031, 123)}"
51,93,51,0,2.040000000000001,10.52624140564609,159.85068714580376,27.067477900232745,30.11254569725865,39.356871743688366,43.84143376417932,33.21889613697868,100.85211521953455,70.74015266316,65.41307159222907,67.66869475058184,55.63870457270059,28.5712266724679,39.09746807811399,9.022492633410934,4.511246316705467,16.541236494586713,15.037487722351557,15.037487722351557,75.18743861175759,63.15744843387637,65.5123819003521,"{'neutral': (['m1', 'm3', 'm12', 'e1', 'e2'], 5.071748443375031, 123)}"
52,93,52,0,2.080000000000001,55.42915657733812,163.35313495686907,25.467450319317493,40.47603626162938,44.9675205438495,53.93107126443704,31.60214429599283,152.81204529490904,112.3963403097446,84.64182017890823,73.40618033215048,68.9119243934474,39.69926079187729,81.64564955310613,39.69926079187729,15.729895785460826,16.47893844191134,14.980853129010312,14.980853129010312,77.90043627085356,62.91958314184325,63.78748045953133,"{'neutral': (['m1', 'm3', 'm12', 'e1', 'e2'], 5.071748443375031, 123)}"
53,93,53,0,2.120000000000001,66.92685626930783,171.01894116394965,22.30344574583989,40.146202342511856,49.06758064084795,55.03525569945737,26.9288388181511,156.1312005192992,115.9874488738129,82.52274925960779,65.42344085446382,62.44964808835181,37.1724095763999,92.18757574947176,49.06758064084784,16.355860213615983,16.42330734600346,16.355860213615927,15.612412022087938,78.80550830196782,62.44964808835186,65.03365908202312,"{'neutral': (['m1', 'm3', 'm12', 'e1', 'e2'], 5.071748443375031, 123)}"
54,93,54,0,2.160000000000001,60.74074074074076,177.80246742136288,20.74074074074076,38.51851851851848,53.35390549738987,59.277774885163225,26.7077872256592,146.67414870552713,108.158294805594,77.77777777777783,60.74074074074076,57.77777777777777,32.59259259259261,87.40740740740739,45.92592592592587,13.333333333333371,17.839399375988574,16.296296296296305,16.296296296296305,75.55555555555554,60.74074074074073,69.44024678671387,"{'neutral': (['m1', 'm3', 'm12', 'e1', 'e2'], 5.071748443375031, 123)}"
55,93,55,0,2.200000000000001,47.23118610740573,183.2349752762197,20.71629023386787,39.87863677346814,48.72951879271977,56.1646626518111,26.60850989238029,134.3866534257274,94.50848516469728,70.8467791611086,53.13508437083146,44.27923697569287,22.13961848784641,85.60652481967293,42.803262409836464,4.42792369756927,19.1876693561336,16.302671932070503,16.973707507348934,73.79872829282147,60.5149572001136,71.82402227891741,"{'neutral': (['m1', 'm3', 'm12', 'e1', 'e2'], 5.071748443375031, 123)}"
56,93,56,0,2.240000000000001,45.77246804007188,187.70645581484268,19.24160321718185,35.44905813483927,51.73598660948232,57.63041088085663,25.08798119468139,125.51801031898415,90.06995227628218,67.14724378576489,48.7001987896756,38.36985359186565,18.447044996089232,81.90487978263627,43.53502619077062,2.21364539953072,19.184926795932824,16.300341734568317,16.23339959655857,70.83665278498268,61.98207118685983,71.58594421872303,"{'neutral': (['m1', 'm3', 'm12', 'e1', 'e2'], 5.071748443375031, 123)}"
57,93,57,0,2.280000000000001,47.081477677662406,185.66596996357205,19.17399513958317,35.32450288618718,54.490829721658784,58.98833993390903,25.043045998217288,126.60645760432722,91.28252752332637,67.64660165459378,51.47024038936485,39.705614014652895,20.58809615574592,80.88180632614467,44.11734890516982,4.411734890516982,19.11751785890692,16.441565189839274,16.176361265228934,72.05833654511073,64.70544506091574,70.96968809072503,"{'neutral': (['m1', 'm3', 'm12', 'e1', 'e2'], 5.071748443375031, 123)}"
58,93,58,0,2.320000000000001,52.55334454034431,182.76279055981985,19.03366056271424,36.61197710232944,52.63438289926031,60.01242989699482,26.31719144963009,134.42987211472789,97.85118031792511,71.53094117991304,54.01315966646496,43.79445378362027,22.62713445487049,85.39918487805937,47.44399159892191,8.028983193663692,18.97759663956873,17.5785019087337,16.787873950387734,71.53094117991304,64.23186554930967,70.45026054960861,"{'neutral': (['m1', 'm3', 'm12', 'e1', 'e2'], 5.071748443375031, 123)}"
59,93,59,0,2.360000000000001,56.93278991870631,180.03728969098435,17.5785019087337,38.06732112542836,52.63438289926031,58.465550238845495,27.88972882432731,140.33220347036203,102.28086103387372,73.7206638690941,58.39260504482701,45.25426890974092,24.08694958099113,88.31881513030072,48.90380672504256,9.488798319784394,19.033660562714186,17.5785019087337,16.787873950387734,71.53094117991304,64.23186554930967,68.99846731830293,"{'neutral': (['m1', 'm3', 'm12', 'e1', 'e2'], 5.071748443375031, 123)}"
60,93,60,0,2.400000000000001,55.95818610537823,176.9614320547879,19.11713027487332,38.2625298774901,51.65792141057609,58.98714401826265,28.094789313514987,141.36400232626616,103.10631950102122,74.99797261681073,60.292487789985046,47.05755144584202,25.73459844694485,87.49763471961239,47.79282568718327,11.029113620119231,19.173606410542543,17.707748636921607,16.91130755084947,72.05687565144555,66.17468172071531,66.58191437497099,"{'neutral': (['m1', 'm3', 'm12', 'e1', 'e2'], 5.071748443375031, 123)}"
61,93,61,0,2.4400000000000013,51.29747244704519,172.30938019500272,19.04557479072929,38.11931309701153,50.00503026544305,57.30551860808743,28.446013177689373,136.5323744572495,98.4309120294733,72.5196886262384,64.46194544554527,46.88141486948746,27.835840078758167,80.5774318069316,42.48628222547302,13.185397932043315,19.04557479072929,17.64146847307916,17.58053057605781,71.7871665189027,64.46194544554527,64.87681615491012,"{'neutral': (['m1', 'm3', 'm12', 'e1', 'e2'], 5.071748443375031, 123)}"
62,93,62,0,2.4800000000000013,35.31877482060309,172.93221801462022,22.10405450668997,38.25710100982153,45.79347389768601,51.650591941764944,29.735782896119208,125.28986510463145,87.06100559391433,69.10597221438331,64.69495271133758,47.05087469915463,26.46611701827448,69.10597221438331,30.87713652132021,7.351699171742894,20.58475768088016,17.887456102360908,16.908908095008712,70.5763120487319,64.69495271133758,68.0340080265672,"{'neutral': (['m1', 'm3', 'm12', 'e1', 'e2'], 5.071748443375031, 123)}"
63,93,63,0,2.5200000000000014,16.360692712313234,169.79287226518176,25.22439574212561,38.625688056706,46.29872744667341,49.23828428177293,31.42158072638188,111.5748825014431,72.9570341433281,64.43339714095288,60.73032833974872,42.95559809396861,20.73718528674345,59.24910081926703,20.73718528674345,0.0,19.25595776626176,17.83634128059005,17.77473024578012,71.09892098312048,65.17401090119375,67.06542837584955,"{'neutral': (['m1', 'm3', 'm12', 'e1', 'e2'], 5.071748443375031, 123)}"
64,93,64,0,2.5600000000000014,9.36868352867134,168.330242357317,26.663740765114422,37.06258782242865,41.71431985268836,47.771100129370645,31.423519844687657,104.07253870667874,67.06956718099053,62.21539511860033,60.73407618720512,42.95824901046211,20.73846503953348,51.84616259883365,14.81318931395242,1.481318931395208,19.25714610813821,16.361702378854527,16.29450824534763,72.5846276383671,66.6593519127861,68.71787271918005,"{'neutral': (['m1', 'm3', 'm12', 'e1', 'e2'], 5.071748443375031, 123)}"
65,93,65,0,2.6000000000000014,14.80831601982544,172.69315671053823,26.696071356377715,37.13906763541032,46.12023814365316,50.54388688997081,29.94796576518918,108.46522890932802,71.32629516214918,63.67575888524931,60.71409568128422,42.94411645749375,22.21247402973813,56.27160087533662,19.2508108257731,0.0,19.2508108257731,16.356319649556927,16.289147621807956,69.59908529317951,65.15659048723188,68.51947198989514,"{'neutral': (['m1', 'm3', 'm12', 'e1', 'e2'], 5.071748443375031, 123)}"
66,93,66,0,2.640000000000001,29.54993089384144,173.4127887967404,23.61045007512223,38.48032572941352,47.427959901644186,53.30765018014459,30.097536414439144,121.44365267118654,82.96530826294216,67.88004396597643,61.9774314471959,45.74524702054936,24.34827663996981,67.1422174011289,27.299582899360075,5.164785953933006,19.183490686036805,16.299121553625078,16.23218442664654,70.83135022536675,66.40439083628135,65.34661264480474,"{'neutral': (['m1', 'm3', 'm12', 'e1', 'e2'], 5.071748443375031, 123)}"
67,93,67,0,2.680000000000001,37.146195762189954,178.6203571382762,20.735621466137104,38.62277523868938,52.0291343531888,57.9341628580341,28.29667799057308,124.73070696354162,86.10876700026046,67.39076976494556,57.76351694138191,39.99012711326441,20.735621466137104,75.53690676949947,35.546779656235,4.443347457029404,17.7733898281175,16.35945892923013,16.2922740091077,68.13132767445046,65.16909603643086,71.33998486700727,{}
68,93,68,0,2.720000000000001,32.4879422403484,180.84309382953563,22.128021977916376,36.99786452312496,51.71627980644568,57.70282164032388,28.37606675135508,119.81869277007245,82.8217569959605,66.38406593374918,54.58245421219374,36.88003662986063,17.702417582333112,73.76007325972125,35.404835164666224,0.0,17.702417582333112,16.493253783410147,16.227216117138653,66.38406593374918,66.38406593374918,69.58511394313244,{}
69,93,69,0,2.7600000000000016,29.9743908115626,185.64510369058857,20.93113582699544,37.40115427302878,53.87222820060003,59.81880114764543,28.490896502970607,116.7874471189988,79.38886734281348,64.12511226449578,52.19485881993842,35.79076033367204,15.65845764598157,72.32716150762894,35.045119493387176,0.7456408402848069,19.38666184740572,16.673036056769533,16.404098486266378,67.1076756256351,67.1076756256351,70.23287613846085,{}
70,93,70,0,2.8000000000000016,32.825983035168875,185.12014772498264,22.28943647751055,35.786714326923565,52.34723179775848,56.64226830590869,28.85217148683857,119.46990094072322,83.69016402459594,66.86830943253165,53.494647546025305,35.66309836401689,16.34558675017439,74.29812159170189,37.149060795850914,0.0,19.3175116138425,18.077513203581773,17.088567966091375,66.86830943253167,66.86830943253167,71.46536992715825,{}
71,93,71,0,2.8400000000000016,32.579404226115976,179.3262602502626,22.171110514174007,36.98780419432168,50.48903069150792,56.3520416230846,28.368350831386653,120.04005023002212,83.06150894509634,66.36601501272429,56.04241267741162,38.34480867401851,19.17240433700925,72.2652163471887,35.39520800678628,2.9496006672322324,19.17240433700925,16.488768996024756,15.485403502969008,66.36601501272435,67.84081534634043,69.4566764343626,{}
72,93,72,0,2.8800000000000017,32.86178705357356,175.69906218086334,20.720286356336203,35.643612551354515,50.66773882811537,54.940464414545794,31.395974980055176,120.46493724807468,84.82725321571027,68.08094088510461,60.68083861498451,41.44057271267235,19.980276129324125,68.82095111211663,33.30046021554034,5.18007158908398,19.240265902312217,16.547131716438976,16.28022499426413,66.60092043108054,68.08094088510455,71.17959847480176,{}
73,93,73,0,2.9200000000000017,25.52663056271212,171.47145597055632,20.931135826995448,37.40115427302872,46.61299032066312,52.53461738745364,34.81432137335824,118.5733059468894,81.20299203619281,67.85331646591993,65.61639394506545,43.24716873652039,20.13230268769053,63.37947142421092,26.09742940996921,5.219485881993819,19.38666184740572,18.142224657378705,17.149739326551185,67.1076756256351,67.1076756256351,65.76873454622078,{}
74,93,74,0,2.9600000000000017,5.377677466898714,162.24469576756746,23.863989968997657,37.31730239156118,42.001003692976106,46.61979473473638,36.28974600170787,101.95791967776472,64.75581183190097,61.89722398208767,64.13447304168119,44.74498119187064,18.64374216327945,46.9822302514641,9.694745924905249,0.7457496865311555,19.38949184981056,16.474149032382144,16.406493103685875,67.1174717878059,67.1174717878059,67.26645637021113,{}
75,93,75,0,3.0000000000000018,3.322231634712529,160.32994869262623,20.800460162208708,34.301136650224294,41.83901974593762,44.96686846950976,37.616113476096245,95.654889554865,61.36693327382708,59.42988617773915,63.88712764106964,43.08666747886093,16.34321869887833,41.6009203244173,7.428735772217351,5.684341886080804e-14,19.31471300776525,18.07489424109197,17.086092276099976,66.85862194995653,65.37287479551304,64.042424061623,{}
76,93,76,0,3.040000000000002,9.468350749466191,164.3379501419824,23.953243242940403,37.54651776812423,43.64694033597302,46.794156579340566,37.90298004493236,108.45292143615632,70.93368381435374,65.87141891808596,64.37434121540218,44.91233108051313,17.216393580863382,53.14625844527399,15.719315878179655,2.2456165540256734,19.462010134889056,18.212736309659583,17.964932432205273,67.36849662076975,67.36849662076975,66.02435160690963,{}
77,93,77,0,3.080000000000002,22.406438324086285,165.47649201577366,23.6905459432096,40.08732469340212,44.641320023569925,49.06324361943956,33.10854447068659,119.04352006285316,78.97619786710854,67.36999002600226,63.66834222237577,44.419773643518,21.469557261033685,64.408671783101,24.430875503934885,2.220988682175914,19.24856857885777,19.47503011732536,18.508239018132485,66.62966046527694,68.11031958672754,63.82310682073522,"{'neutral': (['m1', 'm3', 'm12', 'e1', 'e2'], 4.076592013168104, 120)}"
78,93,78,0,3.120000000000002,29.711905417668127,170.02939017920988,19.099069197335723,39.77597529492695,44.2946007490166,50.14548228386636,29.9650850857458,118.27415681774085,78.54163941196752,63.17384426811054,58.766366761033055,39.66729756369728,19.83364878184864,68.31590135970094,27.179444626977784,3.672897922564573,20.568228366361552,17.87309268878871,17.629910028309894,66.1121626061622,66.1121626061622,66.25891564490794,"{'neutral': (['m1', 'm3', 'm12', 'e1', 'e2'], 4.076592013168104, 120)}"
79,93,79,0,3.160000000000002,29.52973383267776,171.48933070626418,17.691019085124363,38.31098395335479,45.92150699467737,51.609117133437856,29.711905417668127,115.19557033956632,76.90315038524415,61.70468509908471,58.766366761033055,39.66729756369728,19.83364878184864,65.37758302164929,25.710285457951954,6.611216260616232,20.568228366361552,19.323771859043173,18.36448961282281,64.64300343713637,64.64300343713637,66.3728325679005,"{'neutral': (['m1', 'm3', 'm12', 'e1', 'e2'], 4.076592013168104, 120)}"
80,93,80,0,3.200000000000002,31.2099584772819,174.16603456326047,17.81546599164632,38.72206156543045,46.078576340295335,51.97215981315461,26.99823057935672,114.69656758481575,75.97456991757181,59.91950384481737,57.700262961676,38.46684197445069,21.45266187036674,65.83747953319437,25.89114363664948,6.657722649424159,19.233420987225315,17.998820386237828,17.014180104083948,68.05672041633579,66.57722649424156,68.45757628243307,"{'neutral': (['m1', 'm3', 'm12', 'e1', 'e2'], 4.076592013168104, 120)}"
81,93,81,0,3.240000000000002,29.54229022091312,174.32900747967616,17.63740647227121,39.79288850488245,48.70288047327776,51.631061933715415,29.54229022091312,116.44733186159507,76.65454846371163,61.73092265294935,58.79135490757085,41.15394843529958,20.57697421764982,66.14027427101712,24.9863258357176,7.348919363446384,19.107190344960543,17.88069253686183,17.637406472271266,74.95897750715284,67.61005814370648,72.75059002800457,"{'neutral': (['m1', 'm3', 'm12', 'e1', 'e2'], 4.076592013168104, 120)}"
82,93,82,0,3.280000000000002,38.54276859149115,172.24115100177025,16.361702378854574,37.15128979490168,46.01635659558579,53.51232604125417,28.3005584472486,120.3155651095742,83.16520791508538,63.69671404999565,54.80880046162417,42.95824901046217,20.73846503953348,71.10330870697186,32.58901649069543,7.40659465697621,20.79130197877137,17.837442013751385,17.035167711045347,81.47254122673857,66.65935191278612,72.08409033049921,"{'neutral': (['m1', 'm3', 'm12', 'e1', 'e2'], 4.076592013168104, 120)}"
83,93,83,0,3.320000000000002,35.65435284383005,170.4852060427885,17.76559704474255,41.45305977106591,45.989873810988975,53.3173492029321,29.75700677243584,124.50009627547584,83.11734566674357,65.14052249738927,54.77725755462279,45.89445903225152,20.726529885532955,74.0233210197606,31.089794828299432,5.921865681580812,20.936956903608568,19.30292049732444,18.50583025494012,87.3475188033174,68.10145533817965,73.75635565834313,"{'neutral': (['m1', 'm3', 'm12', 'e1', 'e2'], 4.076592013168104, 120)}"
84,93,84,0,3.360000000000002,37.118724148106416,171.99467913621393,17.760245448288174,41.440572712672406,45.90449916560378,53.36289635719066,29.63738649537285,125.88006823035654,84.47792879459897,65.8609102040686,56.240777252912494,45.88063407474442,21.460296583348168,74.74103292821269,33.300460215540284,5.1800715890840365,22.249586131397017,19.29710580724492,19.24026590231216,85.84118633339273,68.08094088510458,75.19028304850502,"{'neutral': (['m1', 'm3', 'm12', 'e1', 'e2'], 4.076592013168104, 120)}"
85,93,85,0,3.400000000000002,41.466993227127205,172.09016985096542,17.760245448288174,38.508983218348334,48.930290975550925,54.8406995521057,29.9315613129476,127.4966968178737,88.99834452558807,68.08094088510461,56.240777252912494,44.40061362072038,20.720286356336203,76.96106360924864,35.52049089657635,5.920081816096058,20.7730769803826,18.00522592362448,17.760245448288117,81.40112497132071,65.12089997705655,76.64734294084539,"{'neutral': (['m1', 'm3', 'm12', 'e1', 'e2'], 4.076592013168104, 120)}"
86,93,86,0,3.440000000000002,39.78778542348852,170.8779894998253,16.16554924685056,41.17490522201745,48.58563249013308,52.98701518687106,29.428624672428835,126.5218358946614,85.3504765638959,65.39699468044097,57.31422005701575,45.55745696839711,22.04393079115988,74.94936468994365,32.33109849370112,7.347976930386608,22.23901362741985,20.783217261914768,19.83953771204392,80.82774623425291,66.13179237347964,71.51359799304241,"{'neutral': (['m1', 'm3', 'm12', 'e1', 'e2'], 4.076592013168104, 120)}"
87,93,87,0,3.480000000000002,43.04612162841737,173.56710910441495,16.289147621808013,39.98245325352866,48.88987455945144,54.87075584042595,29.764346831499463,128.9684459104937,89.04712143625721,67.37783789020568,56.27160087533662,45.90577966145884,21.472058228746903,77.74365910408346,36.28037424857234,6.663742208921462,20.784461984514948,19.47729874452363,18.51039502478181,81.44573810903987,66.63742208921443,71.83178151251168,"{'neutral': (['m1', 'm3', 'm12', 'e1', 'e2'], 4.076592013168104, 120)}"
88,93,88,0,3.5200000000000022,45.58700008100564,173.65855656588852,16.16762259958199,38.21438068992097,47.1248558843968,54.46139311759477,31.178824297716275,130.94281342440087,92.7828354825591,69.81473395274043,55.851787162192295,47.03308392605669,20.576974217649763,79.36832912522061,38.214380689921086,7.348919363446328,19.3319885528681,19.331988552868086,18.372298408615904,80.83811299790992,66.1402742710172,71.5227701474473,"{'neutral': (['m1', 'm3', 'm12', 'e1', 'e2'], 4.076592013168104, 120)}"
89,93,89,0,3.5600000000000023,47.24748836938936,174.44624420950777,16.233399596558513,38.39822317325852,50.26269704768532,54.682966009241,31.131267239897067,132.94983824263608,94.55257807100313,70.83665278498268,57.55478038779847,47.22443518998847,21.398572195463544,80.42911618294909,40.583498991396254,8.116699798279285,19.41063958178471,17.770546961571625,16.971281396402105,79.69123438310552,64.93359838623414,71.81375622203961,"{'neutral': (['m1', 'm3', 'm12', 'e1', 'e2'], 4.076592013168104, 120)}"
90,93,90,0,3.6000000000000023,42.89179504823966,170.2039470447264,16.23074866851357,36.91756381309027,47.42376483600365,54.67403623409955,31.12618347731785,127.10922870203947,90.20018256685076,68.61180118962551,57.54538164291171,44.26567818685516,19.9195551840848,75.98941422076803,37.62582645882685,8.115374334256728,20.709946678197845,17.95050724354943,16.96850997162784,79.67822073633926,64.9229946740542,71.80202897419775,"{'neutral': (['m1', 'm3', 'm12', 'e1', 'e2'], 4.076592013168104, 120)}"
91,93,91,0,3.6400000000000015,38.48320643436364,168.76052041181472,17.709163196245697,38.39822317325852,45.96239610917494,53.20941329135296,32.60068346913657,127.12998913805043,88.74236631404496,69.36088918529555,59.0305439874856,45.74867159030134,19.92280859577636,74.52606178420058,34.680444592647746,6.640936198592101,22.18559157851123,20.87044897534092,19.92280859577636,79.69123438310552,64.93359838623411,71.81375622203973,"{'neutral': (['m1', 'm3', 'm12', 'e1', 'e2'], 4.076592013168104, 120)}"
92,93,92,0,3.6800000000000015,34.07273550575314,165.95320379784724,17.710248032184722,39.875379335874,44.373901267054926,51.84429550051884,34.23217828346857,125.75973566824317,85.91701537635899,68.62721112471593,61.98586811264664,47.22732808582606,20.661956037548865,70.840992128739,29.51708005364128,5.903416010728279,19.24278192802576,19.2427819280257,17.710248032184722,78.22026214214932,66.41343012069282,73.05104613364574,"{'neutral': (['m1', 'm3', 'm12', 'e1', 'e2'], 4.076592013168104, 120)}"
93,93,93,0,3.7200000000000015,23.662155571171898,161.70168852551416,19.244746927563927,41.35448074308953,43.03256233981326,49.0646700589018,37.16484900373671,121.35595484331216,80.04519297555294,67.89621671828002,63.46820258447912,47.2321507605426,18.450058890836885,65.6822096513796,22.8780730246379,3.690011778167332,20.66406595773742,16.303004899012773,16.236051823936577,78.22824969714873,64.94420729574611,71.59763999446032,"{'neutral': (['m1', 'm3', 'm12', 'e1', 'e2'], 4.076592013168104, 120)}"
94,93,94,0,3.7600000000000025,6.130969719077871,159.80004641867546,22.304678593430594,38.69002806953265,38.91795362337584,43.35250263609326,38.917953623375794,105.8369469017428,67.17786740308287,63.94007863450111,62.45310006160577,47.58331433265204,16.356764301849125,50.55727147844272,10.4088500102676,1.4869785728953389,17.905593122157274,16.424215162451322,15.613275015401427,77.32288579055947,65.42705720739647,69.42772862642802,"{'neutral': (['m1', 'm3', 'm12', 'e1', 'e2'], 4.076592013168104, 120)}"
95,93,95,0,3.8000000000000025,1.4869477501084702,159.94195036219537,25.32180774254155,40.17511588574892,40.25758285426513,43.35160400515379,37.44038768127695,102.98656366059387,62.89279252082471,62.45180550455439,63.9387532546628,47.582328003470025,18.58684687635548,46.83885412841573,6.691264875487946,2.2304216251626485,17.90522196665316,16.42387471364206,16.35642525119283,75.83433525553033,66.91264875487971,68.97899167182048,"{'neutral': (['m1', 'm3', 'm12', 'e1', 'e2'], 4.076592013168104, 120)}"
96,93,96,0,3.8400000000000025,4.719521719586457,161.87340307105225,26.86398858095004,40.406383031382994,40.40638303138306,44.872700249183005,37.57877493464256,109.31577856318108,68.91148190093921,66.41374954734869,64.17508383226954,49.25064573174171,19.401769530686124,52.23553335184721,10.447106670369465,2.984887620105553,17.971403292283636,17.971403292283636,17.163103815606974,73.1297466925862,65.66752764232228,70.7141233505733,"{'neutral': (['m1', 'm3', 'm12', 'e1', 'e2'], 4.076592013168104, 120)}"
97,93,97,0,3.8800000000000026,17.89965740229288,165.54138374044166,25.313938260154544,41.64813379672815,41.72764032877738,46.17685749603165,35.799314804585755,120.63451451836262,79.00779541252916,69.86482499497515,63.91888244221133,50.54051169849265,21.55404175376896,63.175639623115785,20.06755611557793,0.7432428190954283,19.3243132964825,18.083878283628827,17.094584839196045,71.35131063316615,66.89185371859327,68.95755445985066,"{'neutral': (['m1', 'm3', 'm12', 'e1', 'e2'], 4.076592013168104, 120)}"
98,93,98,0,3.9200000000000026,29.544302182362685,171.549673635522,22.13058067886135,41.41566690853274,45.83161985365157,50.24936118435151,32.758575629292096,125.71866735239644,84.30302203267634,69.342486127099,60.49025385555444,48.687277493495,22.13058067886135,70.81785817235641,28.03206885989113,2.9507440905148314,17.704464543089102,16.296016874534207,16.229092497831743,67.8671140818416,63.44099794606933,69.59316018861162,"{'neutral': (['m1', 'm3', 'm12', 'e1', 'e2'], 4.076592013168104, 120)}"
99,93,99,0,3.960000000000002,35.452918952029854,175.93859935216423,20.71558510647496,38.4873977058041,47.252634173676014,53.15377079020039,31.13465779914035,125.7657281609351,87.27943122548545,69.36844339766145,56.08512444917312,45.75365415590437,19.92497842273252,74.53417854429586,33.208297371220965,2.213886491414712,19.187016258927656,17.7724823820541,16.973129767512944,67.89251907005169,61.98882175961239,69.7598720966096,"{'neutral': (['m1', 'm3', 'm12', 'e1', 'e2'], 4.076592013168104, 120)}"
100,93,100,0,4.000000000000003,38.404496709381405,177.42166039156788,17.773450329464076,37.01800983213623,50.27090901218529,56.10759678154874,31.13635349424529,124.30028006920392,87.2841847482397,67.89621671828002,53.13616960561046,42.80413662674175,16.974054179570032,76.01424263024825,36.16211542604043,2.2140070669004785,17.773450329464087,16.502234347514324,16.236051823936577,69.37222142954695,61.99219787321218,69.93521532637665,"{'neutral': (['m1', 'm3', 'm12', 'e1', 'e2'], 4.076592013168104, 120)}"
101,93,101,0,4.040000000000003,38.1234046337222,174.5804607953711,17.582417582417577,36.74706579922182,48.44036704708143,54.291596523513256,29.63186581121853,121.92906210324712,85.18354199999197,65.93406593406587,51.28205128205127,42.49084249084245,17.582417582417577,74.72527472527474,35.16483516483521,2.93040293040292,17.64336202020849,17.64336202020849,16.849816849816875,67.39926739926739,61.53846153846152,66.3398178618125,"{'neutral': (['m1', 'm3', 'm12', 'e1', 'e2'], 4.076592013168104, 120)}"
102,93,102,0,4.080000000000003,30.91651136924464,169.42607661484072,19.173606410542543,39.732032079187626,47.149371145729496,51.49020044379216,29.74000254753309,119.44076860499584,79.74929631165833,63.96885899669144,51.46919689388966,41.17535751511173,16.911307550849415,72.79214989278694,31.61679237767516,0.7352742413412443,19.173606410542536,17.707748636921607,16.91130755084947,66.17468172071534,58.82193930730253,67.90049613006826,{}
103,93,103,0,4.120000000000003,26.73103629585027,165.7303218709431,19.244353879498306,39.96049516294025,42.90493301010438,48.90801579621146,32.504968016315786,118.40959384711384,78.4491242547078,64.94288089768287,54.61105893668787,42.803262409836464,16.23572022442073,69.37080459525214,28.043516751272136,0.0,17.711694790277136,17.77308733065207,16.973707507348934,67.89483002939576,61.99093176597006,68.15103784554876,{}
104,93,104,0,4.160000000000003,13.365791126227636,161.4320057352169,23.66215557117184,42.90580930353725,39.87945125760939,44.37843256070173,34.07621488361993,113.99688065611552,71.09380131785632,64.20620494011263,57.564183739411305,44.28014133800872,16.974054179570032,62.73020022884566,18.450058890836942,3.690011778167389,19.244746927563984,16.303004899012784,16.236051823936464,69.37222142954698,61.992197873212206,68.29612721339112,{}
105,93,105,0,4.200000000000003,6.108262735882186,159.0771868124994,26.70760404656141,44.468823949819736,38.63204558423864,44.66580752285319,35.83201089855585,112.94215012096618,68.54907236934653,65.18473810346666,57.7773815008,44.44413961599997,15.5554488656,61.4810598021333,15.5554488656,6.666620942400016,19.316022792119263,16.363385571899787,16.29618452586658,71.11062338559998,63.703266782933326,65.45354228759923,{}
106,93,106,0,4.240000000000003,7.977967218115172,159.20820252856484,25.228547507401338,42.98820331602447,40.109314149228666,44.66580752285308,37.15511169504119,112.94215012096618,70.02205187752816,65.92547376373335,60.740324141866665,45.9256109365333,16.296184525866636,59.258852821333335,14.814713205333362,5.925885282133379,19.259127166933297,17.83927702197042,17.03692018613333,71.11062338559998,62.2217954624,65.60426063493595,{}
107,93,107,0,4.280000000000003,6.625386599999362,157.7343010868878,25.18518518518516,42.988498158657535,40.10958924646187,44.66611387164841,37.50811526273235,111.59401235713474,68.72541336144118,65.18518518518516,60.74074074074076,45.92592592592592,16.296296296296248,57.77777777777783,13.333333333333371,5.925925925925981,19.316155274674543,17.83939937598863,17.77777777777783,71.11111111111109,62.2222222222222,62.66158809646395,{}
108,93,108,0,4.320000000000003,6.131012082702863,159.6696469358646,26.765799256505545,41.662232642741735,40.25869552618848,46.19248941861426,37.64755063545624,111.88047170841148,70.2828389477857,66.91449814126395,60.96654275092936,47.58364312267656,17.100371747211852,57.24907063197031,14.126394052044644,6.691449814126429,20.817843866171017,19.38796254335363,18.5873605947956,69.88847583643124,62.453531598513024,68.80437353908867,{}
109,93,109,0,4.360000000000003,11.89993041993716,159.96105296517672,25.13545450609265,39.87945125760939,41.433426689734695,45.96990548665264,37.01800983213628,113.89172186923916,74.03601966427252,67.89621671828002,60.51619316194524,47.2321507605426,16.974054179569976,59.77819080631173,18.450058890836942,5.166016489434355,11.808037690135675,11.808037690135675,11.808037690135675,70.84822614081389,61.99219787321215,62.429939490949046,{}
110,93,110,0,4.400000000000003,10.745257033217948,158.6174867855593,25.09156761955927,41.35363613345545,39.96049516294024,44.67109626877824,37.16408996169445,113.99455242319048,72.69830279743547,67.15684274646753,61.99093176597,47.23118610740573,17.711694790277136,59.0389826342572,16.23572022442073,4.427923697569327,8.855847395138596,8.97800278486465,8.117860112210337,70.8467791611086,63.46690633182647,62.62029746255718,{}
111,93,111,0,4.440000000000003,16.363385571899787,160.553493197734,25.22854750740133,41.50764338946243,41.71861116977992,46.140162064690365,37.15511169504119,120.22758170937507,78.7412807732694,70.36988772533329,63.703266782933326,50.370024898133295,19.99986282719999,62.96253112266669,19.99986282719999,2.222206980800024,8.888827923199983,8.888827923199983,8.148092262933346,71.11062338559998,63.703266782933326,62.85350501295056,{}
112,93,112,0,4.480000000000003,19.48531200563601,157.47932130906855,26.6659351009788,42.96178432935472,41.58602606549072,47.6139787136663,35.83127364724877,124.66128805176407,81.8152444586657,71.84988068874844,65.18339691350371,53.3318702019576,23.703053423092285,65.18339691350366,20.74017174520572,0.0,11.943757882416223,10.370085872602886,10.370085872602886,71.10916026927677,63.70195607456043,62.65986905642144,{}
113,93,113,0,4.520000000000003,33.85525482670238,156.22082751254968,24.99983104626289,42.67211787393173,41.281099977853,47.15032706030389,32.652137141035666,134.02447529602188,91.3654093994919,74.2642039903692,66.17602335775473,55.88197527988177,28.676276788360383,72.7936256935302,28.676276788360383,6.617602335775473,16.176361265228934,16.24306819262706,15.441072116809435,72.05833654511073,63.23486676407674,59.481211003064,{}
114,93,114,0,4.560000000000003,53.13653136531366,160.9939037670344,23.616236162361645,39.85239852398525,45.85158543766511,51.744791565928026,32.60623178505461,149.10671592531102,109.2649772594642,82.65682656826567,69.37269372693726,63.46863468634683,33.94833948339482,82.65682656826573,39.85239852398525,13.284132841328358,17.773571334010775,17.773571334010764,17.71217712177122,73.80073800738009,64.94464944649448,62.43036452415233,{}
115,93,115,0,4.600000000000003,69.6410895876444,164.4609840390461,22.22085060710981,41.47892113327168,47.42762236625315,56.37073551514548,31.14444206902516,164.43429449261276,122.95537335934108,88.1427074082024,71.1067219427515,68.14394186180351,38.51614105232375,94.80896259033524,50.36726137611561,17.776680485687905,19.314963029802577,20.79230004225263,19.99876554639889,74.06950202369944,63.69977174038152,64.3168991171781,{}
116,93,116,0,4.640000000000003,77.03492362504983,165.980885465628,20.74017174520577,38.51746181252486,47.42924871080234,54.83332685717542,31.110257617808543,167.402814800589,128.88535298806414,90.36789117553916,71.10916026927674,66.66483775244694,37.77674139305327,98.51581578972718,57.03547229931576,18.518010486790786,22.270939198859526,20.793013032745417,20.74017174520577,75.55348278610657,65.18339691350371,67.25480356892344,{}
117,93,117,0,4.680000000000003,79.7026265562472,166.88958700326134,19.1876693561336,36.89936414641079,48.72951879271977,56.10645085936724,32.50496801631579,168.267573955765,131.37002809147265,91.51042308309866,73.79872829282152,67.89483002939579,38.3753387122672,97.4143213465244,59.0389826342572,22.139618487846462,22.188763095459947,20.66364392199,20.66364392199,75.27470285867787,63.46690633182644,65.54390751531841,{}
118,93,118,0,4.720000000000003,80.31061007626052,168.0877842673942,19.33072144763986,38.66144289527972,49.09281771412661,58.068369585181216,34.200507176593646,172.49592372718783,133.83633229770228,93.67965009240868,75.83590721766416,71.37497149897803,39.40493218172742,98.88407509754244,58.73565362936733,23.04816787987829,20.870738832663392,20.817700020535256,20.07421073408756,78.80986436345489,65.42705720739653,68.98042153024242,{}
119,93,119,0,4.760000000000003,83.25066920423285,169.53324877077984,19.326048208125545,38.65209641625097,49.080949429942976,57.99720071186699,32.739389408234,173.94078683015525,135.29050544707198,93.65700285476196,74.33095464663654,69.87109736783833,39.39540596271735,101.833407865892,60.208073263775646,21.55597684752456,14.940336979957472,13.379571836394575,13.379571836394575,83.25066920423288,68.38447827490558,69.4109443379734,{}
120,93,120,0,4.800000000000003,78.22939184266956,171.2140198730653,17.70916319624564,38.39822317325851,50.26269704768532,59.10428610741451,33.94256279280421,168.2629389619118,129.87558152224435,90.75946138075903,70.83665278498268,67.88512558560842,35.41832639249134,98.87616117903832,59.0305439874856,20.66069039561995,7.378817998435693,7.52494739225466,7.378817998435693,84.11852518216693,67.88512558560839,67.45063057018415,{}
121,93,121,0,4.840000000000003,65.93928553470634,169.9916915671678,17.579469401938297,39.55380615436116,48.36573206184915,55.74536938722,33.72581484894571,156.75026883394975,117.1964626795886,84.23495755095433,68.85292182425832,64.45805447377376,32.961505128634315,90.09478068493372,49.07601874707774,18.31194729368576,8.78973470096912,7.4698381265908385,7.324778917474248,80.57256809221715,65.9230102572686,69.84321693896624,{}
122,93,122,0,4.8800000000000034,48.335761494524434,171.42857142857144,19.09761288438817,39.5474412227926,48.35794913007184,55.67863101762263,33.8156881387983,140.62075289101125,101.07629648100848,76.89780237765245,62.98296194741056,58.58880181154467,27.09732083783939,79.82724246822966,38.81508120014837,10.98540033966458,10.357134765634465,10.357134765634465,9.520680294376008,79.09488244558534,62.98296194741053,72.49994335944135,{}
123,93,123,0,4.920000000000004,40.95796607374789,168.02094025411918,18.96787266568623,42.31294671576154,46.78125091477956,52.60741344815654,33.55854394698332,135.72461707669407,93.42588092168889,72.95335640648551,65.65802076583691,56.90361799705869,27.722275434464507,74.41242353461519,32.099476818853645,11.672537025037684,16.115923178503273,14.590671281297093,14.590671281297093,78.78962491900435,62.73988650957756,70.77603626204682,{}
124,93,124,0,4.960000000000004,29.2265474297228,162.32678159767008,21.89256195206997,42.35077616241844,42.42615582959348,48.25201001344539,35.14951404238931,128.56897718231014,86.22198993038633,71.5157023767618,65.67768585620985,55.46115694524383,25.541322277414963,67.8669420514168,25.541322277414903,5.108264455483038,19.02960567119764,19.02960567119764,17.514049561655952,80.27272715758983,65.67768585620985,72.46257954295122,{}
125,93,125,0,5.000000000000004,10.320252675903555,156.6028208485086,23.35206608220789,37.9751643984255,36.60417736276452,41.10000947166159,39.64911602730539,111.1621047230896,73.2083547255292,67.8669420514168,64.21818172607186,52.542148684967856,18.97355369179394,52.54214868496791,13.135537171241992,1.4595041301379863,22.086305214969265,21.941158153823867,20.433057821931985,83.1917354178658,65.67768585620985,66.70748209162107,{}
126,93,126,0,5.040000000000004,2.056697986916272,153.0409964557424,24.72318658782035,39.26623752183235,36.47378618476126,40.95360326786012,39.507878187308215,104.87143168852928,65.70176363597652,64.71657665635325,61.08081392285027,50.90067826904186,16.72450857411377,48.71922062894015,9.452983107107798,3.635762733502986,21.862999493677453,20.412144694383656,19.633118760916147,79.98678013706584,65.44372920305386,67.90218850839796,{}
127,93,127,0,5.080000000000004,6.527970052875525,149.34648741126378,26.274572627962584,43.81527593381495,36.60905161573411,42.43180534369083,39.654395747694096,115.64829115286376,71.89663324706771,68.60582852856902,65.68643156990646,54.00884373525645,20.43577871063757,55.46854221458773,11.677587834650067,2.919396958662503,24.8577693822872,21.89547718996885,21.89547718996885,81.74311484255028,65.68643156990649,68.1540082330094,{}
128,93,128,0,5.120000000000004,10.283489934581231,145.89514473904526,24.72318658782035,43.65338449110314,37.923637051198256,42.275025635300366,40.95360326786012,119.4745048258028,75.8472741023964,70.53379702995807,68.35233938985624,56.717898642646674,21.81457640101792,56.717898642646674,11.634440747209624,5.684341886080804e-14,23.44996501532768,21.862999493677453,21.087423854317365,84.34969541726943,68.35233938985627,65.03850097738524,{}
129,93,129,0,5.160000000000004,8.81351552725669,145.07430629989793,24.63186146377768,43.46799081843108,36.33905545190053,40.67348830658712,39.361939804191486,116.05944503991826,72.67811090380117,68.09985228220881,65.20198622764673,57.95732109124151,22.458461922856145,54.33498852303888,7.969131650045654,0.7244665136405501,23.228163461825176,23.18292843649664,21.733995409215595,84.03811558230018,68.09985228220876,64.79825487689907,{}
130,93,130,0,5.200000000000004,10.243622129583034,149.38839988060562,27.52467175261484,42.0113410960962,36.2456351173174,42.111130645462914,40.79483126735804,120.37890511830392,78.44233818370778,73.15768018458152,68.08734591436297,60.84401124262223,23.903004416744466,55.77367697240362,12.31366894195918,0.7243334671740627,21.7782393776046,21.778239377604603,21.00567054804816,82.57401525784445,66.63867898001484,65.97401631673782,{}
131,93,131,0,5.240000000000004,20.21331379472275,155.99142491680558,27.432354435695288,46.20186010222358,41.87043571764013,46.29201015887732,34.921059805777254,128.57190421919904,82.41096933157525,72.19040640972429,67.85898202514085,63.52755764055741,31.04187475618147,62.80565357646015,15.159985346042165,5.053328448680702,24.58716645328888,23.280706537184862,22.37902598701453,83.74087143528021,69.30279015333534,67.41208026806633,{}
132,93,132,0,5.280000000000004,25.93099865896517,159.7199260782543,24.452681075555063,46.051045548559536,43.24757668878235,47.66271005605567,33.20788120281183,129.5831644788948,83.5383191717814,70.48125721777637,64.72768519999875,60.412506186665496,29.487056591110505,66.88527470666537,19.418305559999624,7.91116152444431,23.0591940417548,21.623788344391123,20.856698564444,80.55000824888734,66.16607820444318,65.50612932143551,{}
133,93,133,0,5.320000000000004,27.26663914792128,154.88121495242186,22.929643788707324,45.88167434349159,41.6586967967669,47.37916541527833,31.65827420522221,127.67489681233862,81.79991744376375,68.07237999772485,64.48962315573931,58.757212208562464,30.095157472678352,65.92272589253349,18.63033557832472,10.03171915755945,22.97438459961901,21.54425818288464,20.0634383151189,81.68685599726982,65.92272589253352,65.2652042364491,{}
134,93,134,0,5.360000000000004,21.46942953464488,151.549589587851,22.85000334647134,44.271881483788206,40.01299996529429,44.36392291678779,33.12511717422435,121.52498022997464,77.33004596779897,66.40782222568248,64.26563441195077,57.12500836617846,27.84844157851193,60.69532138906459,13.567189486967436,7.854688650349487,24.3200959656108,22.894588761250475,22.13594074189416,84.25938734011322,68.55001003941416,63.62774632068637,"{'others': (['m1', 'm3', 'm12', 'e1', 'e2'], 6.450259877294699, 206)}"
135,93,135,0,5.400000000000004,12.88362149165816,146.71663542022304,22.80854557553975,42.70644553069414,38.51971084102573,42.777484857084666,32.754348520159674,111.12095073233306,68.42563672661936,61.889972247210665,62.60135123855787,55.48756132508538,26.32102267984817,51.93066636834919,7.825168904819748,6.402410922125227,21.388742428542336,21.341369740417463,20.629990749070203,82.5199629962809,65.44686720394691,66.42923907858358,"{'others': (['m1', 'm3', 'm12', 'e1', 'e2'], 6.450259877294699, 206)}"
136,93,136,0,5.440000000000004,7.276475183212412,147.15760346169594,24.259581236129065,42.83480301101672,38.63548477081242,41.48229092621282,31.42716804807747,105.68727356598716,62.85433609615493,59.22191889996213,61.3624701855029,54.22729923370025,26.400132521669832,47.80564537707789,3.567585475901353,4.994619666261826,24.4268906755276,21.45302792576133,21.40551285540801,84.19501723127146,65.64357275658455,63.81890911725052,"{'others': (['m1', 'm3', 'm12', 'e1', 'e2'], 6.450259877294699, 206)}"
137,93,137,0,5.480000000000004,8.649485411104598,145.2147535742494,25.59539956136507,42.68269213345597,36.9984681065892,41.33498296090271,31.412269837159297,108.21904200016904,65.54942337727225,61.14456561881656,62.56653226111462,55.45669904962432,27.728349524812188,49.05784915928302,4.976883248043237,4.976883248043237,22.795859423912123,21.376845973826505,21.32949963447089,85.31799853788357,65.41046554571074,64.99180945586753,"{'others': (['m1', 'm3', 'm12', 'e1', 'e2'], 6.450259877294699, 206)}"
138,93,138,0,5.520000000000004,11.72583732459946,140.88955712530017,28.47485982151938,45.52514536059855,35.57759402365575,39.91650580731025,35.66274195722329,120.90061800438836,75.48486850645043,69.67636547260486,69.67636547260497,63.98849890341273,31.283266130557365,54.03473240732615,7.1098332114902405,5.687866569192238,25.752911199186023,22.79585942391213,22.04048295561995,86.73996518018163,66.8324321880088,63.86197678476276,"{'others': (['m1', 'm3', 'm12', 'e1', 'e2'], 6.450259877294699, 206)}"
139,93,139,0,5.560000000000004,14.396583985152615,145.51482951924288,26.82232289842375,45.17443856576642,35.32075286902488,41.03657816311694,36.73136940222616,122.89100218541384,77.7589833271612,70.58506025900999,67.76165784864963,62.1148530279288,28.23402410360404,57.87974941238815,11.293609641441549,4.235103615540652,24.04040525625756,22.63129194778235,22.58721928288321,84.70207231081201,66.34995664346943,61.74478326100864,"{'others': (['m1', 'm3', 'm12', 'e1', 'e2'], 6.450259877294699, 206)}"
140,93,140,0,5.600000000000004,18.46808348102652,143.123266435711,26.912309538009765,45.32599501138486,35.439251027084,42.58744479067495,35.52406786405518,126.13452091213968,80.84867528150885,71.53008587734172,67.98899251707729,63.73968048475996,30.453402898274305,60.19858712449548,13.456154769004796,6.373968048476058,24.245501885603133,21.24656016158661,21.24656016158661,83.56980330224081,67.98899251707726,61.95193182076096,"{'others': (['m1', 'm3', 'm12', 'e1', 'e2'], 6.450259877294699, 206)}"
141,93,141,0,5.640000000000004,22.711347793892628,148.81367303607803,25.50050912983079,46.7509334046897,38.27698979566386,44.0088482641774,34.11853249935708,128.98927792016,82.27814976499307,70.83474758286326,66.58466272789138,62.33457787291962,30.45894146063108,64.45962030040562,16.291991944058623,7.791822234114875,22.84351970194848,22.711347793892696,21.958771750687617,82.16830719612133,66.58466272789144,61.96319902261266,"{'others': (['m1', 'm3', 'm12', 'e1', 'e2'], 6.450259877294699, 206)}"
142,93,142,0,5.680000000000004,23.883110560169097,150.08991805770722,23.88311056016904,47.68379444784364,37.89250531489271,46.302574492059605,33.921091875476776,129.09531850078972,81.45168269273655,69.42199485789018,63.11090441626379,60.30597533109648,28.049290851672765,67.31829804401468,18.2320390535873,5.609858170334519,22.61406125031788,21.03696813875456,21.03696813875456,82.74540801243475,67.31829804401471,62.72012106500336,"{'others': (['m1', 'm3', 'm12', 'e1', 'e2'], 6.450259877294699, 206)}"
143,93,143,0,5.720000000000004,29.59264105108945,152.07710425542086,21.16054316066167,45.04250858217051,40.84403478565675,46.53531656441966,34.044779420569576,129.5660428243742,84.56020607316873,69.6751304630451,61.93344930048448,57.710714120906005,26.04020027406728,69.6751304630451,21.817465094488853,7.741681162560496,22.56519824368289,21.160543160661724,20.409886701296045,80.23196841199129,66.15618448006299,62.71231706747783,"{'others': (['m1', 'm3', 'm12', 'e1', 'e2'], 6.450259877294699, 206)}"
144,93,144,0,5.760000000000004,25.385541505810973,154.99738949418594,22.53018376729125,45.0603675345825,40.86022908070191,45.14829028654732,33.912417338926026,126.80267096869257,81.78109514990675,68.9986877873294,61.95800536005095,56.32545941822809,25.34645673820268,67.59055130187375,19.71391079637982,5.632545941822798,23.97970026678288,22.57414514327365,21.826115524563363,80.26377967097508,66.18241481641806,66.91241738761461,"{'others': (['m1', 'm3', 'm12', 'e1', 'e2'], 6.450259877294699, 206)}"
145,93,145,0,5.800000000000004,26.69765984202724,157.2145273974827,21.047967726081367,44.90233114897353,40.69273760375722,46.39049334221592,32.39533792914031,124.9555365721462,80.09297952608183,66.65189779925748,58.93430963302768,54.72471608781143,24.55596234709492,68.05509564766294,21.74956665028401,4.911192469419007,23.89559830833254,22.494972768482945,21.749566650284063,79.98227735910908,65.95029887505487,65.51596721302178,"{'others': (['m1', 'm3', 'm12', 'e1', 'e2'], 6.450259877294699, 206)}"
146,93,146,0,5.840000000000004,25.298221281347026,158.6279633899105,21.04939246336869,43.50207775762863,42.12216664746629,46.32992055315373,32.54913445617497,122.21544658763632,78.78461388250493,65.95476305188862,57.53500606654114,53.325127573867405,23.15433170970556,66.65640946733419,21.75103887881432,4.911524908119361,22.627416997969508,21.235673903925104,20.347746047923067,79.98769136080105,64.55147022099734,69.67175788046289,"{'others': (['m1', 'm3', 'm12', 'e1', 'e2'], 6.450259877294699, 206)}"
147,93,147,0,5.880000000000004,25.40299233700924,157.19646484019265,21.039684079826657,43.48201376497502,40.70089891459633,46.30855230516347,32.38258840751445,122.15907847951635,78.74827690745386,65.92434345012356,56.10582421287114,50.49524179158402,21.03968407982672,68.72963466076703,23.844975290470188,2.8052912106435883,22.6169807992448,21.08638709862455,21.039684079826657,79.95079950334139,65.92434345012359,66.87251752217858,"{'others': (['m1', 'm3', 'm12', 'e1', 'e2'], 6.450259877294699, 206)}"
148,93,148,0,5.920000000000004,28.19302010351125,159.31593111436928,19.71049133788836,40.828874914197286,42.2602255088573,46.545692460424505,32.65581691816429,121.20962846942788,80.44721382429094,66.17093520576805,56.31568953682381,47.86833610630026,19.71049133788836,68.98671968260925,25.342060291570704,2.815784476841202,22.570229565431426,21.16526128898766,21.11838357630893,80.24985758997394,66.17093520576799,65.73515048975545,"{'others': (['m1', 'm3', 'm12', 'e1', 'e2'], 6.450259877294699, 206)}"
149,93,149,0,5.960000000000004,22.70368979950968,155.1127702710068,21.12034603858428,42.26415261331615,40.85693805554498,45.14465388600669,33.90968591472453,119.88884429103824,77.64580206315797,66.17708425423075,56.32092276955802,47.87278435412435,18.304299900106287,67.58510732346974,22.528369107823323,5.684341886080804e-14,22.57232694300329,21.30725539912587,21.120346038584216,80.25731494662023,66.17708425423072,66.9070280284777,"{'others': (['m1', 'm3', 'm12', 'e1', 'e2'], 6.450259877294699, 206)}"
150,93,150,0,6.000000000000004,17.071794101562777,148.98714451511998,23.855978125151186,42.09878492673738,39.39230694125243,43.59251876535343,36.72768815108133,119.48607900890828,77.49937965012268,68.76134871367111,60.34159172832364,51.92183474297616,19.646099632477444,63.14817739010607,18.2428068015862,0.0,24.020504061834647,22.627416997969508,23.15433170970556,79.98769136080105,67.35805588277984,65.09826891234982,"{'others': (['m1', 'm3', 'm12', 'e1', 'e2'], 6.450259877294699, 206)}"
151,93,151,0,6.0400000000000045,14.150456717520418,149.57553059641785,25.34441524630108,42.26415261331616,38.1207781957839,42.451370152561054,37.03930402624059,118.57527317786952,76.35848139977773,68.99313039270868,61.95301504651383,52.096853561841215,20.416334503964777,61.24900351189444,17.600288365486904,0.7040115346194398,23.97776885820761,22.57232694300329,21.82435757320377,78.84929187738123,66.17708425423069,66.9070280284777,"{'others': (['m1', 'm3', 'm12', 'e1', 'e2'], 6.450259877294699, 206)}"
152,93,152,0,6.0800000000000045,13.405938563470702,147.29596003962143,24.022870018616857,42.39330003285306,38.2585016501946,42.48740292341118,36.984628083956416,116.18480088341263,73.96925616791295,67.12272505201747,62.17684004818466,52.28507004051886,20.490095015879035,58.64406504544684,14.837655011498669,0.7065550005476098,25.47520283409689,22.785714111054364,22.60976001752169,79.13416006132587,66.41617005146992,62.75226779873824,"{'others': (['m1', 'm3', 'm12', 'e1', 'e2'], 6.450259877294699, 206)}"
153,93,153,0,6.1200000000000045,12.796255302469971,151.44030297980342,24.022870018616857,42.41684532766074,39.6678880412566,44.01106087041256,35.58120066655469,114.67977527896672,72.28993452331619,65.70961505092237,60.76373004708955,52.28507004051886,21.196650016426645,57.93751004489923,14.13110001095106,5.684341886080804e-14,24.18854694751501,22.6538766643839,21.90320501697414,79.13416006132587,67.82928005256503,65.55368404155224,"{'others': (['m1', 'm3', 'm12', 'e1', 'e2'], 6.450259877294699, 206)}"
154,93,154,0,6.160000000000005,15.745395932091077,151.01139917726607,23.94128743302696,40.84101973869292,38.12857431499284,42.343114077706886,35.46036554791487,115.69598646973138,74.97189741908637,66.89477370992819,59.14906306983124,49.29088589152599,19.01219884387433,61.26152960803944,17.603887818402143,2.1124665382082526,23.982672576159665,24.106401716736585,23.23713192029089,78.86541742644164,69.00724024813641,65.33106122275889,"{'others': (['m1', 'm3', 'm12', 'e1', 'e2'], 6.450259877294699, 206)}"
155,93,155,0,6.200000000000005,16.957364529816427,153.7297159703214,22.53171959093436,42.24697423300199,39.45564827890068,45.15136792729735,35.45838768329635,117.0189499083248,74.8485827072756,66.1869262983696,59.14576392620268,50.69636907960228,19.715254642067578,61.96222887506951,18.30702216763416,0.0,24.10505713953609,22.575683963648675,22.53171959093436,77.45278609383683,66.18692629836966,66.72406976571185,"{'others': (['m1', 'm3', 'm12', 'e1', 'e2'], 6.450259877294699, 206)}"
156,93,156,0,6.240000000000005,17.13188745886519,152.40823257651704,21.123487116501,39.45564827890068,39.53096934321829,45.15136792729735,34.06059953521889,111.57076719625256,72.16418579586535,63.37046134950288,57.737531451769314,47.879904130735554,19.011138404850897,58.441647688986,16.194673455984116,0.7041162372166809,18.30702216763416,16.957364529816427,16.19467345598406,77.45278609383686,64.77869382393627,65.32741726724734,"{'others': (['m1', 'm3', 'm12', 'e1', 'e2'], 6.450259877294699, 206)}"
157,93,157,0,6.280000000000005,8.597329520725769,151.55625421226648,19.78749173432874,40.98837573539532,39.6002145732089,42.42531800006204,34.18539826167552,103.33241168558015,62.44571138007718,57.949082936248544,55.12229840277303,45.22855253560863,16.254011067484328,53.002210002666345,10.600442000533292,0.7066961333688937,7.20691474845706,8.480353600426668,7.773657467057774,76.32318240383955,65.0160442699374,62.764802427454384,"{'others': (['m1', 'm3', 'm12', 'e1', 'e2'], 6.450259877294699, 206)}"
158,93,158,0,6.320000000000005,6.342817209123502,156.533995115612,21.32167982773377,38.32027596997292,39.813495298015646,42.64335965546755,32.651650018511376,98.11909755241774,59.83801787495486,56.73188179382242,55.31358474897684,42.54891134536683,16.310416015723945,48.93124804717184,7.80063374665059,0.7091485224227654,7.231924307738454,7.091485224227824,7.091485224227824,76.58804042166031,65.24166406289581,64.38818658564458,"{'others': (['m1', 'm3', 'm12', 'e1', 'e2'], 6.450259877294699, 206)}"
159,93,159,0,6.360000000000005,6.365989518335221,156.89936553890843,21.35217796057321,37.0378062691991,38.46027200873316,42.79914928067444,32.86355383844434,97.0578562053534,60.05662500284503,56.93914122819524,55.51566269749037,45.55131298255617,17.793481633810984,46.26305224790866,7.82913191887684,0.7117392653524348,11.476450813712027,9.964349714934144,9.25261044958171,76.86784065806359,65.48001241242451,67.64144709879363,"{'others': (['m1', 'm3', 'm12', 'e1', 'e2'], 6.450259877294699, 206)}"
160,93,160,0,6.400000000000005,11.822525091376823,152.51812093165506,22.98382730018833,40.16896265554667,37.38610698324101,41.79893831430319,36.09943602011238,110.84950124775747,70.77559883697484,64.51612903225805,63.08243727598568,50.179211469534096,20.788530465949805,53.76344086021504,12.186379928315432,2.150537634408636,17.204301075268802,17.441612990102414,16.48745519713259,78.85304659498209,67.38351254480287,68.12676341514968,"{'others': (['m1', 'm3', 'm12', 'e1', 'e2'], 6.450259877294699, 206)}"
161,93,161,0,6.440000000000005,24.502555673267555,145.77795801366688,24.46027340591661,41.75114896074062,36.08591388731894,41.94902281313632,37.84996070188505,128.34739685562153,86.62961636484198,74.10024002380624,70.50314099352431,58.99242409662236,27.33795263014207,63.30894293296063,20.143754569578448,4.3165188363382185,20.195076320449868,20.195076320449875,19.42433476352204,80.57501827831354,69.06430138141161,66.94857477659976,"{'others': (['m1', 'm3', 'm12', 'e1', 'e2'], 6.450259877294699, 206)}"
162,93,162,0,6.480000000000005,27.57434433397157,143.83647276289284,26.086956521739182,42.05396558999104,37.93116616899238,43.695111396177815,42.42690193711434,137.95548566854794,95.92626517897337,81.88405797101456,75.36231884057969,65.21739130434781,28.26086956521744,67.39130434782601,23.913043478260875,6.52173913043481,23.23365150997304,21.787386055612927,21.739130434782624,82.60869565217394,68.11594202898553,63.38819631486676,"{'others': (['m1', 'm3', 'm12', 'e1', 'e2'], 6.450259877294699, 206)}"
163,93,163,0,6.520000000000005,24.951314462072208,145.32012622115428,24.908257804517348,41.02536579567561,36.74681927306419,42.71730971839583,46.00795059019393,136.5461131033128,95.64234104048694,82.78332740913123,74.72477341355199,65.93362360019302,24.908257804517348,65.93362360019296,23.44306616895756,4.395574906679485,23.4430661689575,22.17237278960976,21.24527871561776,83.51592322691113,68.86400687131268,64.0843399733001,"{'others': (['m1', 'm3', 'm12', 'e1', 'e2'], 6.450259877294699, 206)}"
164,93,164,0,6.560000000000005,24.951314462072208,142.60613166483176,23.4430661689575,39.58729803999776,35.28648731129844,41.26017107852585,45.79749380424104,133.6219426628058,94.0579995835377,81.31813577357138,76.18996504911195,64.46843196463317,24.908257804517405,63.00324032907327,21.977874533397653,4.395574906679599,23.48880878058813,22.02666010848408,21.977874533397653,83.51592322691113,68.86400687131268,66.96743282299589,"{'others': (['m1', 'm3', 'm12', 'e1', 'e2'], 6.450259877294699, 206)}"
165,93,165,0,6.600000000000005,13.36506322125332,148.32855918665155,23.614789241757137,36.927614878839634,37.16282499496687,41.56240643079501,46.60276346921937,120.13153671289672,83.2949764232221,76.01010287190564,70.8443677252713,56.08512444917312,17.711091931317753,56.08512444917324,17.711091931317924,1.4759243276099028,22.188007849009168,22.188007849009164,21.400902750342368,85.60361100136953,70.84436772527133,73.53007007273477,"{'others': (['m1', 'm3', 'm12', 'e1', 'e2'], 6.450259877294699, 206)}"
166,93,166,0,6.640000000000005,2.0950018864027946,151.6888426990686,25.183630688057804,37.06436697101024,37.30044812837835,40.2436720688788,42.13506627122544,105.68864054740708,68.72117144474049,67.4032468415665,66.66255182132949,53.3300414570636,18.51737550592486,45.18239623445663,6.666255182132943,2.222085060710981,23.748488965995044,22.27017553041529,22.22085060710981,82.95784226654337,69.62533190227745,69.16679742039416,"{'others': (['m1', 'm3', 'm12', 'e1', 'e2'], 6.450259877294699, 206)}"
167,93,167,0,6.680000000000005,2.110634277256452,153.1119336886747,23.92569437287805,37.43030033218665,37.57877493464251,42.21268554512835,40.73578834382384,103.66846019279646,66.27526064525959,64.92130573729588,65.66752764232228,49.25064573174171,17.16310381560703,45.5195362066097,6.715997145237452,2.238665715079094,23.92569437287805,22.58477302280789,21.640435245765275,83.5768533629556,71.63730288253339,70.91856803461445,"{'others': (['m1', 'm3', 'm12', 'e1', 'e2'], 6.450259877294699, 206)}"
168,93,168,0,6.720000000000005,10.863113563467538,153.25033955555742,25.410627150231903,41.88702284711467,37.57171452378987,42.204754501509626,38.042851605890704,115.86146799610329,74.08407226542619,67.89343494190291,67.14735323924464,49.24139237544608,20.890287674431647,56.702209402028814,13.429470647848971,1.4921634053165462,23.921199142990965,22.58052972917126,20.890287674431704,83.56115069772673,71.62384345519436,72.38146158426419,"{'others': (['m1', 'm3', 'm12', 'e1', 'e2'], 6.450259877294699, 206)}"
169,93,169,0,6.760000000000005,18.21924534832735,151.99847131711073,23.96180387786285,40.46326810888803,37.55993649509841,42.35888502874739,37.91652616774121,120.26678876318222,79.88047927841723,70.38779889122213,68.89018614885566,53.91405872519141,23.96180387786285,58.40689695229071,16.473740166030723,2.9952254847328845,23.96180387786285,22.66299316234531,21.715384764313228,83.86631357252,70.38779889122213,69.92424299836419,"{'others': (['m1', 'm3', 'm12', 'e1', 'e2'], 6.450259877294699, 206)}"
170,93,170,0,6.800000000000005,12.349631046095416,152.1533272892399,23.96180387786285,37.55993649509846,34.73686848639184,40.68438050973048,38.181782985658096,111.63997356381012,74.12804880030781,67.39257340648925,67.39257340648925,50.91883324045858,21.715384764313228,51.66763961164179,14.227321052481043,2.2464191135496208,22.51405621602236,21.17944251437369,20.96657839313002,85.36392631488638,73.38302437595496,71.40016977585842,{}
171,93,171,0,6.840000000000005,3.3613445378151785,153.0796307460262,19.54210669411583,31.603789643141187,37.7010417285646,41.030439044483096,38.32522437308023,90.99253413479592,59.56317696359447,57.8747005941122,67.64575394117008,48.10364724705431,20.293726182351065,32.319637994114544,0.7516194882352352,3.758097441176119,24.0987540557108,22.74813353369902,21.79696515882148,85.68462165881547,75.16194882352235,67.5120004658896,{}
172,93,172,0,6.880000000000005,1.509047214388488,150.88208403269212,19.67556845921055,30.33147362200485,37.99683797358235,41.1889730870265,38.47330596549658,88.57220185333543,58.308615816304055,57.34379414675948,67.90712464747833,46.78046364604063,19.61761378704932,30.18094428776812,0.0,4.527141643165237,22.685954022858983,24.19186719292516,22.635708215826128,84.50664400575084,73.94331350503197,64.51948968585565,{}
173,93,173,0,6.920000000000005,3.386014759052599,151.1998720943649,19.68553385255359,33.34837787669143,38.12839055444845,41.33157747207018,38.60650817294699,93.16156736031724,60.00033439769998,58.29946564025488,68.14223256653167,48.456698713978085,20.44266976995948,34.07111628326584,0.7571359174059467,5.299951421841342,22.714077522177263,21.415037659104605,20.44266976995948,84.7992227494617,74.19931990577899,64.7428689415254,{}
174,93,174,0,6.960000000000005,15.506290805608003,157.50382886984903,21.287236761872123,38.04332097287485,41.30659872974334,44.330304833092384,35.78871763285467,110.15092994598244,72.25255739216011,63.86171028561637,66.90274410874099,50.17705808155574,23.568012129215617,50.93731653733681,11.403876836717188,5.321809190468059,21.287236761872123,21.503356381490565,19.76671985030987,85.14894704748849,72.98481175499015,65.00987792649836,{}
175,93,175,0,7.000000000000005,33.71745286701314,163.89265916273234,21.36844324977949,39.68425174959043,45.89116293119665,50.57617930051974,31.130888315921528,125.49262276822768,85.96297505877256,68.68428187429112,67.15796449930684,53.42110812444861,29.763188812192823,64.86848843683049,23.65791931225584,11.447380312381824,19.84212587479521,20.075570680504534,19.07896718730308,85.47377299911776,77.84218612419653,68.00253515435959,{}
176,93,176,0,7.040000000000005,36.741475125722125,165.47031736260433,19.83288731027397,41.21962363098152,45.99647323291385,52.07215540085027,31.11639366337655,128.5951629400275,87.44002616227266,68.65230222787147,65.60108879552166,50.34502163377243,27.46092089114859,70.17790894404652,28.986527607323524,10.679247013224426,21.412910659933456,21.412910659933456,20.59569066836144,83.90836938962076,77.80594252492108,67.97087293164256,{}
177,93,177,0,7.080000000000005,37.01794508870524,165.4993254587691,19.98212458509096,39.993797602440736,46.21495402419148,50.93302613832527,31.35053636382181,128.03109440544287,88.09798942350814,69.16889279454563,67.63180628800018,49.18676820945467,27.667557117818266,69.16889279454574,29.20464362436377,10.759605545818204,21.519211091636407,20.21721649111256,19.98212458509096,83.00267135345484,76.85432532727302,65.4481254548919,{}
178,93,178,0,7.120000000000005,27.599589618383835,157.42005512857492,19.961142946122138,38.39602508785803,41.59001959280288,47.852896001739765,34.53980133012791,120.20637055806256,81.84498176470235,67.36179021903462,70.42368977444522,50.52134266427595,26.79162110984328,58.94156644165525,20.66782199902201,9.951173555084608,22.964246665579992,20.136500425374063,19.90234711016928,81.14033821838254,75.01653910756121,66.69742204225504,{}
179,93,179,0,7.1600000000000055,4.39659999498503,158.49880184516908,23.316492529639675,32.79079658337155,39.1396187083528,43.9659999498499,35.44652237573714,94.55245806484724,61.88517093446611,59.06844774175392,66.84061191830051,45.07855222397012,21.76205969433039,37.306388047423525,4.663298505927912,3.108865670618627,23.31649252963973,21.817504522265768,20.984843276675747,80.8305074360843,74.61277609484705,70.5685115811879,{}
180,93,180,0,7.2000000000000055,1.5549965292030947,160.09669135192854,21.76995140884236,31.255043419530185,40.698153901570365,43.98194362084019,35.082320772281186,87.96388724168044,56.75204773547973,55.979875051308966,63.7548576973241,41.98490628848174,18.659958350436284,34.209923642466606,4.664989587609114,1.554996529203038,21.76995140884236,21.99097181042008,20.21495487963932,80.8598195185574,71.52984034333923,66.21072235805967,{}
181,93,181,0,7.240000000000005,9.87127872806568,161.8483373020999,21.85100693934021,35.93199694401771,42.601172835009976,47.05712184356114,36.43692094953391,103.5896523691132,67.76400979238545,62.43144839811493,63.99223460806775,45.2628000886333,18.72943451943445,48.38437250853906,12.486289679622985,1.5607862099528802,21.85100693934021,20.52893742062593,20.29022072938733,81.16088291754932,73.35695186778497,68.26544165060038,{}
182,93,182,0,7.280000000000006,23.478064489968524,169.54026789829135,23.47806448996852,42.19582686567532,43.97893065393256,50.36452487469396,33.38613703831975,122.30509631804328,80.197925890095,67.93558642154363,64.03124237432849,46.85212856658183,22.64519547384782,66.37384880265756,24.206933092733948,2.342606428329077,21.92003204555253,18.99935814063457,19.5217202360758,79.64861856318907,71.83993046875878,71.12338986132382,{}
183,93,183,0,7.320000000000006,36.05551275463989,177.31053096261346,24.98780190217701,37.61162249014876,51.74986744415689,58.12098399449032,27.27457495588866,125.5621505810433,87.95786130786527,69.49732404042976,60.9077671365564,43.72865332880974,25.76867071162001,72.62079927820184,35.13909642493638,5.466081666101218,21.86432666440487,20.54145125136476,19.521720236075737,79.64861856318907,70.27819284987271,72.91826362943446,{}
184,93,184,0,7.360000000000006,40.7074530028038,183.6021076137792,21.910515062447107,34.37877068170781,53.28223534688589,59.648002108499774,26.94806621711831,123.80688491466536,89.4720031627496,68.68662072426059,56.198144228940464,37.46542948596033,20.29377430489518,76.4919185338357,42.148608171705405,3.122119123830032,21.91051506244705,20.82713225916236,19.513244523937715,78.05297809575063,70.24768028617555,72.8866048306884,{}
185,93,185,0,7.400000000000006,40.78312096755381,187.4692553168639,20.43669125196677,34.62549846506086,53.49942149040551,58.33255643390878,27.057910455801377,122.7503122418442,88.12484600659015,67.39917471600995,56.42721604131066,37.61814402754044,20.376494681584404,75.23628805508082,40.75298936316881,4.702268003442555,21.94391734939859,19.38794765815595,18.025360679863127,79.93855605852337,72.10144271945245,74.7284270669482,{}
186,93,186,0,7.440000000000006,44.17261042993858,189.3604308902096,20.45659319208892,34.654594838485565,52.0235563447748,58.41367972870576,27.48146470919684,126.36771857218926,91.7549314119156,69.2377000347625,53.501859117771005,39.33960229247867,19.66980114623931,79.46599663080701,44.84714661342571,2.3603761375487124,22.08630521496932,19.14347670252189,18.88300910038976,78.67920458495738,72.38486821816079,73.47138101433795,{}
187,93,187,0,7.480000000000006,43.99255874091099,190.15139705568515,20.37321020611324,32.94786277588859,51.92987580128418,58.17558011007094,25.84643003468207,122.73052618953577,89.82222333856514,67.38831068175926,50.149440507355735,36.04491036466192,18.02245518233093,79.14208580067077,46.23151546771862,2.350755023782256,20.37321020611324,19.065446102097702,18.806040190258383,78.35850079274329,72.08982072932383,73.1719047977849,{}
188,93,188,0,7.520000000000006,43.915815469697456,193.30840177234248,20.43669125196677,33.06481740025329,52.10354374352477,58.33255643390889,27.057910455801377,124.31153979073684,91.24769605063427,68.96659738382408,48.59010270223973,34.48329869191207,14.890515344234757,82.28969006024465,47.80639136833258,0.7837113339070925,20.43669125196677,17.524318173532947,17.241649345956034,79.93855605852337,70.5340200516383,72.93148784568844,{}
189,93,189,0,7.560000000000006,42.11807817898779,196.40869840565128,20.22366726735873,34.260005501292,53.09816610390678,57.748561141268446,27.168551140440734,123.37918064449978,89.16291245394653,67.67150201000811,46.670001386212505,34.22466768322249,14.0010004158637,82.4503357823088,48.22566809908631,1.555666712873801,18.73270785614817,18.92550238140128,17.89016719804812,79.33900235656128,70.00500207931876,72.3844884290931,{}
190,93,190,0,7.600000000000006,43.57457682159787,194.90866475011475,18.72760974989392,34.356448279845786,53.08371543853682,59.28313432137525,28.380527709178462,124.89485214603071,90.538674935815,68.430706880515,48.212543483999184,34.2153534402575,13.219568374644894,83.20551859335342,47.4349218149024,0.7776216690967885,18.662920058322243,17.38814912877201,16.330055051031934,77.7621669096761,69.9859502187085,73.9027022304831,{}
191,93,191,0,7.640000000000006,42.27696411744319,195.8155302863809,20.29995888586825,36.05084183534903,51.90783853306729,57.96641140244107,26.956278711013464,125.40013224237462,89.34929776693942,67.92678550271296,48.4075942663012,32.7922412771718,14.053817690216476,84.32290614129886,48.4075942663012,0.0,18.738423586955264,17.804241732453796,16.3961206385859,78.07676494564714,70.26908845108241,71.11417596895751,{}
192,93,192,0,7.680000000000006,44.960615804461455,197.2730288472576,18.65779024347336,32.68558111528961,52.88581090825311,57.51760764702018,26.747570274093253,122.88575098453592,90.20113236202074,67.40086375441575,46.48335431339018,32.53834801937313,13.170283722127238,82.89531519221254,48.807522029059726,0.7747225718898676,18.593341725356083,17.323323344491445,17.043896581576405,77.47225718898369,69.7250314700853,72.09500155354685,{}
193,93,193,0,7.720000000000006,43.48879914444687,195.8160712437829,18.65513121253295,34.223483894454624,52.87827384166198,59.053700083735166,26.743758321230136,123.01465483515436,88.79366741279979,66.61664590100918,46.476729698378506,30.98448646558569,12.393794586234264,83.6581134570813,48.02595402165781,1.5492243232793044,18.590691879351425,17.32085449624291,17.04146755607212,74.36276751740562,68.16587022428848,73.6166881669575,{}
194,93,194,0,7.760000000000006,45.51959622048033,198.90001610264144,18.735711235369592,34.38426992333517,51.73567362710718,59.65754342628619,27.26709415746059,125.52771172580128,91.21307190618155,67.91695322821482,46.83927808842401,31.22618539228268,12.49047415691308,85.87200982877744,51.52320589726639,1.561309269614128,18.735711235369592,17.455968303788723,17.174401965755465,74.94284494147848,70.25891713263607,71.10388232568168,{}
195,93,195,0,7.800000000000006,42.09993364455492,195.12573301605727,20.27467422652425,34.35099609104117,54.77915323769913,60.96300381679053,25.313509526453792,121.9260076335812,87.57819968978428,66.08735249112863,48.20489240529383,31.09993058406053,14.772467027428718,81.63731778315889,47.42739414069234,0.7774982646014905,18.65995835043634,17.385389720371016,17.104961821233303,73.08483687254224,69.9748438141362,73.49723624621507,{}
196,93,196,0,7.840000000000006,45.01936715548286,195.88009396834568,18.6489778188595,32.8531705455465,54.55780912195407,60.71667284277129,26.5097017362058,122.974078460205,90.15852867376763,67.36902906107889,49.5588259759661,32.522979546727754,14.712776461614908,81.3074488668193,48.7844693200916,2.3230699676233826,17.03584642923829,17.31514121364724,16.26148977336379,74.33823896394907,71.24081234045119,73.20025865884638,{}
197,93,197,0,7.880000000000006,44.11565898072633,196.7244110690958,18.86427758491721,33.04731520383754,53.63150485807491,61.41763809597853,26.81575242903745,122.83527619195684,89.78915081189817,67.36349831774481,50.130975492275184,31.33185968267201,14.099336857202443,81.46283517494714,48.56438250814159,1.5665929841336492,18.799115809603222,19.058426208231907,18.0158193175364,72.06327727014562,70.49668428601203,75.6033294439762,{}
198,93,198,0,7.920000000000006,43.7863652747668,195.8744831690291,18.717896133121087,32.9045376244747,51.85097485111598,58.049792765425785,26.926748811434884,122.15528725547529,89.25141794388385,67.07246114368388,49.9143896883229,31.19649355520181,14.038422099840886,81.11088324352465,48.35456501056274,1.5598246777601616,17.15807145536104,15.90715293936456,15.598246777600934,68.63228582144401,70.19211049920409,72.02269815860035,{}
199,93,199,0,7.960000000000006,41.73715201899572,161.01698156780267,20.815542693752548,41.65762736367126,43.22032784808123,50.63941699262124,31.54031012749406,135.59480571958596,93.96448389065095,72.85439942813406,68.3939259937585,56.49933016875701,31.22331404062885,72.854399428134,29.73648956250372,13.381420303126674,16.355069259377046,14.942401075596097,14.124832542189267,74.34122390625922,68.39392599375847,64.36421779126712,{}
200,93,200,0,8.000000000000005,46.1050241248301,162.46274789989772,20.86382016438869,44.61933702830806,44.69355832223908,50.62787652030909,33.00533743815023,144.46468625174725,99.87148211677656,76.55401036683446,69.86482499497521,57.9729398894475,31.21619840201015,80.27022446231194,34.18916967839209,13.37837074371862,20.81079893467347,19.55166597993129,18.581070477387016,75.81076754773906,69.86482499497521,65.82631056459567,{}
201,93,201,0,8.040000000000004,59.233264079301705,161.7431496070919,19.30768188268941,41.56892396902989,47.4790730318762,53.39214271275544,32.87979746107142,152.7842219434465,111.22021335521556,81.44573810903984,71.07991689516206,60.71409568128422,33.318711044607255,86.62864871597878,42.203700656502406,17.029563422799242,19.250810825773044,20.942121351143843,19.99122662676428,78.48407490507478,72.5607484971446,68.69526567633152,{}
202,93,202,0,8.080000000000004,77.00851010631094,163.20195333045075,17.7679094574072,41.48488731621272,47.47354288532748,54.86436474427242,29.76088001571333,165.93954926485085,124.4546619486381,85.8782290441348,75.51361519398057,65.14900134382634,40.71812583989146,95.50251333356368,51.08273969004563,24.430875503934885,22.20988682175897,22.406438324086285,21.469557261033685,81.43625167978294,74.03295607252997,74.40220003928324,{}
203,93,203,0,8.120000000000003,89.15774591004225,163.69884439819756,17.831549182008416,40.120985659518965,47.6435799514388,56.54472687257794,31.522023364149,178.37120670718687,138.26638887344225,93.61563320554431,78.75600888720396,69.8402342961997,43.09291052318707,104.01737022838256,60.924459705195545,28.233286204846703,22.28943647751055,22.338913644888827,21.546455261593508,86.18582104637414,80.24197131903799,73.05436243718155,{}
204,93,204,0,8.160000000000002,92.62452640154498,164.82983127302094,17.642766933627627,39.723442762310654,47.070345236704185,55.94608899966358,30.90982780188143,180.8622656779924,141.14979271223663,94.8298722682485,77.92222062352204,70.5710677345105,43.371802045167954,106.59171689066682,65.42526071220243,27.19926568934261,20.63566951967549,20.5832280892322,20.5832280892322,88.2138346681381,82.33291235692889,75.34124834180972,{}
205,93,205,0,8.200000000000001,93.78182334132536,164.1570181227601,17.642888576264323,38.09421584337042,48.37254521065752,55.69543673002066,32.36648974282161,181.6801063299203,143.58589048654989,96.70070175624784,79.11875598238464,74.72326953891883,44.68744550856911,104.75909356926854,63.73455343025432,28.570661882527816,20.564530714893785,20.564530714893728,20.51227006950711,87.90972886931624,80.58391813020657,76.53982379043222,{}
206,93,206,0,8.24,90.52211828790804,166.42865201207744,16.124507236093464,35.06666324643483,45.25517305781898,54.03396283526924,32.249014472186886,173.72760446160143,138.68520775783236,93.43003470001338,74.4520589015732,72.99221460938548,41.60556232734979,99.99933401485804,63.503226710165336,25.547275113284968,21.897664382815663,21.94627191073387,21.897664382815663,89.0505018234503,80.29143607032404,73.35626781344867,{}
207,93,207,0,8.28,69.83148493099249,167.36945621644497,17.454083865042662,39.27168869634602,46.56694476601687,52.44299528471679,33.485265529430386,159.99576876289126,120.72408006654524,85.81591233645992,66.90732148266363,61.089293527649374,30.544646763824687,95.99746125773476,55.27126557263517,14.54506988753559,21.81760483130336,21.86603464634693,21.09035133692657,87.27041932521348,75.63436341518502,77.58128125422539,{}
208,93,208,0,8.319999999999999,57.12500836617846,165.71791641022887,17.137502509853505,37.13125543801596,44.29490977220319,51.432338777175445,32.84687981055259,144.24064612460052,107.10939068658456,78.54688650349533,59.98125878448735,55.69688315702399,24.99219116020305,86.40157515384487,46.41406929751997,9.28281385950396,21.46942953464482,18.565627719007978,19.27969032358521,85.6875125492677,74.262510876032,74.7552273736196,{}
209,93,209,0,8.359999999999998,49.97960432303478,165.74514133457896,18.56385303427004,38.55569476348387,44.3596821780362,50.06113717384629,31.706494515375034,138.58113447354185,100.05096580525569,74.96940648455205,57.11954779775397,51.40759301797857,22.847819119101587,84.2513330016871,42.83966084831553,7.139943474719246,21.467377276056883,20.042776440374404,19.991841729214,84.2513330016871,72.82742344213631,70.4940616244141,{}
210,93,210,0,8.399999999999997,55.89638820077181,167.7871353487745,17.198888677160596,38.69749952361133,45.88609206068172,51.616568314201245,33.088931551089814,144.7856912555526,106.09854267367903,78.11161940877093,57.32962892386854,51.59666603148173,21.49861084645073,90.294165555093,48.73018458528833,5.732962892386865,22.97659668832825,22.931851569547405,22.215231207999068,84.56120266270611,71.66203615483568,69.33093674978099,{}
211,93,211,0,8.439999999999996,58.353752305859416,166.67367198032676,18.55706938463217,39.851343038148,45.56662508961001,51.41504103061652,31.44089077686539,148.02611659051797,108.17729426574353,78.99105495061463,58.35375230585947,51.23744104904733,23.4838271474801,93.2236774642389,50.52580992336607,7.827942382493404,22.81662961726345,21.396323248881657,22.060564896117626,85.39573508174558,72.58637481948375,67.43620210364777,{}
212,93,212,0,8.479999999999995,61.420116157833554,164.52264232277534,17.13586433932619,38.55569476348387,42.934754552113645,50.16286688082223,32.96767906554849,149.94561276108377,111.39227160319548,80.68136126432756,61.40351388258552,51.40759301797857,23.56181346657354,93.53325951882208,52.12158736545052,10.709915212078895,22.89240027196961,22.89240027196961,22.133824771629747,84.2513330016871,72.82742344213631,69.26849197451999,{}
213,93,213,0,8.519999999999994,53.6938244010106,164.12657541055296,18.36893992666154,38.17703284608809,43.82564107053893,49.5355150522449,31.11799529831342,141.32779497954996,103.15834026165524,76.30175046459391,59.34580591690639,50.86783364306263,24.02092144255738,86.19271811741169,46.6288475061408,8.477972273843761,22.65203913199552,22.783865884885767,21.90142837409644,81.9537319804898,70.6497689486981,67.14330431831608,{}
214,93,214,0,8.559999999999993,26.94425655472935,159.0570504540598,19.853662724537458,36.898349353563184,42.63799941917528,48.40336633228764,32.73981406234013,116.36353638187576,79.46528185700578,65.9425226207851,58.14286940757404,49.6341568113437,21.271781490575847,62.397225705689095,24.108019022652627,5.672475064153559,24.149692379638523,21.460031013984256,21.271781490575904,82.25088843022664,69.4878195358811,70.19329771955518,{}
215,93,215,0,8.599999999999993,11.654258190642564,157.28169629446427,22.612582356818336,39.59724833906037,42.492706556302046,45.42347332979652,31.220516957742213,104.8216523568547,65.25650033351498,59.35802868664808,56.53145589204587,45.22516471363667,19.786009562216066,53.7048830974436,12.719577575710332,0.0,24.067400105349424,22.656704510689288,22.612582356818336,80.55732464616537,69.2510334677562,69.76826829025472,{}
216,93,216,0,8.639999999999992,11.654258190642452,151.88062290087643,25.4783828619253,42.42214015296265,39.79850629799554,44.0165546990284,34.03644364004479,113.3804553041042,71.01676254949278,65.01117427585274,62.18460148125047,48.051737508239,21.1992959595172,57.94474228934695,15.546150370312546,0.0,24.067400105349424,22.78855841441221,22.612582356818336,81.9706110434665,70.66431986505734,66.96353186315703,{}
217,93,217,0,8.67999999999999,4.011549832588623,152.419098521696,25.529346807220065,38.32027596997292,38.52967794407611,44.17261042993859,39.93960741397187,106.71212676397806,68.44660981944769,66.65996110774131,60.98677292835907,46.80380247990354,14.182970448455592,52.476990659285775,11.346376358764472,7.091485224227768,24.15272835832669,22.869352678390083,22.692752717528947,82.26122860104252,70.91485224227804,67.39523109055317,{}
218,93,218,0,8.71999999999999,2.0129114617940256,154.5163598739006,21.350150168440223,35.61203910331183,38.66676650645913,42.91327073701549,41.66775346679767,99.99936690228452,64.4446108440986,63.338778833039385,61.20376381619536,45.546987026005866,12.098418428782791,46.25865869828715,9.25173173965743,4.981701705969385,25.65968705705584,24.36371357198428,24.196836857565643,81.13057064007288,69.74382388357142,67.44004441551716,{}
219,93,219,0,8.75999999999999,18.55812671060443,155.67238316292068,22.773493513002904,32.767824562377754,41.49723285996608,45.74670680645482,43.07818646698084,117.02617839275776,84.27827362640478,74.72552558954084,62.62710716075805,49.81701705969391,13.521761773345474,60.492092143913965,26.331851874409608,3.558358361406704,25.65968705705584,24.36371357198428,24.196836857565643,83.97725732919824,72.59051057269679,70.66724114891794,{}
220,93,220,0,8.799999999999988,31.31176952997339,161.0551891742153,24.1954582731612,42.721581992876565,44.21285781181626,51.41504103061652,38.66456351597796,136.75172988509777,94.03229912540104,78.27942382493342,62.62353905994672,54.08396555177222,19.925671519073944,78.27942382493347,32.735031781335806,0.0,25.65822512859772,25.65822512859772,24.90708939884246,85.39573508174558,74.00963707084617,69.03922291906665,{}
221,93,221,0,8.839999999999987,31.307013552598505,166.64835574222107,22.768737129162503,41.29286403453577,47.04668649370222,52.72956991431796,34.27148769755878,129.56754372249327,88.2747491517554,72.5753495992056,55.49879675233359,48.38356639947034,17.78807588215824,77.5560108462098,33.44158265845738,2.1345691058589864,24.35862506092821,24.3586250609282,23.48026016444885,85.38276423435943,75.42144174035082,70.25006412762521,{}
222,93,222,0,8.879999999999987,28.29521041345539,167.02657322599234,18.368939926661483,41.00122074186922,43.89392307673938,49.63617663757141,34.02943499062287,121.64897301130463,80.65221172282742,66.4107828117763,52.280829022036585,42.38986136921886,13.423456100252622,74.18225739613302,31.792396026914105,0.7064976894869801,24.062444241816223,22.783865884885767,21.90142837409644,84.77972273843778,76.301750464594,75.53910827765353,{}
223,93,223,0,8.919999999999986,28.39548636155001,163.37215286584853,17.07501628452259,41.14652576780311,45.46463227062651,49.81208325213253,34.061599017312034,120.66363356572464,79.52202859464339,65.22813435949564,52.46610807176825,42.54008762575802,13.471027748156756,73.0271504242179,30.48706279845988,0.7090014604292492,22.86461007160447,21.31725817466575,21.27004381287901,86.4981781723746,77.99016064722301,75.48784863551889,{}
224,93,224,0,8.959999999999985,25.56341119956693,157.6281029131367,18.434037971161843,42.56371444658859,42.6345163493315,48.29543921462647,35.70440123821249,122.15418239391109,79.61047768850666,66.6461372803542,55.30211391348541,46.79409638833374,15.598032129444618,70.90014604293003,26.9420554963134,0.0,22.86461007160447,22.86461007160441,22.688046733737565,87.9161810932332,80.8261664889402,72.54023977135546,{}
225,93,225,0,8.999999999999984,28.50580510991564,157.93867583739967,18.4368185438085,41.12828752080361,41.22597955278452,48.40671281448493,34.30208842126036,122.17260801388544,81.14877469493575,66.65619011992322,58.14688925355,45.38293795399028,17.727710138277416,70.2017321475787,27.65522781571281,2.127325216593249,24.275961453494933,22.86805894750688,22.69146897699511,86.51122547479397,80.83835823054517,72.55118167170365,"{'happy': (['m1', 'm3', 'm12', 'e1', 'e2'], 5.787035699121092, 33)}"
226,93,226,0,9.039999999999983,21.3963232488816,154.24512309184956,21.348933770436417,42.721581992876565,39.95287528687705,45.7441004452628,34.629465173501,119.85862586063132,77.1849172942919,66.18169468835282,61.20027680858431,48.3909165463225,20.637302644755152,64.75843243699046,20.63730264475521,3.5581556284059843,22.81662961726345,21.3963232488816,21.34893377043636,86.818997333108,83.97247283038317,72.711848335467,"{'happy': (['m1', 'm3', 'm12', 'e1', 'e2'], 5.787035699121092, 33)}"
227,93,227,0,9.079999999999982,21.399168135343352,155.6842111730048,21.351772355923742,39.88205240735976,42.79833627068682,47.31772005058768,34.42869842329058,116.93981044977858,77.0769736992054,66.19049430336355,59.784962596586354,46.97389918303219,19.216595120331306,63.34359132257373,22.06349810112124,2.135177235592323,22.819663349739145,22.95246561552702,22.775223846318568,85.40708942369486,83.98363793329995,74.0742054026523,"{'happy': (['m1', 'm3', 'm12', 'e1', 'e2'], 5.787035699121092, 33)}"
228,93,228,0,9.11999999999998,24.36602758599923,159.94350716157186,19.928699429868345,41.30541283236432,42.79914928067455,48.73205517199846,32.86355383844428,118.36290320319794,77.0784378764353,64.76827314707208,56.93914122819518,44.1278344518513,17.79348163381104,67.61523020848188,24.91087428733545,0.7117392653524348,24.240965882974685,22.95290162742411,22.775656491278085,82.56175478088306,79.7147977194733,72.72289764892393,"{'happy': (['m1', 'm3', 'm12', 'e1', 'e2'], 5.787035699121092, 33)}"
229,93,229,0,9.15999999999998,29.82098729309024,163.4224773133822,18.43971631205676,39.71631205673759,45.41222863427556,49.72637771051942,33.11380859554256,120.77578982926524,81.16152908323384,65.95744680851067,53.900709219858186,43.97163120567376,16.312056737588705,71.63120567375881,29.078014184397148,0.7092198581560751,22.73931849912257,21.464887872938423,20.56737588652487,80.85106382978722,78.01418439716312,75.29764221269214,"{'happy': (['m1', 'm3', 'm12', 'e1', 'e2'], 5.787035699121092, 33)}"
230,93,230,0,9.19999999999998,34.19247814882429,169.6835378216214,18.50486937513392,38.45954141978918,47.06008989621351,52.74459234634197,33.01671107610564,124.044629956254,85.59667254137354,68.32567153895593,52.66770514461183,42.70354471184743,14.946240649146604,76.15465473612795,34.87456151467546,0.711725745197441,24.240505403088783,22.952465615527032,22.77522384631868,81.1367349525101,76.86638048132536,74.23814703897449,"{'happy': (['m1', 'm3', 'm12', 'e1', 'e2'], 5.787035699121092, 33)}"
231,93,231,0,9.23999999999998,32.884828671342134,171.7024706308283,18.56953381770517,40.021418464760096,47.22453928619861,53.02519295139957,33.13208650372918,124.4780983956942,84.47057780427967,67.8502197185382,52.85175009654552,42.85277034855039,14.998469621992626,76.42077378824831,34.99642911798287,0.7142128391425331,24.325212770526026,23.03267198524397,22.854810852560263,81.42026366224584,75.70656094910578,77.46493503493917,"{'happy': (['m1', 'm3', 'm12', 'e1', 'e2'], 5.787035699121092, 33)}"
232,93,232,0,9.279999999999978,37.03593017729886,172.70794991263128,17.140083110395906,37.03593017729892,48.479475989847735,54.25774366741527,32.86188918674441,124.04070293987134,87.01426803453221,68.32350847851887,52.66603778552496,39.85537994580267,13.522361053040186,77.57565025165161,37.720270305849,0.7117032133179464,21.39849067849684,21.77393143556811,20.639393186219195,79.71075989160528,74.01713418506205,74.35851194956886,"{'happy': (['m1', 'm3', 'm12', 'e1', 'e2'], 5.787035699121092, 33)}"
233,93,233,0,9.319999999999975,33.00267126181228,173.837582213736,18.63607763311541,38.73223772097123,47.39376814546578,53.11857640099341,33.25081514119,123.49300950035898,84.7732776238972,68.09336058253706,51.60759959939645,40.13924413286389,12.901899899849129,77.41139939909465,37.27215526623081,1.4335444333165697,24.41238202767088,21.693463718020684,22.21993871640683,77.41139939909468,70.24367723251183,73.61498425406639,"{'happy': (['m1', 'm3', 'm12', 'e1', 'e2'], 5.787035699121092, 33)}"
234,93,234,0,9.359999999999976,37.42901541630002,174.4402028679646,18.700680955092764,38.86650584721834,47.55806209849058,53.399682819226506,33.36608151638262,128.22961815254232,89.37328496938169,70.48718206150357,53.2250150260333,41.71690366905312,14.385139196225223,80.55677949886115,40.27838974943063,1.438513919622551,24.497009330015107,21.7686656917928,22.296965754149085,77.67975165961613,70.48718206150352,72.28442985728717,"{'happy': (['m1', 'm3', 'm12', 'e1', 'e2'], 5.787035699121092, 33)}"
235,93,235,0,9.399999999999975,37.51452223258181,174.55342317192353,18.702011331722247,37.43167813684448,47.6701077476306,53.40348170174922,31.94246467158857,125.45690596110695,88.04989654315852,69.0535803017437,53.22880148259412,40.28125517601717,15.105470691006415,78.40458596760482,39.561947047874014,0.7193081281431546,24.49875206060244,24.6251437097416,23.737168228724386,76.2466615831753,70.49219655803,72.2895722110007,"{'happy': (['m1', 'm3', 'm12', 'e1', 'e2'], 5.787035699121092, 33)}"
236,93,236,0,9.439999999999976,30.35610740674267,172.42885172185558,18.826058626784185,39.01183477265769,47.844951223853,53.59935393330687,31.89663414923538,120.06035791756048,81.06400389732183,65.69712169352829,53.4240330255065,38.98510518077501,14.438927844731497,73.63853200813048,33.2095340428823,5.684341886080804e-14,24.58860809776653,21.85006268707893,21.65839176709721,76.52631757707678,69.30685365471106,73.99158097810057,"{'happy': (['m1', 'm3', 'm12', 'e1', 'e2'], 5.787035699121092, 33)}"
237,93,237,0,9.479999999999974,27.37525933241978,169.22407358908066,18.759809220331444,36.0852135276758,47.67658355416817,52.11597586616181,31.9468039364092,114.11146460097504,78.02817854025501,64.02712006905375,56.113655790856114,38.84791554751576,15.82692855639533,66.18533759947132,28.776233738900544,1.43881168694503,24.502080124797207,23.42215732334968,23.020986991120424,77.69583109503154,73.37939603419645,73.88546683131315,"{'happy': (['m1', 'm3', 'm12', 'e1', 'e2'], 5.787035699121092, 33)}"
238,93,238,0,9.519999999999971,21.78509830571892,167.55398686163736,18.894254686088992,34.89950773989791,46.57527901008962,51.234241489944765,33.612161555780844,109.15659254834809,74.25961022120838,63.03685848049105,56.515804154923046,39.12632595340824,14.49123183459568,60.86317370530173,24.635094118812617,0.0,23.23121189727037,23.590016325187086,23.185970935353,76.80352872335695,73.90528235643782,72.81753876725686,"{'happy': (['m1', 'm3', 'm12', 'e1', 'e2'], 5.787035699121092, 33)}"
239,93,239,0,9.559999999999972,23.14238719710332,166.9133430282207,17.322989410738728,37.64402474392931,45.122055536106565,51.03834701148384,32.05273208664335,110.05363628792244,72.40972735765406,60.63046293758566,54.856133134006086,37.5331437232673,14.435824508948995,63.517627839375336,25.98448411610809,1.4435824508949509,23.142387197103325,23.49981973379594,23.09731921431836,77.95345234832436,75.06628744653457,72.53912040163281,"{'happy': (['m1', 'm3', 'm12', 'e1', 'e2'], 5.787035699121092, 33)}"
240,93,240,0,9.599999999999971,27.673882815400628,171.07005727989218,17.514583470590317,37.92890183786498,46.74831622084295,52.6844838771039,32.03219367232721,115.13596560747736,77.21226751869314,63.27105401077984,55.27126557263523,37.81718170759251,14.545069887535533,68.3618284714172,29.09013977507118,1.4545069887535078,23.3175208619091,23.67765832569238,23.27211182005692,79.99788438144566,75.63436341518496,70.05833388236138,"{'happy': (['m1', 'm3', 'm12', 'e1', 'e2'], 5.787035699121092, 33)}"
241,93,241,0,9.63999999999997,36.525292521115794,174.60250381389034,16.124507236093475,36.61270858356941,49.97701830753332,54.32896391469979,32.24901447218694,121.48325646040183,84.87208792131639,66.42291529454081,55.47408310313296,37.95595159688048,14.598442921877052,74.4520589015732,37.95595159688048,2.919688584375365,23.4030843450236,23.76454333076384,22.62758652890944,80.29143607032401,75.91190319376088,71.77031648889147,"{'happy': (['m1', 'm3', 'm12', 'e1', 'e2'], 5.787035699121092, 33)}"
242,93,242,0,9.67999999999997,37.97794539677073,175.760440563127,17.515332151043538,36.60685796094739,47.0710407829246,52.86935948336677,30.79052804173692,122.8243370240982,86.22830414166414,67.14210657900026,52.54599645313067,37.94988632726108,14.596110125869645,77.35938366710906,40.86910835243492,1.4596110125869473,23.35377620139144,23.76074581399465,22.62397069509791,78.818994679696,74.4401616419351,70.30417622525087,"{'happy': (['m1', 'm3', 'm12', 'e1', 'e2'], 5.787035699121092, 33)}"
243,93,243,0,9.719999999999969,37.98022121355346,177.48997164222774,17.577097295386608,35.0631607014294,48.522625793241886,54.32353740348961,30.79237315472904,121.3746088108444,86.31990858437715,67.14613004923774,55.46854221458767,37.9521604626126,16.056683272643852,74.44462244589397,37.9521604626126,2.91939695866256,23.35517566930008,22.329093090215387,21.16562795030319,77.36401940455647,72.98492396656272,67.54162251421856,"{'happy': (['m1', 'm3', 'm12', 'e1', 'e2'], 5.787035699121092, 33)}"
244,93,244,0,9.759999999999968,38.11701218644813,176.531730843289,17.579469401938297,35.280807241404204,48.697386681345726,53.06295531955111,32.36193100583423,123.27409242991985,88.00715010935455,68.85292182425826,55.66831977280458,39.55380615436116,15.382035726696015,75.44522284998516,40.28628404610856,3.662389458737152,24.9042483194126,23.84775238073148,23.43929253591773,77.64265652522744,74.71274495823772,70.69834720450565,"{'happy': (['m1', 'm3', 'm12', 'e1', 'e2'], 5.787035699121092, 33)}"
245,93,245,0,9.799999999999969,39.44071948632856,172.86988787942937,17.57791661225095,33.7013271245616,45.46416989040555,51.42440666763919,32.247296426051605,122.9327968083838,89.23699714497697,69.33890969493694,54.01136123605619,39.41369603712207,14.597665198934068,75.90785903445732,40.87346255701544,1.4597665198933782,23.401837560299445,22.09027589247795,21.89649779840113,75.90785903445735,72.98832599467053,68.8570490294118,"{'happy': (['m1', 'm3', 'm12', 'e1', 'e2'], 5.787035699121092, 33)}"
246,93,246,0,9.839999999999966,33.94749523061209,174.13259936658093,19.115580174439003,35.3209225186372,47.41991826910558,51.80003130542733,34.10635194862162,122.36410001701068,87.06629968329045,69.84538909891171,55.87631127912943,41.17201883725323,14.704292441876134,73.52146220938084,38.23116034887801,1.470429244187585,22.1053986312993,20.79500979640144,20.586009418626645,77.93274994194363,73.52146220938076,69.50014582912947,"{'happy': (['m1', 'm3', 'm12', 'e1', 'e2'], 5.787035699121092, 33)}"
247,93,247,0,9.879999999999963,31.018738887359067,169.7374761530606,17.706312815307275,35.32092251863708,45.79625855129756,51.65373276064486,35.4126256306145,119.43108382571003,84.13631153621441,68.37495985472418,55.87631127912943,41.17201883725323,13.23386319768855,70.5806037210055,33.819872616315195,0.0,23.572774034374422,22.493242228410427,22.05643866281423,77.93274994194365,73.52146220938079,70.96249485239142,"{'happy': (['m1', 'm3', 'm12', 'e1', 'e2'], 5.787035699121092, 33)}"
248,93,248,0,9.919999999999964,19.312844028352963,168.65842212222813,19.31284402835302,35.672682561180224,43.18483208624812,47.76815221598583,37.29635597953335,111.5748825014431,75.90478130182049,65.91462466143463,60.73032833974872,39.99314305300521,13.33104768433509,60.73032833974872,25.180867848188484,1.4812275204816956,20.73718528674345,19.48250623933656,18.515344006021,74.06137602408378,69.61769346263875,67.24511928666617,"{'happy': (['m1', 'm3', 'm12', 'e1', 'e2'], 5.787035699121092, 33)}"
249,93,249,0,9.959999999999964,8.006297082360588,164.67864515802526,20.8672786383043,35.712529214634,43.345315152876765,46.470782341938566,38.76922847519362,102.97162379158,67.3146562896925,63.18611188083332,60.95601381445101,41.62849723913729,12.637222376166733,51.29225552679407,14.123954420421567,3.716830110637204,9.043437971387384,8.920392265529415,8.177026243401997,74.33660221274513,69.87640607998043,67.49501496618099,"{'happy': (['m1', 'm3', 'm12', 'e1', 'e2'], 5.787035699121092, 33)}"
250,93,250,0,9.999999999999964,4.70110234676098,164.84722224713812,20.81266730105824,34.321266913426264,40.385725320643125,44.99325811679438,38.90854513237948,98.52146745891284,64.20060553246778,61.694692356708345,62.438001903174666,41.625334602116425,13.379571836394575,46.08519188091469,11.892952743461876,2.973238185865455,9.042750915317129,7.4330954646636656,6.6897859181973445,74.33095464663651,71.35771646077103,68.52975409176871,"{'happy': (['m1', 'm3', 'm12', 'e1', 'e2'], 5.787035699121092, 33)}"
251,93,251,0,10.039999999999962,4.204793766616544,161.71382087804906,20.81266730105824,35.70981603076981,41.86357375673278,45.213754576585664,38.908545132379466,98.52146745891282,62.878891448940536,60.95138281024191,60.95138281024191,41.625334602116425,12.636262289928196,46.82850142738107,11.149643196995498,3.7165477323318328,10.406333650529064,10.40633365052912,9.663024104062742,75.81757373956924,72.84433555370376,68.64253382685254,"{'happy': (['m1', 'm3', 'm12', 'e1', 'e2'], 5.787035699121092, 33)}"
252,93,252,0,10.07999999999996,11.942775032342697,165.23181434377847,22.219783970928688,40.0230335788314,44.66121304720179,49.24132292133811,38.96741712437315,112.93053251037055,72.96153653681615,66.65935191278618,62.215395118600384,45.92088687325264,15.553848779650082,58.51209779011225,17.03516771104529,2.221978397092869,16.361702378854517,13.413913436198104,12.591210916859607,75.5472655011576,71.10330870697183,67.06956718099066,"{'happy': (['m1', 'm3', 'm12', 'e1', 'e2'], 5.787035699121092, 33)}"
253,93,253,0,10.11999999999996,22.41503976222206,168.16988651421,23.699640327706845,40.02056379195046,44.65845704226644,50.55740041832274,35.82611416198934,121.78537013879098,81.8034635615663,70.35830722287966,62.21155586023042,45.918053134932,18.51534400602094,67.39585218191633,25.921481608429303,0.7406137602408762,19.31284402835302,16.360692712313302,16.29350272529848,75.54260354456548,69.61769346263878,68.3935855951832,"{'happy': (['m1', 'm3', 'm12', 'e1', 'e2'], 5.787035699121092, 33)}"
254,93,254,0,10.15999999999996,26.701195151703224,169.4955707144835,23.69785310415665,38.62277523868932,46.12909003266172,52.17649614555789,32.886108103198815,121.77618613099312,83.15380464236101,69.61244349346026,59.24463276039171,44.43347457029376,19.254505647127303,69.6124434934602,29.6223163801958,0.0,20.735621466137104,18.0185516138095,17.032831918612658,74.05579095048964,69.61244349346026,72.81608843894999,"{'happy': (['m1', 'm3', 'm12', 'e1', 'e2'], 5.787035699121092, 33)}"
255,93,255,0,10.199999999999958,25.35609576645067,169.6546753569765,22.219783970928688,38.54276859149121,47.61006056638434,52.183651354124855,32.890617930032995,118.8383438862141,80.33338838064644,67.40001137848373,57.77143832441459,41.4769300790669,17.035167711045347,68.88133030987899,28.88571916220724,0.740659465697604,22.219783970928688,19.763259554506,19.25714610813816,75.54726550115763,71.10330870697189,71.34976805500567,{}
256,93,256,0,10.239999999999958,29.5499308938415,171.94367003520125,22.13479694542707,37.009192211174046,45.95895554082671,51.98405745554323,31.303330040597608,119.85537782721424,82.84711464940959,67.88004396597643,56.07481892841537,39.84263450176883,16.97001099149412,71.56917679021427,33.20219541814066,0.7378265648475235,22.183930850380623,20.86888669373172,20.659143815732023,76.7339627441473,70.83135022536675,71.2145980732044,{}
257,93,257,0,10.279999999999957,29.553953372269792,170.36367752876578,22.18695063352741,38.40057538900322,45.96521169445095,51.9911337749595,32.76927682076165,122.81552989274698,84.44671013070756,69.36513812605699,57.55830610460049,42.79976607777985,17.710248032184722,72.31684613142113,32.46878805900542,0.0,23.613664042913,20.71459804907724,20.661956037548865,79.6961161448314,72.31684613142107,74.16074580944074,{}
258,93,258,0,10.319999999999956,28.291110394999,171.6442727676566,22.3537262265349,40.25758285426514,47.79097258618796,53.715665899959525,33.01559798785124,123.8548038509269,83.60032312208843,69.14307038004233,57.99096225422909,43.12148475314473,17.843373001301245,72.86043975531351,32.712850502385606,0.0,23.83758582929497,22.50160254394193,21.560742376572307,81.7821262559641,72.86043975531348,72.12846198265392,{}
