,video_id,frame_seq,time_seconds,m1,m3,m4,m5,m6,m7,m8,m9,m10,m11,m12,m13,m14,m15,m16,m17,e1,e2,e3,b1,b2,b3
0,215,0,0.0,45.80231599385005,165.73468655422815,23.0344345323649,37.14190965724697,42.95117968739565,48.57018955178455,34.40367830574594,140.02557944837102,102.89419292658538,79.99795926176262,68.56967936722515,65.7126093935907,32.856304696795405,72.85528432767671,35.713374670429744,12.856814881354694,14.56825554726176,14.28534986817192,12.856814881354694,71.42674934085949,71.42674934085949,68.629175846416
1,215,1,0.0333666666666666,45.38550543505801,164.54690878239418,22.692752717528947,36.875723165984596,45.47406260304153,51.058693614440244,34.03912907629342,138.99311039486497,102.11738722888038,79.42463451135131,68.07825815258684,65.24166406289578,32.62083203144789,72.33314928712366,35.457426121139065,12.764673403610004,14.463848615476907,14.182970448455649,14.182970448455649,70.91485224227813,68.07825815258695,70.97156144945508
2,215,2,0.0667333333333332,45.388929421088505,164.55932257643812,22.694464710544253,36.98745223144174,42.55212133227042,48.30910099046758,34.15969290338535,139.0035963520836,102.16448371239433,79.43062648690488,68.08339413163276,65.24658604281478,32.62329302140745,72.33860626485978,35.46010111022531,9.928828310863196,14.46493980120102,14.184040444090215,14.184040444090215,70.92020222045073,70.92020222045073,70.97691570589993
3,215,3,0.1000999999999998,42.55212133227042,161.72294342963892,22.694464710544366,34.15969290338535,42.55212133227042,48.30910099046757,34.15969290338535,133.32998017444754,99.32880067126793,78.01222244249595,65.24658604281478,62.40977795399681,29.786484932589474,69.50179817604169,32.623293021407335,9.928828310863196,14.46493980120102,14.184040444090215,12.76563639968117,70.92020222045073,70.92020222045073,70.92020222045085
4,215,4,0.1334666666666664,48.225737509906594,164.55932257643812,17.02084853290819,31.20488897699829,45.388929421088505,51.06254559872468,36.87850515463447,133.32998017444754,102.12509119744925,78.01222244249595,65.24658604281478,62.40977795399681,26.949676843771385,69.50179817604169,35.46010111022531,9.928828310863196,14.46493980120102,14.464939801201064,14.184040444090215,70.92020222045073,68.08339413163276,68.08339413163299
5,215,5,0.166833333333333,39.816498918894574,161.72294342963866,17.25562994830935,34.15969290338535,42.55212133227042,48.225737509906594,39.816498918894574,130.49317208562957,96.49318376771714,76.59381839808702,65.24658604281478,62.40977795399681,24.11286875495341,66.66499008722371,32.623293021407335,7.092020222045107,14.464939801201064,14.184040444090215,14.184040444090215,70.92020222045073,68.08339413163276,73.75701030926871
6,215,6,0.2001999999999996,31.331205779858113,161.71074360236383,20.057749162942766,34.15711601265883,42.64335965546755,48.222099524748955,39.81349529801553,124.81013994640932,90.81532183729996,75.16974337681472,65.24166406289578,62.405069973204604,24.111049762374478,60.98677292835919,26.947643852065767,7.0914852242277675,14.463848615476907,14.46384861547702,14.182970448455649,70.91485224227813,70.91485224227813,68.07825815258684
7,215,7,0.2335666666666662,22.854810852560263,160.00918153619344,19.99795949599013,31.42536492227032,40.097819587685834,45.798811295695884,45.709621705120526,119.98775697594124,88.56239205367092,77.13498662739073,65.70758120111066,62.85072984454064,18.569533817705064,55.70860145311565,21.42638517427531,1.4284256782850662,14.567140814584567,14.567140814584567,12.85583110456514,71.4212839142507,71.4212839142507,68.56443255768068
8,215,8,0.2669333333333328,8.569461318871163,148.5373295271006,19.995409744032713,31.421358169194377,37.13433238177504,42.847306594355814,45.70379370064643,105.69002293274468,74.2686647635503,69.98393410411472,62.842716338388755,62.842716338388755,17.138922637742326,42.84730659435593,8.569461318871163,2.8564871062903876,14.282435531452052,17.138922637742326,15.710679084597132,74.2686647635503,71.41217765725992,68.55569055096953
9,215,9,0.3002999999999994,5.673188179382237,147.53016508585287,17.01956453814671,28.365940896911297,36.87572316598448,39.81349529801565,48.305456716653396,99.32130764531935,70.97156144945518,68.07825815258695,62.40506997320472,59.56847588351354,12.764673403610004,38.29402021083024,7.091485224227881,4.254891134536706,14.463848615476907,14.46384861547702,14.182970448455649,70.91485224227813,70.91485224227813,68.13732823584975
10,215,10,0.333666666666666,2.8362375320767796,147.51162066178534,19.853662724537458,31.327267472284273,39.707325449074915,39.707325449074915,45.46834654964685,99.2683136226874,68.12876342804338,66.65158200380438,62.397225705689266,59.560988173612486,15.599306426422231,38.28920668303658,7.090593830192006,4.254356298115226,14.462030521243765,14.181187660383898,14.181187660383898,70.90593830191949,70.90593830191949,70.9059383019196
11,215,11,0.3670333333333326,11.427405426280188,148.58373772696288,19.99795949599013,34.28221627884034,39.99591899198049,42.85277034855039,45.709621705120526,111.41720290623118,77.13498662739084,71.4212839142507,68.56443255768068,65.70758120111066,21.426385174275197,44.28119602683546,9.998979747995122,4.285277034855085,14.284256782850093,14.284256782850093,14.284256782850093,74.27813527082083,74.27813527082083,68.56443255768068
12,215,12,0.4003999999999992,11.427405426280188,145.6994191850713,19.99795949599013,34.28221627884034,39.99591899198049,42.85277034855039,45.709621705120526,111.41720290623118,77.13498662739084,71.4212839142507,65.70758120111066,65.70758120111066,19.99795949599013,45.709621705120526,8.57055406971017,2.8568513565700187,11.427405426280075,14.284256782850093,12.855831104565027,71.42128391425081,74.27813527082083,71.47839810483694
13,215,13,0.4337666666666658,9.034157223303241,142.87113348578694,20.200989670726493,31.425364922270205,37.139067635410356,42.85277034855062,45.7988112956959,105.74209924502318,74.33305441715612,69.99285823596574,65.70758120111066,62.85072984454064,18.569533817705064,41.42434467026544,7.1421283914251035,1.4284256782850662,14.284256782850093,14.567140814584521,14.284256782850093,74.27813527082083,77.13498662739084,71.42128391425081
14,215,14,0.4671333333333324,0.0,144.7086609345458,19.858156028368853,34.04255319148933,36.98838244086625,39.716312056737706,48.226950354609926,102.12765957446811,68.08510638297878,68.08510638297878,65.24822695035459,62.41134751773052,15.60283687943263,38.297872340425556,4.255319148936223,4.255319148936223,17.25606391573961,17.25606391573961,15.60283687943263,73.75886524822693,76.59574468085111,65.24822695035459
15,215,15,0.5004999999999991,2.8570699736343386,142.96773580407873,19.99948981544071,31.42776970997818,37.14190965724674,39.998979630881195,48.65414845550698,102.89419292658538,71.48386790203936,69.99821435404237,68.56967936722515,62.85553941995636,17.142419841806372,37.141909657246856,2.8570699736343386,2.8570699736343386,14.285349868171807,14.56825554726176,14.28534986817192,74.28381931449383,77.14088928812828,71.42674934085949
16,215,16,0.5338666666666656,0.0,145.74229422693548,20.0,31.428571428571445,37.14285714285711,40.0,48.57142857142867,100.00000000000011,68.57142857142867,68.57142857142867,65.71428571428578,62.85714285714289,15.714285714285666,35.71428571428578,1.4285714285714448,1.4285714285714448,14.285714285714334,17.142857142857224,15.71428571428578,74.28571428571433,77.14285714285711,68.6309265683676
17,215,17,0.5672333333333321,9.034848551161874,137.16911665141862,17.142419841806372,31.42776970997818,37.14190965724697,39.998979630881195,45.713119578149986,102.89419292658538,71.48386790203938,67.14114438040792,68.56967936722504,65.7126093935907,21.428024802257823,35.71337467042986,4.285604960451678,4.285604960451451,14.28534986817192,14.568255547261606,14.285349868171807,74.28381931449383,77.14088928812816,71.42674934085949
18,215,18,0.6005999999999987,5.673616177636063,139.03254035996693,19.857656621726278,31.20488897699829,36.87850515463447,39.715313243452556,45.47749327002685,102.16448371239433,70.97691570589993,68.08339413163276,68.08339413163276,65.24658604281478,21.27606066613521,35.46010111022542,1.4184040444090442,1.4184040444089305,17.020848532908303,14.184040444090215,14.184040444090215,76.59381839808691,79.430626486905,70.92020222045085
19,215,19,0.6339666666666652,11.347517730496406,139.03603693438674,19.85815602836874,31.20567375886526,36.879432624113406,39.71631205673748,42.64764930034875,105.00286821742834,73.8134004610365,68.08510638297867,68.08510638297878,65.24822695035459,24.113475177304963,38.29787234042544,7.092198581560183,4.255319148936223,11.34751773049652,14.465303584660445,14.184397163120593,76.595744680851,79.43262411347519,68.08510638297867
20,215,20,0.6673333333333318,19.857656621726278,144.70502170105394,17.02084853290819,34.04169706581638,36.87850515463447,42.55212133227042,36.98745223144163,107.83602733721246,73.81154415058914,63.828181998405626,68.08339413163276,65.24658604281467,29.78648493258936,41.13371728786149,7.092020222045107,12.76563639968117,14.184040444090215,17.02084853290819,14.184040444090215,73.75701030926894,76.59381839808691,76.5938183980868
21,215,21,0.7006999999999983,17.25606391573961,153.21775451223584,22.695035460992926,36.87943262411352,39.81750027693095,42.55319148936155,34.04255319148933,110.67466214542505,73.8134004610365,65.24822695035459,68.08510638297867,65.24822695035459,32.624113475177296,43.971631205673816,7.092198581560297,12.765957446808443,14.184397163120593,14.4653035846604,12.765957446808443,73.75886524822693,79.43262411347519,73.75886524822681
22,215,22,0.7340666666666649,19.718309859154942,157.97267484856272,22.535211267605632,36.727900874381056,39.5370953454034,42.25352112676069,33.802816901408505,112.71126210559187,76.05633802816908,66.19718309859161,70.42253521126759,61.97183098591552,32.3943661971831,46.47887323943655,9.859154929577471,12.676056338028161,14.084507042253449,14.084507042253449,12.676056338028047,76.05633802816897,78.87323943661977,76.10848499214809
23,215,23,0.7674333333333314,19.85815602836874,156.13149396671793,22.695035460992926,39.71631205673759,42.64764930034853,45.47863699824491,34.16055199657397,116.34664768459511,76.6482614814542,66.66666666666674,70.92198581560285,65.2482269503547,34.04255319148933,48.226950354609926,8.510638297872333,14.184397163120593,14.184397163120593,14.184397163120593,14.184397163120593,76.59574468085111,79.43262411347519,76.59574468085088
24,215,24,0.800799999999998,25.531914893617,164.63680145868824,22.695035460992926,39.71631205673759,45.39007092198585,48.226950354609926,34.042553191489446,121.98581560283696,82.26950354609937,69.50354609929082,70.92198581560285,65.2482269503547,34.04255319148933,53.900709219858186,11.347517730496406,11.347517730496406,14.184397163120593,14.184397163120593,14.184397163120593,73.75886524822704,76.59574468085111,76.59574468085088
25,215,25,0.8341666666666645,28.36808088818043,161.79756757116138,22.694464710544253,39.71531324345244,42.55212133227042,48.30910099046758,34.04169706581638,124.8195559079935,85.10424266454106,70.92020222045085,70.92020222045085,65.24658604281478,34.04169706581649,56.73616177636063,17.02084853290819,11.34723235527224,14.184040444090101,14.184040444090101,14.184040444090101,76.59381839808691,79.430626486905,79.43062648690488
26,215,26,0.867533333333331,28.368794326241073,161.92593693991867,19.858156028368853,36.87943262411352,42.55319148936178,45.39007092198585,34.04255319148933,119.14893617021278,82.26950354609926,68.08510638297878,70.92198581560285,62.41134751773052,32.624113475177296,52.48226950354615,15.60283687943263,12.765957446808443,14.184397163120593,17.25606391573976,15.60283687943263,76.59574468085111,79.43262411347519,79.43262411347496
27,215,27,0.9008999999999976,19.857656621726164,159.0890474470317,22.694464710544253,39.715313243452556,42.55212133227042,45.47749327002685,34.04169706581638,116.30913164153935,76.5938183980868,66.66499008722371,70.92020222045073,62.409777953996695,32.623293021407335,49.64414155431564,9.928828310863082,9.928828310863082,8.510424266454038,11.347232355272126,11.347232355272126,76.59381839808691,76.59381839808691,76.5938183980868
28,215,28,0.934266666666664,14.18439716312048,153.29652296290843,22.695035460992926,36.87943262411352,39.71631205673748,42.55319148936178,36.98838244086613,110.67466214542505,73.8134004610365,66.66666666666663,68.08510638297878,62.41134751773052,28.368794326241186,45.39007092198574,8.51063829787222,8.510638297872447,5.67375886524826,5.67375886524826,5.67375886524826,79.43262411347519,79.43262411347519,76.64826148145399
29,215,29,0.9676333333333308,20.202535526813435,148.67748532689959,20.20253552681332,34.40367830574594,37.14190965724674,42.95117968739566,37.25163488789906,111.4257289717408,77.19377985950362,67.14114438040792,68.56967936722504,62.85553941995636,28.570699736343727,45.7131195781501,8.57120992090313,8.57120992090313,5.714139947268677,6.388602677519963,4.285604960451565,79.99795926176262,79.99795926176262,77.19377985950375
30,215,30,1.0009999999999972,14.28534986817192,151.53248420957794,19.999489815440597,37.14190965724697,37.14190965724674,42.95117968739566,37.14190965724697,108.56865899810646,71.42674934085949,64.28407440677358,65.7126093935907,59.99846944632202,25.713629762709388,45.7131195781501,8.57120992090313,5.714139947268791,5.714139947268791,9.0348485511618,7.142674934085903,79.99795926176262,79.99795926176262,74.28381931449394
