,video_id,frame_seq,time_seconds,m1,m3,m4,m5,m6,m7,m8,m9,m10,m11,m12,m13,m14,m15,m16,m17,e1,e2,e3,b1,b2,b3
0,52,210,6.999999999999979,17.029386365926403,69.1158447825099,8.0,12.0,19.026297590440446,21.02379604162864,17.0,54.00925846556311,42.01190307520001,33.5,33.0,29.0,14.0,23.0,10.0,7.0,10.0,10.04987562112089,10.0,27.0,34.0,32.01562118716424
1,52,211,7.033333333333312,17.029386365926403,77.10382610480494,7.0,11.045361017187261,21.02379604162864,23.021728866442675,17.029386365926403,52.08646657242167,41.048751503547585,32.5,32.0,28.0,13.0,22.0,10.0,7.0,10.04987562112089,11.045361017187261,11.5,26.0,35.0,32.2490309931942
2,52,212,7.066666666666645,17.0,77.1621668954417,8.06225774829855,13.038404810405298,21.02379604162864,22.090722034374522,15.0,53.03772242470448,40.01249804748511,31.5,31.0,26.0,13.5,24.5,10.5,6.5,11.045361017187261,11.180339887498949,11.0,25.0,35.0,34.36568055487916
3,52,213,7.099999999999978,16.0312195418814,77.1621668954417,8.0,12.041594578792296,21.02379604162864,22.02271554554524,16.0,52.03844732503075,40.01249804748511,32.0,32.0,27.0,13.5,22.5,9.5,6.5,11.045361017187261,11.180339887498949,11.0,24.0,34.0,35.35533905932738
4,52,214,7.133333333333312,17.029386365926403,78.05767098754612,8.0,14.0,21.02379604162864,23.021728866442675,16.0,55.00909015790027,41.012193308819754,32.5,31.0,28.0,13.5,25.5,10.5,6.5,11.0,12.165525060596439,12.0,24.0,35.0,35.35533905932738
5,52,215,7.166666666666645,16.0312195418814,77.10382610480494,8.0,14.0,21.02379604162864,23.021728866442675,16.0312195418814,54.037024344425184,40.049968789001575,32.0,32.0,28.0,14.0,24.0,9.0,7.0,11.045361017187261,11.045361017187261,11.0,24.0,34.0,36.22154055254967
6,52,216,7.199999999999978,13.038404810405298,76.10519036176179,9.0,15.033296378372908,21.0,22.02271554554524,16.0312195418814,53.08483775994799,38.05259518088089,31.5,32.0,28.0,14.0,23.0,7.0,6.0,11.0,12.165525060596439,12.0,24.0,35.0,35.35533905932738
7,52,217,7.233333333333311,10.04987562112089,74.16872656315464,9.055385138137417,15.033296378372908,20.0,21.095023109728988,16.0312195418814,50.15974481593781,35.12833614050059,30.0,33.0,28.0,14.5,19.5,3.5,5.5,11.045361017187261,11.180339887498949,11.0,24.0,35.0,36.345563690772494
8,52,218,7.266666666666644,8.06225774829855,74.24284477308234,9.0,15.033296378372908,20.024984394500787,21.095023109728988,17.11724276862369,49.16299421312742,34.132096331752024,30.0,33.0,27.0,13.0,19.0,4.0,5.0,11.045361017187261,12.165525060596439,11.5,23.0,36.0,36.345563690772494
9,52,219,7.299999999999978,8.06225774829855,73.24616030891995,9.0,15.033296378372908,20.024984394500787,21.095023109728988,17.11724276862369,49.16299421312742,34.132096331752024,30.0,33.0,27.0,13.0,19.0,3.0,5.0,11.045361017187261,12.165525060596439,11.5,23.0,35.0,36.345563690772494
10,52,220,7.333333333333311,4.123105625617661,72.17340230306452,10.0,16.0312195418814,19.1049731745428,21.02379604162864,17.11724276862369,47.16990566028302,31.144823004794873,29.0,32.0,27.0,12.5,17.5,1.5,3.5,11.045361017187261,11.180339887498949,11.0,23.0,36.0,38.63935817272331
11,52,221,7.366666666666644,3.0,72.17340230306452,10.04987562112089,16.0312195418814,20.024984394500787,21.02379604162864,17.029386365926403,46.09772228646444,30.066592756745816,28.5,31.0,26.0,11.5,17.5,1.5,2.5,11.045361017187261,12.165525060596439,12.0,23.0,36.0,36.6742416417845
12,52,222,7.399999999999977,2.23606797749979,74.43117626371358,10.0,15.033296378372908,21.095023109728988,21.095023109728988,17.11724276862369,44.181444068749045,29.154759474226502,28.0,32.0,24.0,11.0,16.0,1.0,3.0,12.041594578792296,12.165525060596439,11.5,22.0,37.0,36.6742416417845
13,52,223,7.4333333333333105,3.1622776601683795,74.43117626371358,10.04987562112089,15.033296378372908,20.09975124224178,21.095023109728988,16.1245154965971,44.28317965096906,29.274562336608895,27.5,32.0,24.0,12.0,16.0,1.0,3.0,11.045361017187261,11.180339887498949,11.0,20.0,36.0,35.6931365951495
14,52,224,7.466666666666644,2.23606797749979,74.54528824815154,10.04987562112089,16.0312195418814,20.09975124224178,21.095023109728988,17.11724276862369,45.27692569068709,29.274562336608895,28.0,34.0,25.0,12.5,15.5,0.5,3.5,11.045361017187261,12.165525060596439,11.5,20.0,36.0,35.6931365951495
15,52,225,7.499999999999977,2.23606797749979,74.67261881037788,10.04987562112089,16.0312195418814,21.095023109728988,22.090722034374522,17.11724276862369,45.27692569068709,29.274562336608895,28.0,34.0,24.0,12.0,16.0,1.0,3.0,11.180339887498949,11.180339887498949,11.0,20.0,38.0,36.6742416417845
16,52,226,7.53333333333331,4.123105625617661,73.97972695272672,10.198039027185569,15.132745950421556,20.223748416156685,20.223748416156685,17.029386365926403,46.389654018972806,31.25699921617557,29.0,36.0,24.0,13.0,16.0,1.0,5.0,10.04987562112089,10.44030650891055,10.5,18.0,39.0,36.87817782917155
17,52,227,7.566666666666643,6.324555320336759,75.31268153505093,10.04987562112089,16.1245154965971,20.223748416156685,21.37755832643195,16.278820596099706,48.662100242385755,32.55764119219941,29.0,38.0,24.0,15.0,17.0,2.0,7.0,10.198039027185569,9.486832980505138,9.5,16.0,39.0,37.107950630558946
18,52,228,7.599999999999976,9.055385138137417,75.50496672405067,10.198039027185569,14.317821063276353,20.396078054371138,21.37755832643195,16.1245154965971,49.64876634922564,35.35533905932738,30.5,39.0,24.0,15.5,17.5,4.5,8.5,10.198039027185569,10.44030650891055,10.5,16.0,40.0,36.40054944640259
19,52,229,7.63333333333331,9.219544457292887,75.50496672405067,10.198039027185569,14.142135623730951,20.396078054371138,21.37755832643195,16.1245154965971,49.64876634922564,35.510561809129406,30.5,39.0,24.0,15.5,17.5,3.5,8.5,10.198039027185569,10.44030650891055,10.0,16.0,40.0,36.40054944640259
20,52,230,7.666666666666643,10.198039027185569,75.7099729229908,10.04987562112089,14.317821063276353,22.20360331117452,22.360679774997898,15.524174696260024,50.00999900019995,35.6931365951495,30.0,40.0,24.0,17.0,17.0,3.0,9.0,4.242640687119285,5.385164807134504,5.0,14.0,42.0,38.3275357934736
21,52,231,7.699999999999976,11.40175425099138,75.18643494673756,10.198039027185569,13.341664064126334,21.37755832643195,22.561028345356956,14.560219778561036,49.47726750741192,36.138621999185304,29.5,41.0,23.0,18.0,16.0,4.0,10.0,4.47213595499958,2.8284271247461903,2.0,13.0,42.0,34.785054261852174
22,52,232,7.733333333333309,11.180339887498949,76.40026177965623,10.198039027185569,13.341664064126334,19.4164878389476,21.840329667841555,14.560219778561036,49.24428900898052,35.90264614203248,29.5,40.0,21.0,16.5,17.5,6.5,8.5,3.605551275463989,2.8284271247461903,2.0,13.0,42.0,37.64306044943742
23,52,233,7.766666666666643,11.180339887498949,78.16009211867653,9.486832980505138,13.601470508735444,21.840329667841555,22.80350850198276,15.297058540778355,49.47726750741192,35.90264614203248,29.5,43.0,21.0,17.0,16.0,4.0,11.0,3.605551275463989,3.605551275463989,3.0,10.0,42.0,35.11409973215888
24,52,234,7.799999999999976,11.180339887498949,77.88452991448301,9.219544457292887,13.601470508735444,21.587033144922902,22.80350850198276,15.524174696260024,49.47726750741192,35.90264614203248,29.5,42.0,21.0,16.5,16.5,4.5,9.5,4.47213595499958,2.8284271247461903,2.5,12.0,43.0,32.89376840679705
25,52,235,7.833333333333309,11.180339887498949,75.96051605933177,10.198039027185569,13.601470508735444,20.8806130178211,22.80350850198276,14.866068747318506,49.72926703662542,36.138621999185304,29.5,42.0,21.0,17.5,16.5,5.5,10.5,5.0,4.242640687119285,3.5,10.0,43.0,37.94733192202055
26,52,236,7.866666666666642,11.180339887498949,75.0,10.198039027185569,13.601470508735444,20.8806130178211,21.840329667841555,14.866068747318506,49.72926703662542,36.138621999185304,29.5,43.0,22.0,18.5,15.5,4.5,11.5,5.0,5.385164807134504,5.0,9.0,42.0,37.0
27,52,237,7.899999999999975,10.198039027185569,75.96051605933177,11.180339887498949,14.317821063276353,20.615528128088304,21.840329667841555,14.560219778561036,50.21951811795888,35.90264614203248,30.0,43.0,22.0,18.5,16.5,4.5,10.5,6.708203932499369,7.280109889280518,7.0,10.0,44.0,40.162171256046406
28,52,238,7.933333333333309,9.219544457292887,75.96051605933177,10.198039027185569,14.317821063276353,20.615528128088304,23.08679276123039,15.524174696260024,49.24428900898052,34.92849839314596,29.5,44.0,23.0,18.5,14.5,2.5,10.5,6.708203932499369,6.708203932499369,6.5,10.0,43.0,39.21734310225516
29,52,239,7.966666666666642,9.219544457292887,76.24303246854758,10.198039027185569,14.560219778561036,19.924858845171276,21.840329667841555,14.560219778561036,48.507731342539614,33.95585369269929,28.5,43.0,21.0,18.0,15.0,4.0,11.0,7.211102550927978,7.615773105863909,7.0,9.0,42.0,39.21734310225516
30,52,240,7.999999999999975,10.198039027185569,77.20103626247513,9.219544457292887,13.601470508735444,20.615528128088304,21.840329667841555,15.524174696260024,48.507731342539614,34.92849839314596,29.0,43.0,21.0,17.0,15.0,4.0,10.0,7.211102550927978,7.280109889280518,7.5,10.0,44.0,37.94733192202055
31,52,241,8.033333333333308,9.219544457292887,75.28612089887484,11.180339887498949,14.560219778561036,20.615528128088304,21.840329667841555,13.601470508735444,48.507731342539614,33.95585369269929,28.5,43.0,21.0,19.0,15.0,4.0,11.0,7.615773105863909,8.54400374531753,8.0,10.0,43.0,38.27531841800928
32,52,242,8.066666666666642,8.06225774829855,75.28612089887484,10.198039027185569,13.601470508735444,19.6468827043885,20.8806130178211,14.317821063276353,46.09772228646444,32.55764119219941,28.0,43.0,21.0,18.0,13.0,2.0,10.0,7.211102550927978,6.324555320336759,6.0,10.0,43.0,39.84971769034255
33,52,243,8.099999999999975,9.055385138137417,74.72616676907762,9.219544457292887,12.649110640673518,20.615528128088304,21.587033144922902,14.317821063276353,45.12205669071391,32.55764119219941,27.5,41.0,21.0,17.0,13.0,3.0,10.0,5.0,5.385164807134504,5.0,11.0,43.0,37.94733192202055
34,52,244,8.133333333333308,9.055385138137417,74.72616676907762,9.219544457292887,12.649110640673518,20.615528128088304,21.587033144922902,14.317821063276353,45.12205669071391,32.55764119219941,27.5,41.0,21.0,17.0,13.0,3.0,10.0,5.0,5.385164807134504,5.0,11.0,43.0,37.94733192202055
35,52,245,8.166666666666641,6.082762530298219,75.43208866258443,10.198039027185569,13.341664064126334,20.396078054371138,22.561028345356956,13.152946437965905,42.7551166528639,29.427877939124322,26.0,39.0,20.0,16.5,12.5,1.5,8.5,3.1622776601683795,1.4142135623730951,1.5,12.0,41.0,34.785054261852174
36,52,246,8.199999999999974,8.06225774829855,75.18643494673756,10.198039027185569,13.341664064126334,19.6468827043885,19.6468827043885,13.341664064126334,44.91102314577124,31.575306807693888,27.0,39.0,21.0,17.0,14.0,3.0,10.0,4.242640687119285,3.1622776601683795,3.0,17.0,42.0,34.20526275297414
37,52,247,8.233333333333308,13.0,74.96665925596525,7.280109889280518,11.180339887498949,19.235384061671343,21.37755832643195,12.36931687685298,43.56604182158393,32.38826948140329,25.5,28.0,16.0,10.0,21.0,10.0,6.0,3.605551275463989,3.605551275463989,3.5,17.0,35.0,31.25699921617557
38,52,248,8.26666666666664,19.0,75.7099729229908,8.246211251235321,12.649110640673518,20.615528128088304,22.360679774997898,13.152946437965905,52.61178575186362,40.19950248448356,30.5,39.0,23.0,18.0,21.0,9.0,13.0,5.385164807134504,5.0,4.0,14.0,37.0,28.635642126552707
39,52,249,8.299999999999974,19.0,75.7099729229908,7.280109889280518,13.341664064126334,19.4164878389476,21.587033144922902,14.317821063276353,53.600373133029585,40.311288741492746,30.5,39.0,23.0,17.0,22.0,10.0,12.0,5.0,4.47213595499958,4.0,14.0,35.0,29.614185789921695
40,52,250,8.333333333333307,18.110770276274835,76.48529270389177,9.055385138137417,14.317821063276353,20.396078054371138,22.360679774997898,13.341664064126334,54.74486277268398,40.44749683231337,31.0,40.0,25.0,19.5,21.5,8.5,12.5,4.47213595499958,3.605551275463989,3.5,14.0,36.0,32.55764119219941
41,52,251,8.36666666666664,16.0312195418814,78.08969202141856,9.219544457292887,15.132745950421556,20.223748416156685,22.360679774997898,15.297058540778355,55.57877292636101,40.44749683231337,32.0,39.0,26.0,17.5,22.5,7.5,10.5,5.385164807134504,4.47213595499958,4.5,16.0,37.0,30.59411708155671
42,52,252,8.399999999999974,10.04987562112089,74.14849964766651,10.04987562112089,17.26267650163207,18.24828759089466,20.396078054371138,14.560219778561036,51.78802950489621,34.52535300326414,29.0,36.0,23.0,15.5,21.5,5.5,6.5,4.242640687119285,4.47213595499958,4.5,19.0,42.0,32.7566787083184
43,52,253,8.433333333333307,8.246211251235321,74.96665925596525,9.055385138137417,17.11724276862369,20.223748416156685,21.213203435596427,16.278820596099706,50.635955604688654,33.54101966249684,29.0,37.0,25.0,15.0,19.0,2.0,7.0,3.605551275463989,3.605551275463989,3.5,15.0,36.0,31.78049716414141
44,52,254,8.46666666666664,7.0710678118654755,73.97972695272672,10.198039027185569,17.11724276862369,19.235384061671343,21.213203435596427,16.1245154965971,50.48762224545735,33.37663853655727,29.5,37.0,25.0,15.0,19.0,2.0,7.0,4.47213595499958,4.47213595499958,4.0,15.0,36.0,31.575306807693888
45,52,255,8.499999999999973,8.06225774829855,75.8023746329889,10.04987562112089,17.11724276862369,19.235384061671343,20.223748416156685,15.297058540778355,50.48762224545735,33.37663853655727,29.0,36.0,25.0,15.5,19.5,2.5,6.5,6.324555320336759,5.385164807134504,5.5,21.0,39.0,35.510561809129406
46,52,256,8.533333333333307,13.038404810405298,77.52418977325722,10.04987562112089,16.1245154965971,21.095023109728988,23.08679276123039,15.033296378372908,54.230987451824994,38.118237105091836,31.5,35.0,26.0,15.5,23.5,7.5,7.5,6.082762530298219,6.324555320336759,6.0,21.0,38.0,36.49657518178932
47,52,257,8.56666666666664,14.0,77.31752712031083,8.06225774829855,15.033296378372908,22.090722034374522,23.08679276123039,15.033296378372908,52.08646657242167,37.05401462729781,30.0,33.0,26.0,14.5,22.5,7.5,8.5,4.123105625617661,4.123105625617661,4.0,24.0,33.0,34.132096331752024
48,52,258,8.599999999999973,14.035668847618199,80.30566605165541,8.0,13.038404810405298,22.02271554554524,23.194827009486403,14.035668847618199,49.09175083453431,36.05551275463989,29.0,32.0,25.0,14.5,20.5,6.5,7.5,4.123105625617661,4.123105625617661,4.0,24.0,34.0,34.132096331752024
49,52,259,8.633333333333306,14.035668847618199,80.30566605165541,8.0,13.038404810405298,22.02271554554524,23.194827009486403,14.035668847618199,49.09175083453431,36.05551275463989,29.0,32.0,25.0,14.5,20.5,6.5,7.5,4.123105625617661,4.123105625617661,4.0,24.0,34.0,34.132096331752024
50,52,260,8.66666666666664,12.0,80.15609770940699,8.0,15.033296378372908,22.02271554554524,23.08679276123039,15.033296378372908,50.039984012787215,35.014282800023196,29.0,32.0,27.0,14.5,20.5,5.5,7.5,4.47213595499958,4.0,4.5,22.0,33.0,35.05709628591621
51,52,261,8.699999999999973,9.0,76.10519036176179,9.0,15.033296378372908,20.024984394500787,22.090722034374522,15.033296378372908,48.041648597857254,33.015148038438355,28.5,31.0,27.0,14.0,19.0,3.0,6.0,5.0990195135927845,6.082762530298219,6.0,24.0,35.0,35.22782990761707
52,52,262,8.733333333333306,6.0,73.02739212103907,9.055385138137417,17.029386365926403,20.0,21.02379604162864,15.033296378372908,47.095647357266465,30.066592756745816,27.0,31.0,29.0,15.0,17.0,0.0,6.0,8.06225774829855,8.06225774829855,8.5,21.0,33.0,33.24154027718932
53,52,263,8.766666666666639,7.0,74.0,9.0,16.0312195418814,20.0,21.0,15.033296378372908,47.042533945356304,31.016124838541646,27.5,29.0,29.0,14.0,18.0,1.0,5.0,8.06225774829855,9.055385138137417,9.5,22.0,31.0,35.12833614050059
54,52,264,8.799999999999972,8.0,74.00675644831355,8.0,15.033296378372908,20.0,21.02379604162864,16.0312195418814,47.042533945356304,32.01562118716424,28.0,30.0,29.0,13.5,17.5,1.5,5.5,8.06225774829855,9.055385138137417,9.5,25.0,33.0,35.12833614050059
55,52,265,8.833333333333306,9.0,77.02596964660685,9.055385138137417,16.0312195418814,20.0,22.02271554554524,15.0,49.040799340956916,33.015148038438355,28.5,31.0,29.0,15.0,19.0,2.0,6.0,10.0,10.04987562112089,10.5,25.0,34.0,37.05401462729781
56,52,266,8.866666666666639,11.0,78.00640999302557,10.0,16.0,21.0,23.0,15.0,52.0,36.0,30.5,31.0,30.0,15.5,21.5,4.5,6.5,10.0,11.045361017187261,11.0,30.0,36.0,38.05259518088089
57,52,267,8.899999999999972,15.033296378372908,80.0,9.055385138137417,15.033296378372908,21.0,22.0,15.033296378372908,54.0,39.01281840626232,31.5,31.0,31.0,16.0,23.0,7.0,7.0,11.0,12.041594578792296,12.0,31.0,35.0,38.0
58,52,268,8.933333333333305,16.0,79.0,9.0,16.0,21.0,23.021728866442675,15.0,56.0,40.0,32.0,31.0,31.0,16.0,25.0,8.0,7.0,11.0,11.045361017187261,10.5,31.0,37.0,40.01249804748511
59,52,269,8.966666666666638,15.0,79.00632886041473,9.0,16.0,21.02379604162864,23.0,16.0,56.0,40.0,32.5,31.0,32.0,15.5,24.5,7.5,6.5,10.0,11.0,11.0,31.0,36.0,39.05124837953327
60,52,270,8.999999999999972,17.0,80.02499609497022,9.0,15.0,22.02271554554524,23.021728866442675,15.033296378372908,56.00892785976178,41.012193308819754,32.5,30.0,32.0,16.0,25.0,9.0,7.0,11.0,12.041594578792296,12.0,31.0,36.0,40.049968789001575
61,52,271,9.033333333333305,18.0,78.00640999302557,9.0,14.0,22.0,23.0,15.033296378372908,56.00892785976178,42.01190307520001,33.0,32.0,33.0,17.5,23.5,8.5,9.5,12.0,12.041594578792296,12.0,31.0,36.0,39.05124837953327
62,52,272,9.066666666666638,19.0,78.0,9.0,14.0,22.0,22.0,15.033296378372908,57.0087712549569,43.01162633521314,33.5,32.0,32.0,17.0,25.0,10.0,9.0,12.0,12.041594578792296,12.0,31.0,34.0,39.01281840626232
63,52,273,9.099999999999971,19.0,79.00632886041473,8.0,14.0,22.02271554554524,23.0,16.0312195418814,57.0087712549569,43.01162633521314,33.5,32.0,33.0,16.5,24.5,8.5,8.5,12.0,11.045361017187261,11.5,31.0,34.0,39.05124837953327
64,52,274,9.133333333333304,19.0,80.00624975587844,9.0,14.0,22.02271554554524,23.0,15.033296378372908,57.0087712549569,43.01162633521314,33.5,32.0,33.0,17.5,24.5,9.5,8.5,12.0,11.045361017187261,11.5,31.0,34.0,40.049968789001575
65,52,275,9.166666666666638,18.0,80.02499609497022,9.0,14.0,22.02271554554524,23.0,15.033296378372908,56.00892785976178,42.01190307520001,33.0,31.0,33.0,17.0,24.0,8.0,9.0,12.0,12.041594578792296,12.5,31.0,32.0,39.01281840626232
66,52,276,9.19999999999997,15.0,79.05694150420949,8.06225774829855,14.035668847618199,22.02271554554524,22.02271554554524,16.0,53.03772242470448,39.01281840626232,31.5,30.0,33.0,15.5,21.5,6.5,7.5,12.0,12.041594578792296,12.0,32.0,32.0,39.01281840626232
67,52,277,9.233333333333304,10.0,78.05767098754612,10.0,15.033296378372908,21.02379604162864,22.02271554554524,15.033296378372908,50.039984012787215,35.014282800023196,30.0,29.0,32.0,15.5,19.5,3.5,5.5,12.0,12.041594578792296,12.0,32.0,31.0,37.05401462729781
68,52,278,9.266666666666636,8.0,78.16009211867653,9.055385138137417,16.0312195418814,21.095023109728988,22.02271554554524,16.0312195418814,49.09175083453431,33.06055050963308,29.0,28.0,33.0,14.5,18.5,1.5,5.5,8.06225774829855,9.055385138137417,8.5,32.0,29.0,37.013511046643494
69,52,279,9.29999999999997,8.0,78.10249675906654,9.0,15.033296378372908,21.02379604162864,22.02271554554524,17.029386365926403,49.040799340956916,34.0147027033899,30.0,29.0,33.0,14.0,18.0,2.0,5.0,8.06225774829855,9.055385138137417,9.0,32.0,29.0,38.01315561749642
70,52,280,9.333333333333304,7.0710678118654755,77.23341245859851,9.055385138137417,16.0312195418814,21.095023109728988,22.090722034374522,16.0312195418814,48.16637831516918,32.14031735997639,28.5,27.0,33.0,14.0,18.0,1.0,5.0,5.0,6.0,6.0,33.0,30.0,38.0
71,52,281,9.366666666666635,8.06225774829855,76.53103945458993,9.0,15.033296378372908,21.095023109728988,22.090722034374522,16.1245154965971,48.16637831516918,33.13608305156178,29.0,26.0,35.0,14.5,17.5,0.5,5.5,6.0,7.0710678118654755,6.5,33.0,29.0,37.013511046643494
72,52,282,9.39999999999997,8.06225774829855,78.40918313565064,8.06225774829855,14.035668847618199,20.223748416156685,22.20360331117452,17.11724276862369,47.265209192385896,33.24154027718932,29.0,26.0,34.0,13.0,17.0,1.0,4.0,5.0,6.0,6.0,34.0,29.0,35.014282800023196
73,52,283,9.433333333333303,8.246211251235321,76.4198926981712,8.0,15.033296378372908,20.024984394500787,21.095023109728988,17.26267650163207,48.373546489791295,33.37663853655727,29.0,25.0,33.0,12.0,19.0,2.0,4.0,5.0,5.0990195135927845,5.5,34.0,28.0,37.12142238654117
74,52,284,9.466666666666637,8.06225774829855,76.4198926981712,8.06225774829855,14.035668847618199,20.024984394500787,22.090722034374522,17.11724276862369,47.265209192385896,33.24154027718932,29.0,24.0,32.0,11.0,19.0,3.0,3.0,5.0990195135927845,6.082762530298219,6.0,34.0,27.0,34.058772731852805
75,52,285,9.49999999999997,4.47213595499958,79.51100552753688,10.04987562112089,15.132745950421556,20.223748416156685,21.213203435596427,16.278820596099706,45.70557952810576,30.59411708155671,28.0,23.0,32.0,11.5,17.5,0.5,1.5,9.055385138137417,11.0,11.5,33.0,32.0,37.0
76,52,286,9.533333333333305,6.082762530298219,79.51100552753688,9.055385138137417,15.132745950421556,20.223748416156685,22.090722034374522,16.492422502470642,46.69047011971501,31.575306807693888,28.0,23.0,32.0,11.5,18.5,2.5,1.5,9.055385138137417,12.041594578792296,12.0,33.0,34.0,36.013886210738214
77,52,287,9.566666666666636,9.055385138137417,79.76214641043707,8.246211251235321,14.142135623730951,22.360679774997898,22.20360331117452,16.278820596099706,47.67598976424087,33.54101966249684,28.5,24.0,35.0,13.5,17.5,0.5,3.5,7.0710678118654755,9.055385138137417,9.0,35.0,25.0,35.12833614050059
78,52,288,9.59999999999997,8.06225774829855,77.92945527847606,8.246211251235321,15.132745950421556,22.20360331117452,22.360679774997898,17.11724276862369,48.507731342539614,33.37663853655727,29.0,24.0,36.0,13.0,18.0,1.0,4.0,9.219544457292887,10.04987562112089,10.0,35.0,24.0,36.124783736376884
79,52,289,9.633333333333304,9.055385138137417,78.63841300535,8.06225774829855,15.132745950421556,20.223748416156685,22.20360331117452,15.524174696260024,47.67598976424087,32.55764119219941,27.5,23.0,33.0,13.0,19.0,2.0,4.0,10.04987562112089,12.0,12.5,34.0,29.0,37.05401462729781
80,52,290,9.666666666666636,9.055385138137417,78.77182237323191,8.246211251235321,14.142135623730951,22.360679774997898,23.345235059857504,16.278820596099706,47.67598976424087,33.54101966249684,28.5,24.0,35.0,13.5,17.5,1.5,4.5,10.198039027185569,11.045361017187261,11.0,35.0,23.0,37.12142238654117
81,52,291,9.699999999999967,9.055385138137417,79.76214641043707,8.06225774829855,14.142135623730951,22.20360331117452,23.194827009486403,15.524174696260024,46.69047011971501,32.55764119219941,27.5,24.0,35.0,14.5,16.5,0.5,5.5,9.055385138137417,11.045361017187261,11.0,34.0,25.0,36.05551275463989
82,52,292,9.733333333333302,8.06225774829855,78.63841300535,8.06225774829855,14.142135623730951,21.213203435596427,23.194827009486403,16.492422502470642,46.69047011971501,32.55764119219941,28.0,24.0,34.0,13.0,17.0,1.0,4.0,8.06225774829855,10.04987562112089,10.0,33.0,24.0,37.12142238654117
83,52,293,9.766666666666636,8.06225774829855,78.63841300535,8.246211251235321,15.033296378372908,21.213203435596427,23.194827009486403,16.278820596099706,47.51841748206689,32.55764119219941,28.0,25.0,35.0,14.0,17.0,0.0,5.0,9.055385138137417,10.0,9.5,33.0,25.0,39.11521443121589
84,52,294,9.799999999999969,8.06225774829855,79.76214641043707,8.246211251235321,15.033296378372908,21.213203435596427,23.194827009486403,15.297058540778355,46.52956049652737,31.575306807693888,27.0,23.0,34.0,13.5,17.5,0.5,4.5,9.055385138137417,10.0,10.0,33.0,24.0,38.05259518088089
85,52,295,9.833333333333302,6.082762530298219,75.4254598925323,10.04987562112089,15.132745950421556,16.1245154965971,19.1049731745428,16.278820596099706,47.51841748206689,32.38826948140329,29.0,25.0,33.0,13.0,18.0,2.0,3.0,11.180339887498949,13.0,12.0,34.0,27.0,41.048751503547585
86,52,296,9.866666666666635,8.246211251235321,79.51100552753688,9.055385138137417,14.142135623730951,23.194827009486403,24.08318915758459,15.297058540778355,46.69047011971501,32.55764119219941,28.0,25.0,34.0,14.5,16.5,0.5,5.5,10.04987562112089,11.0,11.0,32.0,25.0,36.05551275463989
87,52,297,9.899999999999968,9.219544457292887,79.51100552753688,8.06225774829855,14.035668847618199,22.20360331117452,23.194827009486403,16.278820596099706,47.51841748206689,33.54101966249684,28.5,25.0,34.0,13.5,17.5,1.5,4.5,10.04987562112089,11.0,11.5,32.0,25.0,37.05401462729781
88,52,298,9.933333333333302,9.219544457292887,76.94153624668537,8.06225774829855,14.142135623730951,22.20360331117452,23.345235059857504,16.278820596099706,47.67598976424087,33.54101966249684,28.5,23.0,35.0,13.0,18.0,2.0,4.0,9.055385138137417,10.04987562112089,10.0,35.0,23.0,37.21558813185679
89,52,299,9.966666666666637,9.219544457292887,77.78174593052023,8.06225774829855,14.142135623730951,22.360679774997898,23.194827009486403,16.278820596099706,47.67598976424087,33.54101966249684,28.5,24.0,35.0,13.5,17.5,0.5,4.5,10.198039027185569,11.0,10.5,35.0,23.0,35.22782990761707
90,52,300,9.999999999999968,10.198039027185569,76.94153624668537,8.06225774829855,14.142135623730951,22.360679774997898,23.345235059857504,16.278820596099706,48.662100242385755,34.52535300326414,29.0,24.0,36.0,14.0,18.0,1.0,5.0,10.04987562112089,11.045361017187261,11.0,34.0,23.0,35.12833614050059
91,52,301,10.0333333333333,11.045361017187261,78.77182237323191,8.06225774829855,14.142135623730951,22.20360331117452,22.20360331117452,15.132745950421556,48.373546489791295,34.23448553724738,28.5,24.0,35.0,14.5,18.5,1.5,5.5,11.180339887498949,12.0,11.5,33.0,22.0,37.12142238654117
92,52,302,10.066666666666634,11.045361017187261,78.77182237323191,8.246211251235321,14.142135623730951,22.360679774997898,23.345235059857504,16.1245154965971,49.49747468305833,35.35533905932738,29.5,26.0,37.0,15.5,17.5,1.5,5.5,11.045361017187261,11.0,11.5,34.0,24.0,34.23448553724738
93,52,303,10.099999999999968,13.038404810405298,78.63841300535,8.06225774829855,14.142135623730951,22.20360331117452,23.194827009486403,16.1245154965971,51.35172830587107,37.21558813185679,30.5,26.0,36.0,15.0,20.0,4.0,6.0,9.219544457292887,10.04987562112089,9.5,34.0,24.0,35.12833614050059
94,52,304,10.1333333333333,13.038404810405298,78.77182237323191,8.06225774829855,14.142135623730951,22.20360331117452,23.345235059857504,16.1245154965971,51.35172830587107,37.21558813185679,30.5,26.0,37.0,15.5,19.5,3.5,6.5,9.055385138137417,10.04987562112089,9.5,34.0,23.0,35.12833614050059
95,52,305,10.166666666666634,15.132745950421556,77.64663547121665,9.055385138137417,15.132745950421556,21.213203435596427,23.194827009486403,15.132745950421556,54.45181356024793,39.319206502675,31.5,27.0,37.0,17.0,22.0,5.0,8.0,8.0,9.055385138137417,9.0,34.0,24.0,37.21558813185679
96,52,306,10.199999999999967,18.027756377319946,76.79192665899195,8.246211251235321,14.142135623730951,20.223748416156685,22.360679774997898,16.1245154965971,56.43580423808985,42.2965719651132,33.0,28.0,39.0,17.5,22.5,6.5,8.5,8.06225774829855,10.04987562112089,9.5,35.0,26.0,37.12142238654117
97,52,307,10.2333333333333,19.026297590440446,79.51100552753688,8.06225774829855,14.142135623730951,22.20360331117452,24.186773244895647,15.033296378372908,56.22277118748239,42.1070065428546,32.5,29.0,38.0,18.5,22.5,6.5,10.5,8.06225774829855,10.04987562112089,9.5,34.0,24.0,37.12142238654117
98,52,308,10.266666666666634,17.029386365926403,81.39410298049853,8.06225774829855,14.035668847618199,22.20360331117452,23.194827009486403,15.033296378372908,54.147945482723536,40.11234224026316,31.5,27.0,35.0,16.0,23.0,6.0,7.0,9.219544457292887,11.0,10.5,33.0,24.0,36.124783736376884
99,52,309,10.299999999999969,18.027756377319946,79.51100552753688,7.0710678118654755,14.035668847618199,22.20360331117452,23.194827009486403,16.1245154965971,55.226805085936306,41.19465984809196,32.0,27.0,36.0,15.5,23.5,6.5,7.5,9.055385138137417,11.045361017187261,11.0,33.0,24.0,37.12142238654117
100,52,310,10.3333333333333,16.1245154965971,78.5175139698144,8.0,14.035668847618199,22.090722034374522,23.08679276123039,14.142135623730951,52.23983154643591,38.2099463490856,30.0,27.0,36.0,17.5,20.5,4.5,8.5,10.04987562112089,11.045361017187261,11.0,33.0,25.0,38.118237105091836
101,52,311,10.366666666666632,12.041594578792296,75.53806987208503,8.06225774829855,14.035668847618199,20.223748416156685,22.20360331117452,16.1245154965971,50.24937810560445,36.22154055254967,30.0,28.0,37.0,16.5,17.5,1.5,7.5,10.0,10.04987562112089,10.0,32.0,25.0,37.013511046643494
102,52,312,10.399999999999968,9.219544457292887,74.33034373659252,9.0,14.035668847618199,22.20360331117452,23.194827009486403,16.1245154965971,48.25971404805462,34.23448553724738,29.5,29.0,36.0,16.5,15.5,0.5,7.5,9.0,10.0,10.0,32.0,26.0,36.05551275463989
103,52,313,10.4333333333333,9.055385138137417,72.56031973468694,8.06225774829855,15.033296378372908,20.09975124224178,21.213203435596427,15.033296378372908,47.16990566028302,32.14031735997639,27.5,26.0,35.0,15.5,16.5,0.5,6.5,10.04987562112089,12.0,11.5,34.0,28.0,37.013511046643494
104,52,314,10.466666666666631,9.055385138137417,74.43117626371358,9.055385138137417,14.035668847618199,21.095023109728988,21.213203435596427,15.033296378372908,47.16990566028302,33.13608305156178,28.5,28.0,36.0,17.0,15.0,1.0,7.0,10.04987562112089,10.04987562112089,10.0,32.0,26.0,37.013511046643494
105,52,315,10.499999999999966,7.0710678118654755,73.68174807915459,9.055385138137417,14.035668847618199,20.223748416156685,21.095023109728988,16.278820596099706,46.389654018972806,32.38826948140329,28.5,28.0,38.0,17.0,13.0,3.0,7.0,10.0,12.0,11.5,31.0,25.0,36.013886210738214
106,52,316,10.5333333333333,6.082762530298219,74.43117626371358,10.0,14.142135623730951,20.223748416156685,22.090722034374522,15.033296378372908,45.17742799230607,31.064449134018133,28.0,26.0,34.0,15.0,15.0,1.0,4.0,10.0,12.0,11.5,32.0,25.0,37.013511046643494
107,52,317,10.566666666666633,5.0990195135927845,73.24616030891995,10.04987562112089,13.038404810405298,20.09975124224178,21.095023109728988,16.0312195418814,44.181444068749045,31.144823004794873,28.5,27.0,33.0,14.0,14.0,1.0,4.0,10.04987562112089,11.0,10.5,32.0,26.0,36.013886210738214
108,52,318,10.599999999999966,8.06225774829855,72.56031973468694,9.055385138137417,12.041594578792296,19.235384061671343,20.223748416156685,16.1245154965971,45.27692569068709,33.24154027718932,29.0,29.0,38.0,17.5,11.5,2.5,6.5,10.04987562112089,12.041594578792296,12.0,31.0,25.0,38.01315561749642
109,52,319,10.6333333333333,7.0710678118654755,71.56814934033156,9.0,13.152946437965905,19.235384061671343,20.09975124224178,17.11724276862369,46.2709412050371,33.13608305156178,29.5,29.0,38.0,16.5,12.5,2.5,6.5,10.04987562112089,12.0,11.5,31.0,25.0,40.01249804748511
110,52,320,10.666666666666632,8.246211251235321,71.56814934033156,9.0,12.041594578792296,18.24828759089466,19.1049731745428,16.1245154965971,45.27692569068709,33.24154027718932,29.0,29.0,38.0,17.5,11.5,3.5,7.5,9.0,10.04987562112089,10.0,31.0,25.0,36.013886210738214
111,52,321,10.699999999999966,7.0710678118654755,73.33484846919642,9.0,12.041594578792296,18.110770276274835,19.235384061671343,16.1245154965971,44.181444068749045,32.14031735997639,28.5,28.0,35.0,15.5,12.5,1.5,6.5,11.0,12.0,11.5,30.0,25.0,38.0
112,52,322,10.7333333333333,5.0990195135927845,74.43117626371358,9.055385138137417,13.038404810405298,19.235384061671343,20.09975124224178,16.0,43.104524124504614,30.066592756745816,27.5,25.0,33.0,13.0,14.0,0.0,3.0,10.0,12.041594578792296,12.0,32.0,27.0,36.013886210738214
113,52,323,10.766666666666632,6.082762530298219,73.43704787094863,8.06225774829855,11.180339887498949,19.235384061671343,19.1049731745428,18.110770276274835,43.41658669218482,32.2490309931942,29.0,25.0,33.0,11.0,14.0,1.0,2.0,10.04987562112089,11.0,11.0,31.0,27.0,38.01315561749642
114,52,324,10.799999999999963,7.0710678118654755,73.43704787094863,8.06225774829855,11.045361017187261,18.24828759089466,20.09975124224178,18.110770276274835,44.28317965096906,33.24154027718932,29.5,26.0,34.0,12.0,14.0,1.0,3.0,9.055385138137417,12.041594578792296,11.5,31.0,27.0,37.05401462729781
115,52,325,10.833333333333298,3.1622776601683795,69.58448102845921,8.0,11.180339887498949,16.278820596099706,17.11724276862369,21.095023109728988,43.289721643826724,32.14031735997639,30.5,27.0,36.0,10.5,11.5,1.5,1.5,9.0,11.0,10.5,31.0,25.0,36.013886210738214
116,52,326,10.866666666666632,4.123105625617661,67.60177512462228,8.06225774829855,11.045361017187261,15.297058540778355,17.26267650163207,21.0,44.10215414239989,33.06055050963308,31.0,29.0,38.0,12.5,10.5,2.5,3.5,10.04987562112089,10.0,10.0,30.0,25.0,37.013511046643494
117,52,327,10.899999999999965,5.0990195135927845,71.7007670809734,10.04987562112089,13.152946437965905,17.26267650163207,19.235384061671343,17.029386365926403,45.27692569068709,32.14031735997639,29.5,27.0,37.0,15.0,13.0,2.0,4.0,10.0,12.0,11.0,31.0,25.0,38.01315561749642
118,52,328,10.933333333333298,7.280109889280518,72.69112738154499,9.0,12.041594578792296,19.1049731745428,20.223748416156685,16.0,44.10215414239989,32.0624390837628,28.5,26.0,36.0,15.0,13.0,2.0,5.0,8.0,10.0,10.0,29.0,24.0,38.0
119,52,329,10.966666666666631,7.0710678118654755,72.69112738154499,9.055385138137417,12.041594578792296,18.24828759089466,19.235384061671343,17.0,45.09988913511872,33.06055050963308,29.5,27.0,37.0,15.0,13.0,1.0,5.0,9.0,11.0,11.0,29.0,25.0,38.0
120,52,330,10.999999999999964,6.082762530298219,70.57619995437555,9.055385138137417,13.038404810405298,19.235384061671343,20.09975124224178,17.029386365926403,45.17742799230607,32.14031735997639,29.0,28.0,37.0,15.5,12.5,3.5,5.5,5.0990195135927845,7.0710678118654755,6.5,32.0,28.0,37.0
121,52,331,11.033333333333298,5.0990195135927845,72.56031973468694,9.0,13.038404810405298,20.223748416156685,20.223748416156685,16.1245154965971,43.18564576337837,30.14962686336267,27.5,26.0,35.0,14.5,12.5,2.5,4.5,2.0,4.47213595499958,3.5,31.0,27.0,35.014282800023196
122,52,332,11.066666666666633,8.06225774829855,74.54528824815154,8.06225774829855,12.041594578792296,19.235384061671343,20.223748416156685,17.11724276862369,45.27692569068709,33.24154027718932,29.0,28.0,37.0,15.5,12.5,1.5,6.5,3.0,4.123105625617661,4.0,31.0,27.0,34.0147027033899
123,52,333,11.099999999999964,8.06225774829855,76.23647421018367,8.0,13.0,20.09975124224178,21.095023109728988,16.1245154965971,45.09988913511872,32.14031735997639,28.0,28.0,34.0,15.0,14.0,1.0,6.0,3.0,4.123105625617661,4.5,30.0,28.0,35.014282800023196
124,52,334,11.133333333333296,8.246211251235321,72.44308110509934,8.0,13.038404810405298,19.1049731745428,20.09975124224178,16.1245154965971,45.27692569068709,32.2490309931942,28.0,27.0,35.0,15.0,14.0,2.0,6.0,3.0,5.385164807134504,4.5,30.0,27.0,35.014282800023196
125,52,335,11.16666666666663,7.0710678118654755,74.33034373659252,9.055385138137417,13.038404810405298,20.09975124224178,21.095023109728988,15.132745950421556,44.28317965096906,31.25699921617557,27.5,27.0,34.0,15.5,13.5,1.5,6.5,6.0,7.0710678118654755,7.0,29.0,27.0,34.0
126,52,336,11.199999999999964,7.0710678118654755,74.24284477308234,9.0,14.035668847618199,21.095023109728988,21.095023109728988,16.0312195418814,46.09772228646444,32.0624390837628,28.5,29.0,35.0,16.0,14.0,2.0,7.0,7.0,8.0,8.0,28.0,26.0,38.0
127,52,337,11.233333333333295,7.0710678118654755,75.16648189186454,9.0,14.0,22.090722034374522,23.08679276123039,15.033296378372908,45.044422518220834,31.064449134018133,27.5,28.0,33.0,15.5,14.5,1.5,6.5,8.0,9.0,9.0,28.0,28.0,34.0
128,52,338,11.26666666666663,8.06225774829855,76.10519036176179,9.0,14.035668847618199,21.02379604162864,22.02271554554524,16.0312195418814,47.095647357266465,33.06055050963308,29.0,29.0,33.0,15.0,16.0,1.0,6.0,9.055385138137417,10.0,9.5,27.0,28.0,37.013511046643494
129,52,339,11.299999999999963,8.06225774829855,74.16872656315464,9.0,14.0,20.024984394500787,22.02271554554524,16.1245154965971,47.095647357266465,33.13608305156178,29.0,29.0,34.0,15.5,15.5,0.5,6.5,9.0,10.0,10.0,28.0,29.0,35.05709628591621
130,52,340,11.333333333333297,9.055385138137417,74.06078584514209,9.0,14.035668847618199,21.02379604162864,22.02271554554524,16.0312195418814,48.093658625644196,34.058772731852805,29.5,30.0,33.0,15.5,16.5,0.5,6.5,9.0,11.0,10.5,28.0,29.0,37.013511046643494
131,52,341,11.36666666666663,11.045361017187261,76.05918747922567,9.0,14.035668847618199,21.02379604162864,22.02271554554524,15.0,49.040799340956916,35.014282800023196,29.5,30.0,33.0,16.5,17.5,1.5,7.5,9.0,10.0,10.5,27.0,30.0,37.05401462729781
132,52,342,11.399999999999965,11.045361017187261,78.02563681252464,9.0,14.0,22.02271554554524,23.0,16.0,50.00999900019995,36.013886210738214,30.5,31.0,33.0,16.0,18.0,2.0,7.0,9.055385138137417,10.0,10.5,28.0,30.0,34.058772731852805
133,52,343,11.433333333333296,12.041594578792296,77.00649323271382,9.0,15.0,21.0,22.02271554554524,16.0312195418814,52.03844732503075,37.05401462729781,31.0,33.0,34.0,17.5,18.5,2.5,8.5,10.0,11.045361017187261,11.0,27.0,29.0,34.058772731852805
134,52,344,11.46666666666663,13.0,77.02596964660685,9.0,14.035668847618199,21.0,23.021728866442675,15.033296378372908,51.03920062069938,37.013511046643494,30.5,31.0,33.0,17.0,19.0,4.0,8.0,10.0,11.045361017187261,11.0,27.0,29.0,33.015148038438355
135,52,345,11.499999999999964,14.0,75.02666192761077,9.0,13.038404810405298,21.02379604162864,22.02271554554524,16.0312195418814,52.03844732503075,39.01281840626232,32.0,33.0,35.0,18.0,18.0,4.0,9.0,10.0,12.041594578792296,11.5,27.0,30.0,34.0147027033899
136,52,346,11.533333333333296,13.0,77.00649323271382,9.0,13.0,22.02271554554524,22.0,16.1245154965971,51.03920062069938,38.05259518088089,31.5,33.0,34.0,17.5,17.5,3.5,8.5,10.0,11.045361017187261,11.0,27.0,30.0,33.06055050963308
137,52,347,11.56666666666663,15.0,78.00640999302557,9.0,13.038404810405298,21.0,23.0,16.0312195418814,53.0,40.01249804748511,32.5,34.0,33.0,17.5,19.5,6.5,9.5,9.0,11.0,11.0,26.0,30.0,34.0147027033899
138,52,348,11.599999999999962,16.0312195418814,79.00632886041473,9.055385138137417,13.0,21.0,23.0,15.033296378372908,53.009433122794285,40.01249804748511,32.0,33.0,32.0,17.5,20.5,6.5,8.5,7.0710678118654755,8.06225774829855,8.0,25.0,30.0,33.06055050963308
139,52,349,11.633333333333296,17.0,79.02531240052139,9.0,13.0,22.0,23.0,14.035668847618199,53.009433122794285,40.01249804748511,31.5,33.0,31.0,18.0,21.0,7.0,9.0,7.0,8.06225774829855,8.0,26.0,31.0,35.05709628591621
140,52,350,11.666666666666629,17.0,79.02531240052139,8.0,12.0,22.0,24.0,15.033296378372908,52.009614495783374,40.01249804748511,31.5,31.0,33.0,17.0,20.0,6.0,9.0,3.1622776601683795,3.0,3.0,25.0,32.0,34.132096331752024
141,52,351,11.699999999999962,13.0,77.00649323271382,8.0,13.038404810405298,23.0,23.0,15.033296378372908,49.0,36.013886210738214,29.5,33.0,32.0,17.5,16.5,2.5,9.5,4.123105625617661,4.0,4.0,26.0,33.0,35.05709628591621
142,52,352,11.733333333333295,11.0,74.02702209328699,9.0,11.0,21.02379604162864,21.02379604162864,14.0,45.0,34.0,28.5,29.0,31.0,16.0,15.0,2.0,7.0,3.1622776601683795,3.0,3.5,26.0,33.0,34.0147027033899
143,52,353,11.766666666666628,7.0,76.00657866263946,9.0,12.041594578792296,20.0,21.0,14.035668847618199,42.0,30.01666203960727,26.5,31.0,30.0,16.5,11.5,1.5,7.5,4.47213595499958,5.0,5.0,26.0,34.0,34.058772731852805
144,52,354,11.799999999999962,9.0,77.0,8.0,11.0,21.02379604162864,22.02271554554524,15.0,43.0,32.0,27.5,31.0,31.0,16.0,12.0,1.0,8.0,4.123105625617661,5.0,5.0,26.0,35.0,34.132096331752024
145,52,355,11.833333333333297,7.0,79.00632886041473,9.0,12.0,20.0,21.0,14.0,42.0,30.0,26.5,30.0,29.0,15.5,12.5,0.5,6.5,3.1622776601683795,4.0,3.5,27.0,35.0,34.058772731852805
146,52,356,11.866666666666628,7.0,78.02563681252464,9.055385138137417,13.0,21.0,21.0,14.0,43.01162633521314,30.01666203960727,26.5,30.0,28.0,15.0,14.0,0.0,7.0,3.1622776601683795,4.0,4.0,26.0,33.0,34.0147027033899
147,52,357,11.89999999999996,11.045361017187261,80.02499609497022,9.055385138137417,12.041594578792296,22.0,23.021728866442675,14.0,46.010868281309364,34.0,28.5,30.0,28.0,15.0,17.0,4.0,7.0,2.8284271247461903,2.23606797749979,2.5,27.0,35.0,35.014282800023196
148,52,358,11.933333333333294,12.0,78.16009211867653,9.055385138137417,14.035668847618199,21.02379604162864,22.090722034374522,13.0,48.041648597857254,34.0147027033899,28.0,31.0,26.0,15.5,19.5,5.5,7.5,4.123105625617661,4.0,4.0,25.0,32.0,32.14031735997639
149,52,359,11.966666666666628,12.0,80.09993757800315,9.0,14.0,22.02271554554524,23.021728866442675,13.038404810405298,48.010415536631214,34.0147027033899,28.0,30.0,26.0,15.0,20.0,6.0,7.0,4.123105625617661,4.123105625617661,3.5,25.0,30.0,29.017236257093817
150,52,360,11.99999999999996,13.038404810405298,81.2219182240853,9.0,14.0,23.08679276123039,24.08318915758459,13.038404810405298,49.040799340956916,35.05709628591621,28.5,31.0,25.0,15.0,21.0,7.0,8.0,3.605551275463989,2.0,2.0,25.0,31.0,32.0624390837628
151,52,361,12.033333333333294,14.0,82.29823813423954,8.06225774829855,14.035668847618199,22.02271554554524,24.08318915758459,14.0,50.039984012787215,36.013886210738214,29.0,32.0,25.0,14.5,21.5,7.5,7.5,4.123105625617661,4.123105625617661,4.0,25.0,34.0,34.23448553724738
152,52,362,12.066666666666627,13.0,81.30190649671138,9.055385138137417,13.038404810405298,22.090722034374522,23.08679276123039,14.0,49.040799340956916,36.013886210738214,29.5,32.0,25.0,14.5,20.5,7.5,7.5,4.123105625617661,5.0990195135927845,4.5,24.0,37.0,35.35533905932738
153,52,363,12.09999999999996,14.0,81.49846624323675,9.0,14.035668847618199,22.02271554554524,24.186773244895647,13.0,50.00999900019995,36.0,29.0,32.0,23.0,14.5,22.5,7.5,6.5,4.47213595499958,4.0,4.0,23.0,36.0,36.22154055254967
154,52,364,12.133333333333294,12.0,80.39900496896712,9.0,15.033296378372908,23.08679276123039,25.019992006393608,14.0,50.00999900019995,35.0,29.0,32.0,24.0,14.0,22.0,7.0,7.0,4.47213595499958,4.123105625617661,4.0,24.0,42.0,39.6232255123179
155,52,365,12.166666666666629,16.0312195418814,80.39900496896712,9.0,14.035668847618199,23.08679276123039,24.08318915758459,14.0,53.03772242470448,39.01281840626232,31.0,34.0,26.0,16.0,23.0,9.0,8.0,6.324555320336759,6.082762530298219,6.0,23.0,38.0,36.345563690772494
156,52,366,12.19999999999996,19.0,78.40918313565064,8.06225774829855,13.038404810405298,24.08318915758459,25.079872407968907,15.033296378372908,55.08175741568164,42.04759208325728,32.5,34.0,26.0,15.0,25.0,11.0,9.0,6.324555320336759,8.246211251235321,8.0,23.0,40.0,40.792156108742276
157,52,367,12.233333333333292,17.0,78.23042886243178,9.055385138137417,14.035668847618199,23.021728866442675,25.079872407968907,14.0,54.037024344425184,40.01249804748511,31.5,33.0,27.0,16.0,24.0,9.0,8.0,8.246211251235321,8.246211251235321,8.5,23.0,40.0,40.607881008493905
158,52,368,12.266666666666628,14.0,80.30566605165541,9.055385138137417,13.152946437965905,22.02271554554524,23.08679276123039,14.035668847618199,50.15974481593781,37.05401462729781,30.0,32.0,25.0,14.5,21.5,7.5,6.5,8.06225774829855,9.055385138137417,8.5,24.0,39.0,37.48332962798263
159,52,369,12.29999999999996,15.033296378372908,79.30952023559341,8.0,13.038404810405298,23.08679276123039,24.08318915758459,14.035668847618199,50.08991914547278,37.05401462729781,29.5,32.0,25.0,14.5,21.5,7.5,7.5,8.06225774829855,8.06225774829855,8.0,22.0,38.0,39.45883931389772
160,52,370,12.333333333333291,12.0,79.22752047110903,8.06225774829855,14.035668847618199,22.02271554554524,23.08679276123039,14.0,48.041648597857254,34.0147027033899,28.0,30.0,24.0,13.0,21.0,7.0,6.0,8.06225774829855,9.219544457292887,8.5,24.0,38.0,38.47076812334269
161,52,371,12.366666666666626,13.0,79.1012010022604,7.0,14.035668847618199,23.0,25.019992006393608,14.0,48.010415536631214,34.0,27.5,28.0,24.0,12.0,22.0,8.0,5.0,8.06225774829855,9.219544457292887,9.0,24.0,37.0,39.6232255123179
162,52,372,12.39999999999996,14.0,80.15609770940699,8.06225774829855,14.035668847618199,23.021728866442675,24.020824298928627,14.0,50.039984012787215,36.013886210738214,29.0,29.0,24.0,12.5,23.5,9.5,5.5,9.0,9.219544457292887,9.0,25.0,36.0,36.22154055254967
163,52,373,12.433333333333293,17.0,80.09993757800315,7.0710678118654755,13.0,22.0,24.020824298928627,15.0,52.009614495783374,39.01281840626232,30.5,29.0,25.0,12.0,25.0,11.0,5.0,9.055385138137417,10.04987562112089,9.5,25.0,35.0,36.345563690772494
164,52,374,12.466666666666626,17.0,80.09993757800315,7.0,13.038404810405298,23.021728866442675,23.021728866442675,15.0,52.009614495783374,39.0,30.5,29.0,25.0,12.0,25.0,11.0,6.0,9.055385138137417,10.198039027185569,10.0,25.0,35.0,36.345563690772494
165,52,375,12.49999999999996,17.0,80.05623023850174,7.0,13.038404810405298,23.021728866442675,24.0,15.0,52.009614495783374,39.0,30.5,28.0,25.0,11.5,25.5,11.5,4.5,10.0,11.180339887498949,10.5,26.0,35.0,37.21558813185679
166,52,376,12.533333333333292,15.0,77.00649323271382,8.06225774829855,13.0,22.0,23.0,15.033296378372908,51.0,38.0,30.5,28.0,27.0,12.5,23.5,8.5,5.5,11.045361017187261,10.04987562112089,11.0,27.0,34.0,38.2099463490856
167,52,377,12.566666666666626,10.0,76.0,8.0,14.0,20.024984394500787,22.0,16.0,48.0,34.0,29.0,27.0,27.0,11.0,21.0,6.0,3.0,11.0,11.180339887498949,11.5,26.0,34.0,38.118237105091836
168,52,378,12.59999999999996,9.055385138137417,76.0,8.0,14.0,20.024984394500787,21.0,16.0312195418814,47.0,33.0,28.5,27.0,27.0,11.0,20.0,4.0,3.0,10.0,10.04987562112089,10.0,27.0,33.0,37.21558813185679
169,52,379,12.633333333333292,9.055385138137417,76.00657866263946,8.0,14.0,21.02379604162864,22.02271554554524,16.0312195418814,47.0,33.0,28.5,27.0,28.0,11.5,19.5,4.5,3.5,11.0,11.045361017187261,11.0,26.0,33.0,39.20459156782532
170,52,380,12.666666666666623,8.06225774829855,78.0,8.0,15.0,21.02379604162864,22.0,17.0,48.010415536631214,33.015148038438355,29.0,27.0,27.0,10.0,21.0,5.0,2.0,10.0,11.045361017187261,10.5,26.0,32.0,38.2099463490856
171,52,381,12.699999999999958,10.0,77.02596964660685,8.0,14.0,22.02271554554524,22.0,16.0312195418814,48.010415536631214,34.0147027033899,29.0,26.0,28.0,11.0,21.0,5.0,4.0,11.0,11.045361017187261,11.5,28.0,32.0,39.11521443121589
172,52,382,12.733333333333292,11.0,80.02499609497022,7.0710678118654755,14.0,21.02379604162864,23.0,17.029386365926403,49.040799340956916,35.05709628591621,29.5,26.0,28.0,10.0,22.0,7.0,3.0,11.0,11.045361017187261,11.0,29.0,32.0,36.05551275463989
173,52,383,12.766666666666625,11.0,80.05623023850174,8.0,14.035668847618199,22.02271554554524,23.021728866442675,16.1245154965971,49.09175083453431,35.05709628591621,29.5,24.0,27.0,9.5,23.5,7.5,2.5,10.04987562112089,12.041594578792296,11.5,29.0,31.0,37.013511046643494
174,52,384,12.799999999999958,11.0,80.05623023850174,8.0,14.035668847618199,22.02271554554524,23.021728866442675,16.1245154965971,49.09175083453431,35.05709628591621,29.5,24.0,27.0,9.5,23.5,7.5,2.5,10.04987562112089,12.041594578792296,11.5,29.0,31.0,37.013511046643494
175,52,385,12.833333333333291,11.0,80.09993757800315,7.0710678118654755,14.035668847618199,22.090722034374522,23.021728866442675,16.0312195418814,48.093658625644196,34.058772731852805,28.5,23.0,27.0,9.0,23.0,7.0,2.0,10.0,11.0,10.5,31.0,31.0,38.0
176,52,386,12.866666666666625,11.0,79.1580697086532,8.06225774829855,14.035668847618199,22.090722034374522,23.08679276123039,16.1245154965971,49.16299421312742,35.12833614050059,29.5,25.0,30.0,11.5,21.5,5.5,3.5,8.0,9.0,9.0,32.0,31.0,39.01281840626232
177,52,387,12.899999999999958,10.04987562112089,79.1580697086532,7.0,15.033296378372908,21.095023109728988,23.08679276123039,17.11724276862369,49.16299421312742,34.132096331752024,29.0,24.0,29.0,9.5,22.5,5.5,2.5,5.0,7.0,7.0,31.0,29.0,36.0
178,52,388,12.933333333333293,8.06225774829855,79.22752047110903,7.0710678118654755,14.035668847618199,20.024984394500787,22.02271554554524,18.24828759089466,47.38143096192854,33.37663853655727,29.0,25.0,31.0,10.0,19.0,3.0,3.0,9.055385138137417,9.0,9.5,31.0,28.0,36.0
179,52,389,12.966666666666624,9.219544457292887,78.23042886243178,7.0,14.0,20.09975124224178,21.095023109728988,18.24828759089466,48.25971404805462,34.36568055487916,29.5,25.0,31.0,10.0,20.0,4.0,3.0,7.0710678118654755,9.0,9.0,30.0,29.0,37.0
180,52,390,12.999999999999956,4.123105625617661,80.15609770940699,8.0,14.0,21.02379604162864,22.090722034374522,18.24828759089466,44.181444068749045,30.265491900843113,28.0,24.0,29.0,8.5,17.5,1.5,0.5,6.0,7.0,7.5,31.0,28.0,35.0
181,52,391,13.03333333333329,1.0,77.31752712031083,9.055385138137417,14.035668847618199,20.09975124224178,21.095023109728988,19.1049731745428,43.18564576337837,29.154759474226502,28.5,24.0,31.0,8.5,15.5,0.5,0.5,6.082762530298219,6.082762530298219,6.0,32.0,27.0,39.01281840626232
182,52,392,13.066666666666624,1.4142135623730951,79.22752047110903,8.06225774829855,13.038404810405298,20.09975124224178,21.095023109728988,20.09975124224178,42.2965719651132,29.274562336608895,28.5,25.0,31.0,8.0,14.0,1.0,0.0,8.06225774829855,8.0,8.0,32.0,27.0,37.0
183,52,393,13.099999999999955,1.0,78.31347265956222,9.0,13.038404810405298,20.09975124224178,20.09975124224178,20.223748416156685,42.2965719651132,29.274562336608895,29.0,26.0,33.0,9.5,12.5,1.5,0.5,10.04987562112089,11.0,11.0,32.0,27.0,36.0
184,52,394,13.13333333333329,0.0,77.41446893184762,8.06225774829855,13.152946437965905,20.09975124224178,20.09975124224178,20.09975124224178,41.30375285612676,28.160255680657446,28.0,24.0,32.0,8.0,13.0,1.0,0.0,10.04987562112089,11.045361017187261,11.0,32.0,26.0,37.013511046643494
185,52,395,13.166666666666623,1.0,77.41446893184762,9.0,12.041594578792296,19.1049731745428,20.09975124224178,20.223748416156685,41.30375285612676,29.274562336608895,29.0,25.0,33.0,9.0,12.0,2.0,0.0,10.04987562112089,11.0,10.5,32.0,25.0,37.013511046643494
186,52,396,13.199999999999957,1.0,75.32595834106593,9.0,12.041594578792296,19.1049731745428,20.09975124224178,20.223748416156685,41.30375285612676,29.274562336608895,29.0,25.0,32.0,8.5,12.5,1.5,0.5,10.198039027185569,11.0,11.0,34.0,26.0,36.013886210738214
187,52,397,13.23333333333329,1.0,74.43117626371358,8.06225774829855,12.041594578792296,18.027756377319946,19.235384061671343,21.095023109728988,41.30375285612676,29.274562336608895,29.0,25.0,33.0,8.0,12.0,1.0,0.0,11.045361017187261,11.0,11.5,34.0,26.0,37.013511046643494
188,52,398,13.266666666666625,1.4142135623730951,74.33034373659252,9.055385138137417,12.041594578792296,18.110770276274835,18.110770276274835,20.09975124224178,40.311288741492746,28.284271247461902,28.5,25.0,32.0,8.5,11.5,1.5,0.5,11.180339887498949,11.045361017187261,11.0,34.0,26.0,36.05551275463989
189,52,399,13.299999999999956,1.4142135623730951,74.43117626371358,9.055385138137417,13.038404810405298,18.110770276274835,18.110770276274835,20.09975124224178,41.30375285612676,28.284271247461902,28.5,25.0,33.0,9.0,12.0,2.0,0.0,11.045361017187261,11.045361017187261,11.0,35.0,27.0,36.05551275463989
190,52,400,13.33333333333329,1.0,72.56031973468694,9.0,12.041594578792296,18.110770276274835,19.1049731745428,20.223748416156685,41.30375285612676,29.274562336608895,29.0,25.0,34.0,9.5,11.5,1.5,0.5,12.165525060596439,12.0,11.5,34.0,26.0,36.124783736376884
191,52,401,13.366666666666625,1.0,73.43704787094863,8.06225774829855,11.045361017187261,18.027756377319946,18.24828759089466,21.095023109728988,40.311288741492746,29.274562336608895,29.0,25.0,33.0,8.0,11.0,2.0,0.0,12.041594578792296,12.0,12.0,34.0,26.0,35.12833614050059
192,52,402,13.399999999999956,1.0,73.55270219373317,8.0,11.180339887498949,17.11724276862369,18.110770276274835,22.20360331117452,41.43669871020132,30.265491900843113,30.0,26.0,35.0,8.5,10.5,1.5,0.5,12.041594578792296,12.0,12.0,34.0,26.0,35.05709628591621
193,52,403,13.43333333333329,1.0,72.44308110509934,8.06225774829855,11.180339887498949,18.110770276274835,18.110770276274835,22.090722034374522,41.43669871020132,30.265491900843113,30.0,26.0,34.0,8.0,11.0,1.0,1.0,12.165525060596439,12.0,12.5,34.0,27.0,36.05551275463989
194,52,404,13.466666666666622,1.0,72.56031973468694,8.06225774829855,11.180339887498949,18.110770276274835,18.110770276274835,22.090722034374522,41.43669871020132,30.265491900843113,30.0,26.0,35.0,8.5,10.5,2.5,0.5,11.180339887498949,12.0,12.0,34.0,27.0,36.05551275463989
195,52,405,13.499999999999956,1.0,73.55270219373317,9.055385138137417,12.165525060596439,18.110770276274835,18.110770276274835,20.09975124224178,41.43669871020132,29.274562336608895,29.0,26.0,35.0,10.5,10.5,2.5,1.5,12.165525060596439,13.0,13.0,34.0,26.0,35.05709628591621
196,52,406,13.533333333333289,1.4142135623730951,75.4254598925323,8.06225774829855,11.045361017187261,18.110770276274835,18.110770276274835,21.095023109728988,41.30375285612676,30.265491900843113,29.5,27.0,35.0,10.0,10.0,2.0,1.0,12.165525060596439,12.0,12.0,34.0,26.0,35.12833614050059
197,52,407,13.566666666666622,1.4142135623730951,75.4254598925323,8.06225774829855,12.041594578792296,18.110770276274835,18.110770276274835,21.213203435596427,42.42640687119285,30.4138126514911,29.5,27.0,35.0,10.0,11.0,2.0,1.0,11.045361017187261,12.041594578792296,12.0,34.0,26.0,35.05709628591621
198,52,408,13.599999999999955,3.605551275463989,78.5175139698144,8.0,12.041594578792296,18.110770276274835,19.235384061671343,20.09975124224178,43.289721643826724,31.25699921617557,29.5,27.0,36.0,11.5,11.5,2.5,2.5,10.04987562112089,12.0,12.0,33.0,27.0,35.05709628591621
199,52,409,13.633333333333288,6.082762530298219,77.52418977325722,8.06225774829855,11.180339887498949,18.110770276274835,19.1049731745428,19.1049731745428,44.40720662234904,33.24154027718932,30.0,26.0,35.0,11.5,13.5,1.5,2.5,11.045361017187261,12.0,12.0,34.0,26.0,37.12142238654117
200,52,410,13.666666666666622,8.0,80.39900496896712,8.06225774829855,12.165525060596439,21.095023109728988,23.08679276123039,20.09975124224178,48.25971404805462,36.124783736376884,32.0,28.0,36.0,12.0,16.0,3.0,4.0,11.180339887498949,12.0,12.5,33.0,25.0,34.058772731852805
201,52,411,13.699999999999957,12.165525060596439,81.49846624323675,8.0,12.041594578792296,20.223748416156685,21.095023109728988,19.1049731745428,51.24451190127583,39.20459156782532,33.0,28.0,37.0,13.5,18.5,4.5,4.5,11.180339887498949,12.0,12.5,34.0,25.0,38.118237105091836
202,52,412,13.733333333333288,16.1245154965971,82.29823813423954,7.0,12.041594578792296,20.223748416156685,22.090722034374522,18.24828759089466,53.33854141237835,41.30375285612676,33.0,27.0,34.0,12.5,22.5,8.5,4.5,11.045361017187261,12.0,12.0,33.0,25.0,36.05551275463989
203,52,413,13.76666666666662,12.165525060596439,82.29823813423954,7.0710678118654755,12.041594578792296,20.09975124224178,22.090722034374522,18.110770276274835,49.36598018878993,37.33630940518894,31.0,25.0,32.0,10.5,20.5,7.5,2.5,11.180339887498949,12.0,12.0,32.0,25.0,37.05401462729781
204,52,414,13.799999999999956,12.165525060596439,81.30190649671138,7.0710678118654755,12.041594578792296,21.095023109728988,22.090722034374522,18.110770276274835,49.36598018878993,37.33630940518894,31.0,25.0,32.0,10.5,20.5,7.5,3.5,11.045361017187261,12.0,12.0,33.0,25.0,37.12142238654117
205,52,415,13.833333333333288,10.04987562112089,82.38931969618392,6.082762530298219,12.165525060596439,21.213203435596427,23.08679276123039,17.26267650163207,45.5411901469428,33.37663853655727,28.0,23.0,31.0,10.0,18.0,5.0,3.0,11.045361017187261,12.0,12.0,32.0,25.0,37.05401462729781
206,52,416,13.86666666666662,9.219544457292887,81.39410298049853,8.06225774829855,12.041594578792296,22.090722034374522,22.090722034374522,16.278820596099706,45.5411901469428,33.54101966249684,28.5,24.0,32.0,12.0,17.0,3.0,4.0,11.045361017187261,12.041594578792296,12.0,32.0,27.0,36.05551275463989
207,52,417,13.899999999999954,10.198039027185569,81.39410298049853,7.0710678118654755,11.045361017187261,21.213203435596427,23.194827009486403,16.278820596099706,44.553338819890925,33.54101966249684,28.0,23.0,31.0,11.0,17.0,4.0,3.0,11.0,12.0,12.0,31.0,25.0,37.05401462729781
208,52,418,13.933333333333287,10.198039027185569,82.49242389456137,7.0710678118654755,11.045361017187261,22.20360331117452,23.194827009486403,16.1245154965971,44.40720662234904,33.37663853655727,28.0,23.0,32.0,11.5,16.5,3.5,3.5,11.045361017187261,11.0,11.0,31.0,26.0,37.05401462729781
209,52,419,13.96666666666662,10.198039027185569,82.38931969618392,7.0710678118654755,12.041594578792296,22.20360331117452,23.194827009486403,16.278820596099706,45.5411901469428,33.54101966249684,28.0,24.0,32.0,12.0,17.0,3.0,4.0,11.045361017187261,11.0,11.0,32.0,27.0,37.05401462729781
210,52,420,13.999999999999954,11.045361017187261,83.2946576918352,7.0710678118654755,12.041594578792296,23.194827009486403,24.08318915758459,16.1245154965971,46.2709412050371,34.23448553724738,28.5,25.0,32.0,12.5,17.5,3.5,4.5,8.0,9.0,9.0,31.0,26.0,35.05709628591621
211,52,421,14.033333333333289,13.152946437965905,81.2219182240853,8.0,12.041594578792296,22.090722034374522,24.020824298928627,14.142135623730951,47.265209192385896,35.22782990761707,28.5,27.0,33.0,16.0,17.0,3.0,8.0,4.0,6.082762530298219,6.0,30.0,27.0,33.06055050963308
212,52,422,14.06666666666662,14.035668847618199,82.21921916437786,7.0710678118654755,12.041594578792296,22.090722034374522,23.08679276123039,15.132745950421556,48.25971404805462,36.22154055254967,29.0,29.0,35.0,17.0,16.0,3.0,9.0,5.0990195135927845,6.082762530298219,6.0,31.0,29.0,34.0
213,52,423,14.099999999999952,14.142135623730951,81.09870529176159,8.0,11.0,23.08679276123039,23.021728866442675,15.132745950421556,48.16637831516918,37.21558813185679,30.0,30.0,34.0,17.0,16.0,3.0,9.0,6.0,8.0,7.5,28.0,28.0,34.0
214,52,424,14.133333333333288,13.152946437965905,82.09750300709517,8.0,12.0,23.08679276123039,24.020824298928627,15.132745950421556,48.16637831516918,36.22154055254967,29.5,30.0,34.0,17.0,16.0,3.0,9.0,6.0,8.0,7.5,29.0,30.0,34.0147027033899
215,52,425,14.16666666666662,14.035668847618199,83.02409288875127,8.0,12.0,23.021728866442675,24.020824298928627,15.033296378372908,49.040799340956916,37.05401462729781,30.0,31.0,33.0,17.0,17.0,4.0,9.0,7.0,9.0,8.5,28.0,29.0,35.0
216,52,426,14.199999999999951,14.035668847618199,83.00602387778854,8.0,12.0,23.021728866442675,24.0,15.033296378372908,49.040799340956916,37.05401462729781,30.0,31.0,32.0,16.5,17.5,4.5,8.5,8.0,9.0,9.0,27.0,29.0,35.014282800023196
217,52,427,14.233333333333286,13.0,82.00609733428362,9.055385138137417,13.0,22.0,23.021728866442675,14.035668847618199,49.040799340956916,36.05551275463989,29.5,31.0,32.0,17.5,17.5,3.5,9.5,8.06225774829855,10.0,10.0,25.0,29.0,35.05709628591621
218,52,428,14.26666666666662,14.035668847618199,83.00602387778854,8.0,12.0,23.0,24.0,14.0,48.010415536631214,36.013886210738214,29.0,31.0,30.0,16.5,17.5,5.5,8.5,5.0,6.0,6.0,27.0,32.0,37.05401462729781
219,52,429,14.299999999999953,14.035668847618199,82.00609733428362,8.0,12.041594578792296,23.0,24.0,14.0,48.0,36.013886210738214,29.0,31.0,30.0,16.5,17.5,4.5,8.5,5.0,6.0,6.0,27.0,32.0,36.05551275463989
220,52,430,14.333333333333286,12.0,82.00609733428362,8.0,12.0,22.0,23.021728866442675,14.0,46.0,34.0,28.0,30.0,29.0,15.5,16.5,3.5,7.5,6.082762530298219,7.0710678118654755,7.0,26.0,31.0,36.05551275463989
221,52,431,14.36666666666662,11.0,80.02499609497022,9.0,13.0,22.0,22.02271554554524,14.0,47.0,34.0,28.5,31.0,29.0,16.0,17.0,4.0,8.0,7.0710678118654755,8.06225774829855,8.0,26.0,33.0,35.05709628591621
222,52,432,14.399999999999952,10.0,79.1012010022604,9.0,12.041594578792296,22.02271554554524,23.021728866442675,15.033296378372908,46.0,34.0147027033899,29.0,34.0,30.0,17.0,14.0,1.0,9.0,8.06225774829855,9.055385138137417,9.0,24.0,31.0,34.058772731852805
223,52,433,14.433333333333286,10.04987562112089,79.1012010022604,9.055385138137417,12.041594578792296,21.02379604162864,23.021728866442675,14.035668847618199,45.0,33.015148038438355,28.0,33.0,29.0,17.0,14.0,2.0,9.0,9.055385138137417,10.04987562112089,10.0,24.0,32.0,35.05709628591621
224,52,434,14.46666666666662,10.0,79.05694150420949,8.0,12.0,22.02271554554524,23.021728866442675,15.033296378372908,45.0111097397076,33.015148038438355,28.0,33.0,30.0,16.5,13.5,1.5,9.5,9.0,11.045361017187261,10.5,24.0,32.0,35.05709628591621
225,52,435,14.499999999999952,10.0,79.05694150420949,9.0,12.0,21.02379604162864,22.02271554554524,14.0,45.0,33.0,28.0,32.0,29.0,16.5,14.5,2.5,8.5,10.04987562112089,10.04987562112089,10.5,23.0,33.0,35.05709628591621
226,52,436,14.533333333333283,11.0,79.1580697086532,9.0,12.041594578792296,21.02379604162864,22.02271554554524,14.035668847618199,46.0,34.0147027033899,28.5,34.0,29.0,17.5,14.5,2.5,9.5,10.0,11.045361017187261,11.0,23.0,33.0,36.05551275463989
227,52,437,14.566666666666618,13.0,79.1012010022604,7.0,12.041594578792296,22.0,23.021728866442675,14.0,46.010868281309364,34.0,27.5,33.0,29.0,17.0,15.0,3.0,10.0,9.055385138137417,11.045361017187261,11.0,21.0,32.0,37.12142238654117
228,52,438,14.599999999999952,14.035668847618199,78.16009211867653,8.06225774829855,13.038404810405298,21.02379604162864,22.02271554554524,14.035668847618199,49.040799340956916,36.013886210738214,29.0,34.0,29.0,17.5,17.5,4.5,10.5,10.04987562112089,11.045361017187261,10.5,22.0,33.0,37.21558813185679
229,52,439,14.633333333333283,15.033296378372908,78.16009211867653,8.06225774829855,12.041594578792296,21.02379604162864,23.08679276123039,13.038404810405298,48.041648597857254,36.013886210738214,28.5,33.0,28.0,17.5,17.5,4.5,10.5,9.055385138137417,11.045361017187261,11.0,23.0,34.0,37.12142238654117
230,52,440,14.666666666666618,18.027756377319946,74.00675644831355,7.0710678118654755,13.038404810405298,21.0,22.0,13.038404810405298,51.03920062069938,38.01315561749642,29.0,33.0,32.0,19.5,18.5,4.5,12.5,9.219544457292887,10.04987562112089,10.0,21.0,32.0,36.22154055254967
231,52,441,14.699999999999951,13.0,70.11419257183242,10.04987562112089,14.035668847618199,18.027756377319946,20.024984394500787,14.035668847618199,51.088159097779204,37.05401462729781,30.5,37.0,33.0,21.0,16.0,2.0,12.0,8.246211251235321,11.045361017187261,10.5,20.0,31.0,36.22154055254967
232,52,442,14.733333333333285,13.038404810405298,69.06518659932803,9.055385138137417,13.038404810405298,18.0,20.024984394500787,15.0,50.08991914547278,37.05401462729781,30.5,37.0,34.0,20.5,14.5,0.5,12.5,8.06225774829855,10.04987562112089,10.0,19.0,33.0,36.124783736376884
233,52,443,14.766666666666618,14.0,70.11419257183242,8.06225774829855,14.142135623730951,19.0,19.0,15.033296378372908,51.15662224971465,37.05401462729781,30.0,40.0,36.0,23.0,13.0,1.0,15.0,8.06225774829855,11.045361017187261,10.5,20.0,33.0,36.345563690772494
234,52,444,14.799999999999953,15.0,72.06247289678588,9.055385138137417,14.035668847618199,20.024984394500787,21.0,14.0,52.03844732503075,38.01315561749642,30.5,37.0,34.0,21.5,16.5,1.5,13.5,3.605551275463989,5.0990195135927845,4.5,20.0,34.0,35.35533905932738
235,52,445,14.833333333333284,15.0,74.02702209328699,8.06225774829855,13.038404810405298,20.0,21.02379604162864,14.035668847618199,50.08991914547278,37.05401462729781,29.5,35.0,33.0,20.0,16.0,2.0,12.0,2.23606797749979,3.1622776601683795,3.0,21.0,32.0,33.24154027718932
236,52,446,14.866666666666616,9.0,72.11102550927978,8.06225774829855,12.041594578792296,20.0,20.024984394500787,14.0,43.04648650006177,31.016124838541646,26.5,34.0,30.0,18.0,11.0,2.0,10.0,3.605551275463989,4.0,4.5,20.0,34.0,33.24154027718932
237,52,447,14.89999999999995,8.06225774829855,69.46221994724903,9.219544457292887,11.180339887498949,17.11724276862369,18.110770276274835,16.0312195418814,44.181444068749045,33.06055050963308,29.0,35.0,27.0,15.0,13.0,2.0,7.0,5.385164807134504,6.324555320336759,6.0,20.0,35.0,37.33630940518894
238,52,448,14.933333333333284,4.0,68.18357573492314,9.055385138137417,12.041594578792296,17.029386365926403,18.110770276274835,16.0312195418814,41.10960958218893,29.068883707497267,27.0,33.0,28.0,14.5,10.5,1.5,6.5,4.47213595499958,6.324555320336759,6.0,20.0,33.0,37.12142238654117
239,52,449,14.966666666666615,10.04987562112089,66.61080993352356,9.055385138137417,12.165525060596439,17.11724276862369,19.1049731745428,16.278820596099706,47.265209192385896,35.12833614050059,30.0,39.0,30.0,18.5,12.5,0.5,10.5,5.385164807134504,7.280109889280518,7.0,19.0,36.0,39.319206502675
240,52,450,14.99999999999995,10.04987562112089,65.76473218982953,10.04987562112089,11.180339887498949,17.11724276862369,18.24828759089466,17.46424919657298,48.373546489791295,37.21558813185679,32.0,41.0,31.0,19.0,12.0,1.0,10.0,6.324555320336759,8.246211251235321,8.0,18.0,37.0,36.6742416417845
241,52,451,15.033333333333283,7.0,66.91038783328041,8.246211251235321,11.40175425099138,17.26267650163207,18.439088914585774,22.090722034374522,48.507731342539614,37.21558813185679,33.5,42.0,31.0,14.5,11.5,0.5,8.5,7.280109889280518,9.219544457292887,8.5,19.0,38.0,38.47076812334269
242,52,452,15.066666666666617,9.0,74.54528824815154,9.055385138137417,13.152946437965905,20.223748416156685,21.095023109728988,14.035668847618199,45.17742799230607,32.0624390837628,27.5,34.0,25.0,15.5,15.5,2.5,8.5,8.246211251235321,10.04987562112089,10.0,20.0,38.0,33.54101966249684
243,52,453,15.09999999999995,9.0,74.54528824815154,9.055385138137417,13.152946437965905,20.09975124224178,21.095023109728988,14.035668847618199,45.17742799230607,32.0624390837628,27.5,34.0,25.0,15.5,15.5,2.5,8.5,9.219544457292887,10.198039027185569,10.5,20.0,37.0,34.52535300326414
244,52,454,15.133333333333283,10.0,75.66372975210778,9.055385138137417,13.152946437965905,20.223748416156685,21.213203435596427,14.142135623730951,46.2709412050371,33.13608305156178,28.0,34.0,24.0,15.0,17.0,4.0,8.0,9.219544457292887,10.198039027185569,10.5,20.0,36.0,32.55764119219941
245,52,455,15.166666666666616,11.0,78.77182237323191,9.055385138137417,14.142135623730951,21.095023109728988,22.360679774997898,15.132745950421556,49.25444142409901,35.12833614050059,29.5,36.0,25.0,15.5,18.5,5.5,8.5,10.198039027185569,11.180339887498949,11.0,20.0,37.0,33.54101966249684
246,52,456,15.19999999999995,13.038404810405298,77.64663547121665,9.055385138137417,14.035668847618199,21.095023109728988,22.20360331117452,14.035668847618199,50.15974481593781,36.124783736376884,29.5,35.0,25.0,16.0,20.0,6.0,8.0,9.219544457292887,10.198039027185569,10.0,22.0,39.0,33.734255586866
247,52,457,15.233333333333285,15.0,76.53103945458993,9.055385138137417,14.142135623730951,21.095023109728988,22.090722034374522,14.035668847618199,52.15361924162119,38.05259518088089,30.5,36.0,27.0,17.5,20.5,6.5,9.5,11.045361017187261,11.180339887498949,11.5,22.0,39.0,36.49657518178932
248,52,458,15.266666666666616,12.041594578792296,77.64663547121665,9.055385138137417,15.132745950421556,21.095023109728988,22.090722034374522,15.033296378372908,51.24451190127583,36.124783736376884,30.0,37.0,27.0,17.0,19.0,4.0,10.0,11.180339887498949,11.045361017187261,11.5,21.0,38.0,33.734255586866
249,52,459,15.29999999999995,14.035668847618199,77.78174593052023,9.055385138137417,14.142135623730951,22.20360331117452,23.194827009486403,14.035668847618199,51.24451190127583,37.12142238654117,30.0,36.0,25.0,16.5,20.5,6.5,9.5,11.045361017187261,12.36931687685298,11.5,20.0,36.0,33.54101966249684
250,52,460,15.333333333333282,13.0,79.51100552753688,9.055385138137417,13.152946437965905,22.090722034374522,22.090722034374522,14.035668847618199,49.16299421312742,36.05551275463989,29.5,35.0,26.0,16.5,18.5,5.5,8.5,10.198039027185569,11.180339887498949,11.5,21.0,37.0,34.36568055487916
251,52,461,15.366666666666616,12.0,77.52418977325722,9.055385138137417,13.152946437965905,21.095023109728988,23.08679276123039,14.035668847618199,48.16637831516918,35.05709628591621,29.0,35.0,26.0,16.5,17.5,4.5,8.5,10.198039027185569,10.04987562112089,10.5,23.0,40.0,39.45883931389772
252,52,462,15.399999999999949,11.0,78.40918313565064,8.06225774829855,13.038404810405298,21.095023109728988,22.090722034374522,15.033296378372908,47.095647357266465,34.058772731852805,28.5,34.0,26.0,15.0,17.0,4.0,8.0,10.04987562112089,11.180339887498949,11.0,24.0,40.0,37.33630940518894
253,52,463,15.433333333333282,11.045361017187261,77.41446893184762,9.055385138137417,12.041594578792296,22.090722034374522,22.090722034374522,15.0,47.095647357266465,35.05709628591621,29.5,34.0,26.0,15.0,17.0,4.0,8.0,10.04987562112089,11.180339887498949,11.0,23.0,39.0,39.319206502675
254,52,464,15.466666666666615,12.041594578792296,77.31752712031083,8.06225774829855,13.038404810405298,21.02379604162864,22.090722034374522,15.033296378372908,48.16637831516918,35.12833614050059,29.0,33.0,26.0,14.5,18.5,4.5,7.5,10.04987562112089,10.198039027185569,10.5,23.0,38.0,36.345563690772494
255,52,465,15.499999999999948,13.038404810405298,79.30952023559341,8.06225774829855,14.035668847618199,22.090722034374522,23.08679276123039,15.0,50.08991914547278,36.05551275463989,29.5,34.0,27.0,15.5,19.5,5.5,8.5,4.47213595499958,4.123105625617661,4.5,23.0,35.0,34.058772731852805
256,52,466,15.533333333333282,11.0,76.23647421018367,9.055385138137417,15.033296378372908,20.09975124224178,21.095023109728988,15.033296378372908,50.08991914547278,35.05709628591621,29.5,32.0,26.0,14.0,21.0,6.0,7.0,3.605551275463989,3.0,3.0,22.0,32.0,34.132096331752024
257,52,467,15.566666666666617,4.123105625617661,77.31752712031083,9.055385138137417,15.033296378372908,19.1049731745428,21.095023109728988,17.0,45.09988913511872,30.066592756745816,28.0,32.0,25.0,11.5,16.5,1.5,3.5,2.8284271247461903,2.0,2.5,24.0,34.0,33.13608305156178
258,52,468,15.599999999999948,4.0,76.23647421018367,9.055385138137417,15.132745950421556,19.026297590440446,21.095023109728988,17.029386365926403,45.17742799230607,30.066592756745816,28.0,32.0,26.0,12.0,16.0,1.0,4.0,2.23606797749979,2.0,2.5,24.0,34.0,32.14031735997639
259,52,469,15.63333333333328,2.23606797749979,73.33484846919642,10.04987562112089,15.033296378372908,19.1049731745428,20.09975124224178,18.0,45.09988913511872,30.066592756745816,29.0,34.0,27.0,12.5,14.5,0.5,4.5,4.123105625617661,5.0,5.0,25.0,38.0,34.23448553724738
260,52,470,15.666666666666616,2.23606797749979,73.33484846919642,11.0,16.0312195418814,19.026297590440446,19.1049731745428,17.029386365926403,45.17742799230607,29.154759474226502,28.5,34.0,27.0,13.5,14.5,1.5,3.5,6.324555320336759,7.0710678118654755,7.0,26.0,37.0,38.118237105091836
261,52,471,15.699999999999948,2.8284271247461903,74.24284477308234,11.0,16.0,19.1049731745428,20.09975124224178,17.0,46.04345773288535,30.066592756745816,29.0,34.0,28.0,14.0,15.0,1.0,4.0,8.06225774829855,9.055385138137417,9.0,26.0,39.0,39.319206502675
262,52,472,15.73333333333328,5.0990195135927845,72.24956747275377,10.0,16.0312195418814,19.1049731745428,20.024984394500787,17.029386365926403,48.093658625644196,32.0624390837628,29.5,34.0,28.0,14.0,17.0,0.0,5.0,8.06225774829855,9.055385138137417,9.0,27.0,40.0,37.21558813185679
263,52,473,15.766666666666614,4.123105625617661,73.17103251970687,11.0,16.0312195418814,19.026297590440446,20.09975124224178,17.029386365926403,48.093658625644196,32.0624390837628,30.0,33.0,28.0,13.5,17.5,0.5,3.5,8.06225774829855,9.055385138137417,9.0,26.0,39.0,36.345563690772494
264,52,474,15.799999999999947,5.0990195135927845,71.17583859709698,11.045361017187261,17.029386365926403,19.026297590440446,20.09975124224178,16.0312195418814,49.16299421312742,32.14031735997639,29.5,34.0,29.0,15.5,17.5,0.5,5.5,9.055385138137417,10.198039027185569,10.0,26.0,40.0,41.43669871020132
265,52,475,15.83333333333328,5.0990195135927845,70.11419257183242,10.0,17.029386365926403,19.026297590440446,20.09975124224178,16.0312195418814,48.093658625644196,31.064449134018133,28.5,33.0,29.0,15.0,17.0,0.0,5.0,9.055385138137417,10.198039027185569,10.0,26.0,41.0,40.607881008493905
266,52,476,15.866666666666614,7.0,70.06425622241343,10.04987562112089,16.0312195418814,19.0,20.0,15.033296378372908,48.093658625644196,32.0624390837628,28.5,32.0,29.0,15.5,17.5,0.5,6.5,9.219544457292887,11.045361017187261,11.0,24.0,39.0,39.6232255123179
267,52,477,15.899999999999949,11.0,72.06247289678588,9.055385138137417,15.033296378372908,20.024984394500787,21.02379604162864,15.033296378372908,50.08991914547278,35.05709628591621,29.5,32.0,29.0,15.5,19.5,3.5,7.5,10.04987562112089,10.198039027185569,10.0,24.0,37.0,38.63935817272331
268,52,478,15.93333333333328,11.0,72.11102550927978,10.04987562112089,15.033296378372908,20.0,21.0,15.033296378372908,51.088159097779204,36.05551275463989,30.5,34.0,30.0,17.0,19.0,3.0,8.0,10.04987562112089,11.045361017187261,11.0,24.0,38.0,39.6232255123179
269,52,479,15.966666666666612,10.0,74.06078584514209,9.0,15.033296378372908,20.024984394500787,22.02271554554524,15.033296378372908,49.040799340956916,34.0147027033899,29.0,33.0,30.0,16.5,17.5,1.5,8.5,9.055385138137417,10.04987562112089,10.0,25.0,37.0,38.47076812334269
270,52,480,15.999999999999948,8.0,73.00684899377592,8.0,14.035668847618199,19.0,21.02379604162864,16.0312195418814,46.04345773288535,32.01562118716424,28.0,31.0,30.0,14.5,15.5,0.5,7.5,8.06225774829855,9.055385138137417,9.0,26.0,36.0,37.48332962798263
271,52,481,16.03333333333328,8.0,77.02596964660685,9.0,13.038404810405298,22.0,23.0,15.0,45.0111097397076,32.0,28.0,30.0,28.0,14.0,16.0,2.0,6.0,3.1622776601683795,3.0,3.5,26.0,36.0,36.345563690772494
272,52,482,16.066666666666617,8.0,76.00657866263946,9.0,14.0,21.0,23.0,16.0,47.0,33.0,29.0,28.0,29.0,12.5,18.5,3.5,4.5,4.0,6.0,5.5,28.0,36.0,35.22782990761707
273,52,483,16.09999999999995,7.0710678118654755,76.00657866263946,9.0,14.0,21.02379604162864,22.02271554554524,15.0,45.0111097397076,31.016124838541646,27.5,27.0,28.0,12.5,17.5,2.5,3.5,4.123105625617661,4.0,4.5,29.0,36.0,36.22154055254967
274,52,484,16.133333333333287,8.0,79.00632886041473,9.0,14.0,21.0,22.0,15.033296378372908,46.010868281309364,32.01562118716424,28.0,27.0,28.0,12.5,18.5,4.5,3.5,4.0,4.123105625617661,4.0,30.0,33.0,34.0147027033899
275,52,485,16.16666666666662,9.055385138137417,78.10249675906654,9.0,14.0,22.02271554554524,23.08679276123039,15.033296378372908,47.042533945356304,33.06055050963308,28.5,26.0,30.0,13.0,19.0,3.0,4.0,5.0,5.0990195135927845,5.5,29.0,32.0,36.05551275463989
276,52,486,16.199999999999957,12.041594578792296,80.09993757800315,9.0,14.035668847618199,23.021728866442675,24.020824298928627,15.033296378372908,50.08991914547278,36.05551275463989,30.0,27.0,31.0,14.0,21.0,5.0,5.0,4.0,4.123105625617661,4.5,30.0,31.0,38.01315561749642
277,52,487,16.23333333333329,13.038404810405298,79.1580697086532,8.0,13.038404810405298,22.02271554554524,23.021728866442675,16.1245154965971,50.15974481593781,37.12142238654117,30.5,27.0,32.0,13.5,20.5,5.5,5.5,5.0,5.0990195135927845,5.0,31.0,30.0,37.013511046643494
278,52,488,16.266666666666627,13.038404810405298,79.1580697086532,8.0,13.038404810405298,22.02271554554524,23.021728866442675,16.1245154965971,50.15974481593781,37.12142238654117,30.5,27.0,32.0,13.5,20.5,5.5,5.5,5.0,5.0990195135927845,5.0,31.0,30.0,37.013511046643494
279,52,489,16.29999999999996,10.198039027185569,80.30566605165541,8.0,14.035668847618199,22.090722034374522,23.08679276123039,17.11724276862369,49.25444142409901,35.22782990761707,30.0,27.0,34.0,13.5,18.5,2.5,5.5,6.0,7.0710678118654755,7.0,31.0,29.0,37.0
280,52,490,16.333333333333297,7.0710678118654755,77.31752712031083,8.0,14.035668847618199,22.090722034374522,22.090722034374522,17.11724276862369,46.17358552246078,32.14031735997639,28.5,26.0,33.0,12.5,16.5,0.5,4.5,7.0,8.0,8.0,32.0,29.0,38.01315561749642
281,52,491,16.36666666666663,7.0710678118654755,76.4198926981712,8.06225774829855,14.035668847618199,21.213203435596427,23.08679276123039,17.11724276862369,46.2709412050371,32.2490309931942,28.5,26.0,34.0,13.0,16.0,1.0,4.0,9.0,9.0,9.0,32.0,28.0,37.0
282,52,492,16.399999999999967,9.219544457292887,78.40918313565064,8.06225774829855,13.038404810405298,20.09975124224178,22.090722034374522,16.0312195418814,46.2709412050371,33.24154027718932,28.5,26.0,34.0,14.0,16.0,1.0,5.0,8.06225774829855,9.0,9.5,32.0,26.0,38.118237105091836
283,52,493,16.4333333333333,9.219544457292887,78.40918313565064,8.06225774829855,13.038404810405298,20.09975124224178,22.090722034374522,16.0312195418814,46.2709412050371,33.24154027718932,28.5,26.0,34.0,14.0,16.0,1.0,5.0,8.06225774829855,9.0,9.5,32.0,26.0,38.118237105091836
284,52,494,16.466666666666637,9.055385138137417,77.52418977325722,8.06225774829855,15.132745950421556,21.213203435596427,22.20360331117452,16.0312195418814,48.25971404805462,33.13608305156178,28.5,26.0,35.0,14.5,17.5,0.5,5.5,9.055385138137417,11.0,10.5,32.0,25.0,39.05124837953327
285,52,495,16.49999999999997,8.06225774829855,76.32168761236873,8.06225774829855,15.033296378372908,20.09975124224178,22.090722034374522,16.1245154965971,47.265209192385896,32.2490309931942,28.0,26.0,33.0,13.5,17.5,1.5,5.5,8.06225774829855,11.0,11.0,33.0,26.0,35.05709628591621
286,52,496,16.533333333333307,5.385164807134504,78.5175139698144,9.0,13.038404810405298,21.213203435596427,22.20360331117452,16.492422502470642,43.56604182158393,30.59411708155671,27.5,26.0,35.0,14.5,12.5,2.5,4.5,8.06225774829855,11.045361017187261,11.0,33.0,28.0,36.013886210738214
287,52,497,16.56666666666664,4.123105625617661,78.77182237323191,9.055385138137417,13.038404810405298,19.235384061671343,20.223748416156685,17.11724276862369,43.289721643826724,30.265491900843113,28.0,24.0,35.0,12.5,13.5,1.5,2.5,9.055385138137417,8.06225774829855,9.0,34.0,25.0,34.058772731852805
288,52,498,16.599999999999977,6.082762530298219,77.64663547121665,9.055385138137417,13.152946437965905,22.20360331117452,23.345235059857504,16.278820596099706,44.553338819890925,31.400636936215164,28.0,26.0,36.0,15.0,13.0,2.0,6.0,8.06225774829855,9.219544457292887,9.5,33.0,24.0,32.14031735997639
289,52,499,16.63333333333331,9.219544457292887,80.50465825031493,8.06225774829855,14.035668847618199,20.223748416156685,22.20360331117452,15.524174696260024,46.69047011971501,32.7566787083184,27.5,25.0,34.0,14.5,16.5,0.5,5.5,10.0,10.0,10.5,32.0,28.0,33.015148038438355
290,52,500,16.666666666666647,10.04987562112089,79.40403012442127,7.0710678118654755,13.152946437965905,19.235384061671343,21.213203435596427,16.492422502470642,46.69047011971501,33.54101966249684,28.0,25.0,33.0,13.0,17.0,3.0,5.0,10.0,11.0,11.5,33.0,28.0,35.05709628591621
291,52,501,16.69999999999998,11.180339887498949,80.62257748298549,7.0710678118654755,14.035668847618199,20.223748416156685,21.213203435596427,16.492422502470642,48.662100242385755,34.713109915419565,28.5,24.0,34.0,13.0,19.0,3.0,5.0,10.04987562112089,12.0,12.0,35.0,24.0,34.132096331752024
292,52,502,16.733333333333317,12.041594578792296,80.06247560499239,7.280109889280518,13.341664064126334,20.396078054371138,21.37755832643195,15.524174696260024,48.05205510693585,34.713109915419565,28.0,21.0,34.0,12.5,19.5,4.5,3.5,8.06225774829855,9.055385138137417,9.5,36.0,22.0,34.36568055487916
293,52,503,16.76666666666665,11.180339887498949,80.23091673413684,8.246211251235321,13.152946437965905,21.37755832643195,23.345235059857504,15.524174696260024,48.05205510693585,34.92849839314596,28.5,22.0,36.0,14.0,18.0,2.0,5.0,9.055385138137417,10.04987562112089,10.0,36.0,21.0,32.38826948140329
294,52,504,16.799999999999986,5.385164807134504,79.63039620647382,8.06225774829855,14.142135623730951,17.11724276862369,18.110770276274835,19.4164878389476,46.87216658103186,32.7566787083184,29.5,22.0,32.0,8.0,19.0,3.0,0.0,8.246211251235321,10.0,10.0,35.0,26.0,37.21558813185679
295,52,505,16.83333333333332,9.219544457292887,80.23091673413684,8.06225774829855,12.165525060596439,21.37755832643195,22.360679774997898,15.811388300841896,45.12205669071391,32.984845004941285,27.5,20.0,34.0,12.0,17.0,2.0,3.0,7.280109889280518,10.04987562112089,10.0,36.0,23.0,34.23448553724738
296,52,506,16.866666666666656,11.045361017187261,80.23091673413684,6.324555320336759,12.36931687685298,20.396078054371138,21.37755832643195,16.492422502470642,46.09772228646444,33.734255586866,27.5,20.0,34.0,11.0,18.0,3.0,3.0,8.246211251235321,10.04987562112089,10.5,36.0,22.0,34.23448553724738
297,52,507,16.89999999999999,9.219544457292887,79.62411694957753,8.246211251235321,12.36931687685298,21.587033144922902,22.561028345356956,15.297058540778355,45.12205669071391,32.7566787083184,27.5,19.0,35.0,12.0,17.0,2.0,3.0,8.246211251235321,9.219544457292887,9.0,38.0,19.0,35.510561809129406
298,52,508,16.933333333333326,10.04987562112089,79.42921376924235,7.280109889280518,12.36931687685298,21.587033144922902,23.53720459187964,15.297058540778355,44.91102314577124,32.55764119219941,27.0,19.0,34.0,11.5,17.5,2.5,2.5,9.219544457292887,9.055385138137417,9.0,38.0,19.0,34.52535300326414
299,52,509,16.96666666666666,12.165525060596439,80.23091673413684,7.0710678118654755,12.36931687685298,21.37755832643195,23.53720459187964,15.524174696260024,47.07440918375928,34.713109915419565,28.0,20.0,34.0,12.0,19.0,4.0,4.0,8.246211251235321,10.04987562112089,10.0,38.0,21.0,32.7566787083184
300,52,510,16.999999999999996,12.041594578792296,78.44743462982075,7.280109889280518,12.36931687685298,21.37755832643195,23.345235059857504,15.524174696260024,47.07440918375928,34.713109915419565,28.0,20.0,35.0,12.5,18.5,3.5,4.5,8.246211251235321,9.219544457292887,8.5,39.0,19.0,33.734255586866
301,52,511,17.03333333333333,13.038404810405298,78.26237921249263,7.280109889280518,11.40175425099138,21.37755832643195,21.37755832643195,15.524174696260024,47.07440918375928,35.6931365951495,28.5,21.0,35.0,13.0,18.0,4.0,5.0,7.0710678118654755,8.246211251235321,7.5,39.0,19.0,32.7566787083184
302,52,512,17.066666666666666,11.045361017187261,80.4114419718985,7.280109889280518,12.36931687685298,20.615528128088304,22.360679774997898,16.492422502470642,47.07440918375928,34.713109915419565,28.5,20.0,35.0,11.5,18.5,3.5,2.5,8.246211251235321,10.04987562112089,10.0,38.0,20.0,32.55764119219941
303,52,513,17.1,13.152946437965905,79.42921376924235,6.324555320336759,11.180339887498949,20.615528128088304,22.561028345356956,15.524174696260024,46.09772228646444,34.92849839314596,27.5,20.0,35.0,12.5,17.5,3.5,4.5,7.280109889280518,9.219544457292887,9.0,38.0,19.0,32.55764119219941
304,52,514,17.133333333333336,11.180339887498949,77.87810988975015,7.280109889280518,12.36931687685298,21.587033144922902,22.360679774997898,15.524174696260024,46.32493928760188,33.95585369269929,27.5,19.0,36.0,12.5,17.5,2.5,3.5,7.280109889280518,9.055385138137417,8.5,38.0,18.0,33.734255586866
305,52,515,17.16666666666667,10.04987562112089,79.62411694957753,7.280109889280518,12.36931687685298,21.587033144922902,21.587033144922902,16.492422502470642,46.09772228646444,33.734255586866,28.0,20.0,36.0,12.0,17.0,2.0,3.0,8.246211251235321,9.219544457292887,9.0,38.0,19.0,31.575306807693888
306,52,516,17.200000000000006,8.246211251235321,80.4114419718985,8.06225774829855,12.36931687685298,22.360679774997898,23.345235059857504,15.811388300841896,44.384682042344295,32.01562118716424,27.0,20.0,35.0,12.5,15.5,1.5,3.5,7.280109889280518,9.219544457292887,8.5,38.0,19.0,28.635642126552707
307,52,517,17.23333333333334,9.219544457292887,80.4114419718985,7.0710678118654755,12.36931687685298,20.615528128088304,22.561028345356956,16.15549442140351,44.64302857109943,32.28002478313795,26.5,20.0,35.0,12.5,15.5,1.5,3.5,8.246211251235321,10.198039027185569,10.0,38.0,19.0,29.614185789921695
308,52,518,17.266666666666676,9.219544457292887,80.4114419718985,7.0710678118654755,12.165525060596439,22.561028345356956,23.53720459187964,15.811388300841896,44.14748010928823,32.01562118716424,26.5,20.0,35.0,12.5,15.5,0.5,3.5,7.280109889280518,8.06225774829855,8.0,37.0,21.0,29.427877939124322
309,52,519,17.30000000000001,9.219544457292887,80.4114419718985,7.280109889280518,12.165525060596439,21.37755832643195,22.561028345356956,16.76305461424021,45.35416188179427,33.24154027718932,27.5,20.0,35.0,11.5,16.5,1.5,3.5,7.0710678118654755,9.219544457292887,9.0,37.0,19.0,30.59411708155671
310,52,520,17.333333333333346,12.165525060596439,79.2464510246358,7.280109889280518,12.165525060596439,21.37755832643195,23.53720459187964,14.866068747318506,46.32493928760188,34.20526275297414,27.0,20.0,34.0,13.0,18.0,3.0,4.0,7.280109889280518,9.219544457292887,9.0,39.0,21.0,32.7566787083184
311,52,521,17.36666666666668,15.132745950421556,80.23091673413684,6.324555320336759,10.44030650891055,20.396078054371138,22.561028345356956,16.278820596099706,48.05205510693585,37.656340767525464,29.5,22.0,36.0,13.0,18.0,5.0,6.0,8.246211251235321,8.246211251235321,8.0,38.0,18.0,32.55764119219941
312,52,522,17.400000000000016,15.132745950421556,80.06247560499239,6.324555320336759,12.165525060596439,20.223748416156685,22.360679774997898,16.278820596099706,49.8196748283246,37.656340767525464,29.5,22.0,35.0,12.5,20.5,6.5,5.5,8.246211251235321,9.055385138137417,9.0,39.0,20.0,31.575306807693888
313,52,523,17.43333333333335,15.033296378372908,80.89499366462674,7.280109889280518,12.36931687685298,19.235384061671343,22.20360331117452,17.26267650163207,51.78802950489621,39.45883931389772,31.5,22.0,34.0,11.0,23.0,9.0,3.0,8.246211251235321,10.04987562112089,9.5,39.0,21.0,31.575306807693888
314,52,524,17.466666666666686,16.0312195418814,81.04936767180853,6.324555320336759,12.36931687685298,21.213203435596427,23.194827009486403,15.297058540778355,49.8196748283246,37.48332962798263,29.0,21.0,34.0,12.5,21.5,7.5,5.5,8.246211251235321,9.055385138137417,9.0,39.0,19.0,31.78049716414141
315,52,525,17.50000000000002,13.152946437965905,78.44743462982075,7.280109889280518,12.36931687685298,20.396078054371138,22.360679774997898,16.492422502470642,49.24428900898052,36.87817782917155,29.5,22.0,37.0,13.5,18.5,3.5,5.5,8.06225774829855,8.246211251235321,8.0,38.0,18.0,32.55764119219941
316,52,526,17.533333333333356,11.045361017187261,76.48529270389177,8.246211251235321,12.36931687685298,21.587033144922902,22.561028345356956,15.524174696260024,47.07440918375928,34.713109915419565,28.5,23.0,38.0,15.5,15.5,0.5,5.5,8.06225774829855,9.219544457292887,9.0,39.0,18.0,33.54101966249684
317,52,527,17.56666666666669,10.198039027185569,75.50496672405067,7.0710678118654755,13.341664064126334,20.396078054371138,22.561028345356956,16.492422502470642,47.07440918375928,33.734255586866,28.0,23.0,38.0,14.5,15.5,0.5,5.5,9.219544457292887,9.219544457292887,9.0,39.0,18.0,34.52535300326414
318,52,528,17.600000000000026,9.219544457292887,74.52516353554684,8.246211251235321,12.36931687685298,20.615528128088304,22.360679774997898,16.492422502470642,46.32493928760188,33.95585369269929,28.5,23.0,38.0,14.5,14.5,0.5,4.5,9.219544457292887,10.04987562112089,9.5,40.0,20.0,33.54101966249684
319,52,529,17.63333333333336,7.0710678118654755,72.18032973047436,9.219544457292887,13.152946437965905,20.223748416156685,22.20360331117452,15.524174696260024,44.91102314577124,31.78049716414141,27.5,23.0,36.0,14.5,14.5,0.5,4.5,9.219544457292887,10.198039027185569,10.0,36.0,20.0,30.265491900843113
320,52,530,17.666666666666696,4.123105625617661,70.40596565632774,10.198039027185569,14.317821063276353,18.439088914585774,19.4164878389476,15.297058540778355,43.93176527297759,29.614185789921695,27.0,23.0,37.0,15.0,13.0,4.0,3.0,9.219544457292887,11.045361017187261,10.0,39.0,19.0,34.52535300326414
321,52,531,17.70000000000003,6.082762530298219,73.348483283569,9.219544457292887,14.317821063276353,19.4164878389476,22.360679774997898,16.278820596099706,45.89117562233506,31.575306807693888,28.0,23.0,37.0,14.0,15.0,2.0,4.0,9.219544457292887,9.219544457292887,9.0,38.0,20.0,32.55764119219941
322,52,532,17.733333333333366,10.198039027185569,78.64477096412705,8.246211251235321,13.341664064126334,20.615528128088304,22.561028345356956,15.132745950421556,46.87216658103186,33.54101966249684,28.0,23.0,39.0,16.0,15.0,1.0,6.0,7.280109889280518,9.055385138137417,8.5,41.0,23.0,32.55764119219941
323,52,533,17.7666666666667,10.198039027185569,76.2954782408499,8.246211251235321,12.36931687685298,21.37755832643195,23.53720459187964,15.297058540778355,46.09772228646444,33.734255586866,28.0,23.0,37.0,15.0,15.0,1.0,6.0,6.324555320336759,7.280109889280518,7.0,40.0,22.0,32.55764119219941
324,52,534,17.800000000000036,9.055385138137417,80.62257748298549,8.06225774829855,13.341664064126334,21.37755832643195,23.345235059857504,15.811388300841896,46.09772228646444,32.7566787083184,27.5,25.0,35.0,15.0,15.0,0.0,6.0,8.246211251235321,9.055385138137417,9.0,35.0,25.0,27.16615541441225
325,52,535,17.83333333333337,14.035668847618199,78.91767862779544,8.246211251235321,12.165525060596439,21.37755832643195,22.360679774997898,15.132745950421556,49.49747468305833,37.33630940518894,30.0,26.0,38.0,17.0,17.0,2.0,8.0,6.082762530298219,7.280109889280518,7.0,41.0,27.0,30.4138126514911
326,52,536,17.866666666666706,7.0710678118654755,75.8023746329889,9.055385138137417,15.132745950421556,21.213203435596427,22.360679774997898,15.132745950421556,46.389654018972806,31.25699921617557,27.5,26.0,37.0,16.5,14.5,2.5,6.5,6.0,8.246211251235321,8.0,37.0,29.0,31.400636936215164
327,52,537,17.90000000000004,4.123105625617661,74.54528824815154,9.055385138137417,15.132745950421556,21.213203435596427,22.20360331117452,16.0,44.181444068749045,29.068883707497267,27.0,26.0,35.0,14.5,13.5,2.5,4.5,3.0,3.605551275463989,3.5,37.0,27.0,33.37663853655727
328,52,538,17.933333333333376,5.0990195135927845,71.56814934033156,10.198039027185569,14.035668847618199,20.223748416156685,21.213203435596427,15.0,44.181444068749045,30.14962686336267,27.5,27.0,36.0,16.5,12.5,3.5,5.5,4.123105625617661,5.385164807134504,5.0,37.0,28.0,33.37663853655727
329,52,539,17.96666666666671,6.082762530298219,74.43117626371358,9.055385138137417,14.035668847618199,21.213203435596427,21.213203435596427,15.0,44.10215414239989,30.066592756745816,27.0,27.0,35.0,16.0,13.0,3.0,6.0,6.082762530298219,7.280109889280518,7.0,35.0,26.0,34.36568055487916
330,52,540,18.000000000000046,8.06225774829855,75.32595834106593,9.055385138137417,14.035668847618199,20.09975124224178,21.213203435596427,16.0312195418814,47.16990566028302,33.13608305156178,29.0,29.0,36.0,16.5,14.5,0.5,7.5,7.0,9.055385138137417,8.5,35.0,25.0,34.132096331752024
331,52,541,18.03333333333338,16.0312195418814,75.4254598925323,8.0,14.142135623730951,21.213203435596427,23.194827009486403,15.132745950421556,53.23532661682466,39.11521443121589,31.0,30.0,38.0,19.0,19.0,3.0,10.0,8.0,8.06225774829855,8.5,33.0,26.0,36.124783736376884
332,52,542,18.06666666666672,15.132745950421556,79.22752047110903,9.055385138137417,14.035668847618199,22.090722034374522,23.08679276123039,15.033296378372908,53.23532661682466,39.20459156782532,31.5,31.0,37.0,19.0,19.0,3.0,10.0,8.0,9.055385138137417,9.0,34.0,27.0,37.12142238654117
333,52,543,18.10000000000005,16.0,78.16009211867653,8.06225774829855,14.035668847618199,21.095023109728988,23.194827009486403,15.033296378372908,53.08483775994799,39.05124837953327,31.0,30.0,35.0,17.5,20.5,4.5,9.5,8.06225774829855,9.0,9.0,33.0,28.0,37.05401462729781
334,52,544,18.133333333333383,11.045361017187261,75.16648189186454,9.055385138137417,14.035668847618199,21.095023109728988,22.090722034374522,15.0,49.09175083453431,35.05709628591621,29.5,31.0,36.0,18.5,15.5,0.5,9.5,8.0,9.0,9.5,32.0,27.0,36.05551275463989
335,52,545,18.16666666666672,2.0,74.16872656315464,11.045361017187261,15.033296378372908,20.024984394500787,20.024984394500787,17.029386365926403,45.09988913511872,30.066592756745816,29.0,32.0,37.0,17.5,10.5,5.5,6.5,8.06225774829855,10.0,10.0,32.0,29.0,38.01315561749642
336,52,546,18.200000000000056,1.0,73.10950690573696,11.045361017187261,15.0,20.024984394500787,20.024984394500787,18.027756377319946,45.044422518220834,30.066592756745816,29.5,32.0,36.0,16.0,11.0,5.0,5.0,9.0,10.0,10.5,32.0,29.0,37.013511046643494
337,52,547,18.23333333333339,3.0,73.06161783043132,11.045361017187261,15.0,19.026297590440446,20.024984394500787,17.0,46.010868281309364,31.016124838541646,29.5,32.0,35.0,16.5,12.5,3.5,4.5,10.0,10.0,10.0,31.0,30.0,40.01249804748511
338,52,548,18.26666666666673,2.0,75.05997601918082,11.0,15.0,20.024984394500787,21.02379604162864,18.027756377319946,46.010868281309364,31.016124838541646,30.0,32.0,35.0,15.5,12.5,3.5,4.5,10.0,10.0,10.0,31.0,31.0,39.01281840626232
339,52,549,18.30000000000006,11.045361017187261,71.06335201775947,8.0,14.0,20.024984394500787,21.02379604162864,17.11724276862369,50.08991914547278,36.124783736376884,30.5,33.0,36.0,17.5,15.5,0.5,8.5,10.0,11.045361017187261,11.0,29.0,27.0,35.014282800023196
340,52,550,18.3333333333334,14.0,73.02739212103907,9.0,15.0,20.024984394500787,21.0,16.0312195418814,54.00925846556311,39.01281840626232,32.0,34.0,36.0,19.0,19.0,3.0,10.0,10.0,11.0,11.0,29.0,30.0,35.0
341,52,551,18.36666666666673,13.038404810405298,75.0,10.0,15.0,20.0,22.0,16.0312195418814,54.037024344425184,39.05124837953327,32.5,34.0,34.0,18.0,20.0,4.0,9.0,9.0,10.0,10.0,29.0,30.0,37.0
342,52,552,18.400000000000063,16.0,73.02739212103907,8.0,15.0,20.0,22.0,15.033296378372908,54.00925846556311,39.01281840626232,31.0,34.0,36.0,20.0,19.0,4.0,12.0,10.0,11.045361017187261,11.0,27.0,31.0,37.013511046643494
343,52,553,18.4333333333334,16.0,75.05997601918082,9.0,14.0,21.02379604162864,22.0,16.1245154965971,55.036351623268054,41.048751503547585,33.0,35.0,38.0,20.5,18.5,3.5,11.5,9.055385138137417,11.045361017187261,11.0,27.0,31.0,37.013511046643494
344,52,554,18.466666666666736,15.033296378372908,74.00675644831355,10.0,15.033296378372908,21.0,22.02271554554524,15.033296378372908,55.00909015790027,40.049968789001575,32.5,35.0,36.0,20.5,19.5,3.5,10.5,11.045361017187261,12.0,12.0,27.0,31.0,37.013511046643494
345,52,555,18.50000000000007,14.035668847618199,79.00632886041473,10.0,14.035668847618199,22.0,23.0,15.0,53.0,39.01281840626232,32.0,34.0,33.0,18.5,19.5,4.5,8.5,10.04987562112089,11.045361017187261,11.0,28.0,33.0,40.01249804748511
346,52,556,18.53333333333341,12.0,77.00649323271382,11.0,14.035668847618199,22.0,22.02271554554524,14.0,51.0098029794274,37.0,31.0,34.0,33.0,19.5,17.5,2.5,9.5,10.04987562112089,11.045361017187261,11.0,28.0,33.0,40.049968789001575
347,52,557,18.56666666666674,13.0,78.02563681252464,9.0,14.0,22.0,23.021728866442675,15.0,51.0,37.0,30.5,33.0,31.0,17.0,19.0,4.0,8.0,10.0,12.041594578792296,12.0,27.0,34.0,40.11234224026316
348,52,558,18.60000000000008,11.045361017187261,78.00640999302557,10.0,14.035668847618199,20.0,21.0,15.0,50.0,36.013886210738214,30.5,33.0,32.0,17.5,17.5,2.5,8.5,10.04987562112089,11.045361017187261,11.5,28.0,34.0,41.10960958218893
349,52,559,18.63333333333341,12.041594578792296,77.02596964660685,9.0,14.0,21.0,21.0,16.0312195418814,51.0,37.0,31.0,34.0,32.0,17.0,18.0,4.0,8.0,10.04987562112089,11.045361017187261,11.0,27.0,33.0,37.05401462729781
350,52,560,18.666666666666742,10.0,78.05767098754612,9.055385138137417,14.0,22.0,23.021728866442675,15.033296378372908,48.0,34.0,29.0,33.0,30.0,16.5,16.5,2.5,7.5,10.04987562112089,11.045361017187261,11.0,25.0,33.0,38.118237105091836
351,52,561,18.70000000000008,9.055385138137417,77.1621668954417,10.0,14.0,21.02379604162864,23.08679276123039,15.0,48.010415536631214,34.0147027033899,29.5,34.0,29.0,16.5,16.5,2.5,7.5,9.055385138137417,10.04987562112089,10.5,24.0,33.0,34.132096331752024
352,52,562,18.733333333333416,11.0,78.23042886243178,9.0,13.152946437965905,21.02379604162864,23.08679276123039,15.033296378372908,48.093658625644196,35.014282800023196,29.5,33.0,27.0,15.0,18.0,5.0,7.0,8.06225774829855,9.055385138137417,8.5,24.0,37.0,39.45883931389772
353,52,563,18.76666666666675,9.0,77.23341245859851,10.04987562112089,14.035668847618199,22.02271554554524,22.02271554554524,15.0,48.041648597857254,34.0147027033899,29.5,33.0,27.0,15.0,18.0,4.0,6.0,7.0710678118654755,8.246211251235321,8.0,24.0,36.0,34.36568055487916
354,52,564,18.80000000000009,9.0,78.23042886243178,10.04987562112089,13.152946437965905,21.095023109728988,23.194827009486403,14.035668847618199,46.17358552246078,33.06055050963308,28.5,32.0,26.0,15.0,17.0,4.0,7.0,4.123105625617661,3.1622776601683795,3.5,23.0,37.0,38.47076812334269
355,52,565,18.83333333333342,10.04987562112089,79.40403012442127,9.055385138137417,13.038404810405298,22.090722034374522,23.194827009486403,15.033296378372908,47.16990566028302,34.132096331752024,29.0,33.0,25.0,14.0,18.0,5.0,6.0,3.1622776601683795,4.123105625617661,4.0,22.0,39.0,38.63935817272331
356,52,566,18.86666666666676,9.055385138137417,79.63039620647382,9.055385138137417,14.142135623730951,22.090722034374522,22.360679774997898,15.033296378372908,47.265209192385896,33.13608305156178,28.5,34.0,24.0,14.0,18.0,5.0,6.0,2.8284271247461903,3.1622776601683795,3.0,21.0,39.0,38.63935817272331
357,52,567,18.90000000000009,10.0,78.77182237323191,9.219544457292887,14.317821063276353,23.194827009486403,23.194827009486403,15.033296378372908,48.373546489791295,34.132096331752024,29.0,35.0,24.0,14.5,18.5,4.5,7.5,4.242640687119285,4.123105625617661,4.0,19.0,39.0,41.0
358,52,568,18.933333333333422,10.04987562112089,78.77182237323191,10.04987562112089,14.142135623730951,22.20360331117452,24.186773244895647,14.035668847618199,48.25971404805462,34.132096331752024,29.0,34.0,23.0,14.5,19.5,5.5,6.5,4.242640687119285,4.123105625617661,4.0,20.0,39.0,39.05124837953327
359,52,569,18.96666666666676,12.041594578792296,76.94153624668537,9.055385138137417,14.142135623730951,22.20360331117452,24.331050121192877,15.132745950421556,50.35871324805669,36.22154055254967,30.0,36.0,24.0,15.0,20.0,6.0,8.0,5.385164807134504,5.0990195135927845,5.5,19.0,39.0,41.0
360,52,570,19.000000000000096,12.041594578792296,77.10382610480494,10.198039027185569,15.132745950421556,22.360679774997898,24.186773244895647,15.033296378372908,52.3450093132096,37.21558813185679,31.0,38.0,25.0,16.5,20.5,6.5,9.5,6.324555320336759,6.324555320336759,6.5,19.0,40.0,41.773197148410844
361,52,571,19.03333333333343,14.035668847618199,76.94153624668537,9.055385138137417,15.297058540778355,21.213203435596427,22.360679774997898,15.132745950421556,53.46026561849464,38.2099463490856,31.0,36.0,24.0,15.0,23.0,9.0,8.0,7.280109889280518,8.246211251235321,8.0,19.0,40.0,38.07886552931954
362,52,572,19.06666666666677,15.033296378372908,78.26237921249263,10.04987562112089,14.317821063276353,22.360679774997898,24.331050121192877,14.142135623730951,53.46026561849464,39.20459156782532,31.5,37.0,23.0,16.0,23.0,9.0,9.0,7.280109889280518,8.246211251235321,8.5,19.0,40.0,37.8549864614954
363,52,573,19.1000000000001,15.033296378372908,77.10382610480494,9.055385138137417,14.317821063276353,22.20360331117452,24.331050121192877,15.132745950421556,53.46026561849464,39.20459156782532,31.5,37.0,24.0,15.5,22.5,8.5,8.5,8.246211251235321,8.54400374531753,8.0,18.0,40.0,38.07886552931954
364,52,574,19.13333333333344,14.142135623730951,77.10382610480494,10.04987562112089,15.132745950421556,21.37755832643195,23.194827009486403,15.132745950421556,54.45181356024793,39.319206502675,32.0,38.0,25.0,16.5,22.5,8.5,9.5,9.219544457292887,9.486832980505138,9.0,18.0,40.0,36.87817782917155
365,52,575,19.16666666666677,15.132745950421556,76.11832893594026,9.055385138137417,15.132745950421556,21.37755832643195,23.194827009486403,15.132745950421556,54.45181356024793,39.319206502675,31.5,37.0,24.0,15.5,23.5,8.5,9.5,9.219544457292887,9.219544457292887,9.0,19.0,40.0,39.293765408777
366,52,576,19.200000000000102,15.033296378372908,77.10382610480494,9.055385138137417,15.297058540778355,21.213203435596427,23.194827009486403,15.132745950421556,54.45181356024793,39.20459156782532,31.5,37.0,24.0,15.5,23.5,8.5,8.5,10.198039027185569,9.219544457292887,9.5,19.0,41.0,40.26164427839479
367,52,577,19.23333333333344,14.142135623730951,76.2954782408499,9.055385138137417,15.132745950421556,22.20360331117452,24.331050121192877,15.132745950421556,53.46026561849464,38.3275357934736,31.0,37.0,23.0,15.0,23.0,9.0,8.0,10.198039027185569,9.219544457292887,9.5,18.0,41.0,39.293765408777
368,52,578,19.266666666666776,15.033296378372908,75.50496672405067,9.219544457292887,14.317821063276353,22.20360331117452,23.345235059857504,15.132745950421556,53.600373133029585,39.319206502675,31.5,38.0,23.0,15.5,22.5,8.5,8.5,9.219544457292887,10.44030650891055,10.0,18.0,41.0,38.3275357934736
369,52,579,19.30000000000011,15.033296378372908,76.2954782408499,9.055385138137417,15.297058540778355,23.194827009486403,24.515301344262525,15.132745950421556,54.45181356024793,39.20459156782532,31.5,38.0,24.0,16.0,23.0,8.0,9.0,9.219544457292887,10.44030650891055,9.5,18.0,41.0,39.293765408777
370,52,580,19.33333333333345,14.142135623730951,75.31268153505093,10.04987562112089,15.132745950421556,22.360679774997898,23.345235059857504,15.132745950421556,54.45181356024793,39.319206502675,32.0,38.0,24.0,16.0,23.0,9.0,9.0,9.219544457292887,9.219544457292887,9.5,17.0,40.0,39.293765408777
371,52,581,19.36666666666678,15.033296378372908,75.31268153505093,9.219544457292887,15.297058540778355,22.20360331117452,24.331050121192877,15.132745950421556,54.589376255824725,39.319206502675,31.5,38.0,24.0,16.0,23.0,9.0,9.0,9.219544457292887,10.198039027185569,10.0,19.0,41.0,39.56008088970496
372,52,582,19.40000000000012,14.035668847618199,74.33034373659252,9.055385138137417,15.297058540778355,22.360679774997898,22.360679774997898,16.1245154965971,54.45181356024793,39.20459156782532,32.0,38.0,24.0,15.0,23.0,9.0,9.0,10.198039027185569,10.44030650891055,10.0,18.0,41.0,39.293765408777
373,52,583,19.43333333333345,14.035668847618199,75.31268153505093,10.04987562112089,16.278820596099706,21.37755832643195,24.331050121192877,15.132745950421556,55.44366510251645,39.20459156782532,32.0,38.0,24.0,16.0,24.0,9.0,9.0,10.198039027185569,9.486832980505138,9.5,17.0,40.0,39.293765408777
374,52,584,19.466666666666782,14.035668847618199,73.348483283569,9.219544457292887,15.297058540778355,20.223748416156685,22.360679774997898,15.132745950421556,53.600373133029585,38.3275357934736,31.0,38.0,24.0,16.0,22.0,8.0,9.0,8.246211251235321,8.246211251235321,8.5,18.0,42.0,40.52159917870962
375,52,585,19.50000000000012,11.045361017187261,73.348483283569,9.219544457292887,15.297058540778355,20.223748416156685,21.587033144922902,16.1245154965971,51.62363799656123,36.345563690772494,30.5,38.0,24.0,15.0,20.0,5.0,8.0,5.830951894845301,6.324555320336759,6.0,18.0,42.0,39.56008088970496
376,52,586,19.533333333333456,7.280109889280518,73.348483283569,9.219544457292887,16.1245154965971,20.396078054371138,21.37755832643195,17.11724276862369,49.64876634922564,33.54101966249684,29.5,37.0,23.0,13.0,19.0,4.0,6.0,4.242640687119285,3.605551275463989,3.0,18.0,43.0,38.600518131237564
377,52,587,19.56666666666679,4.47213595499958,71.386273190299,10.04987562112089,16.1245154965971,19.4164878389476,21.213203435596427,17.26267650163207,47.67598976424087,31.575306807693888,29.0,37.0,23.0,13.0,17.0,2.0,5.0,3.605551275463989,3.1622776601683795,2.5,18.0,42.0,37.64306044943742
378,52,588,19.60000000000013,5.0990195135927845,71.19691004531025,10.198039027185569,16.1245154965971,19.235384061671343,20.396078054371138,17.11724276862369,48.507731342539614,32.38826948140329,29.5,37.0,24.0,13.5,17.5,1.5,5.5,4.242640687119285,3.1622776601683795,3.0,18.0,41.0,38.3275357934736
379,52,589,19.63333333333346,5.385164807134504,72.18032973047436,10.04987562112089,16.1245154965971,20.223748416156685,21.213203435596427,16.278820596099706,47.67598976424087,31.575306807693888,28.5,36.0,23.0,13.5,17.5,1.5,5.5,5.830951894845301,5.385164807134504,5.0,18.0,42.0,38.3275357934736
380,52,590,19.6666666666668,6.324555320336759,71.84705978674423,10.04987562112089,16.1245154965971,19.235384061671343,21.37755832643195,16.1245154965971,48.507731342539614,32.38826948140329,29.0,36.0,25.0,14.5,17.5,1.5,6.5,7.615773105863909,7.615773105863909,7.5,18.0,41.0,37.36308338453881
381,52,591,19.70000000000013,9.055385138137417,72.83543093852057,10.04987562112089,16.278820596099706,19.1049731745428,21.37755832643195,16.1245154965971,51.478150704935004,35.22782990761707,30.5,37.0,26.0,15.5,19.5,3.5,6.5,8.246211251235321,9.219544457292887,9.0,18.0,40.0,36.138621999185304
382,52,592,19.733333333333466,12.041594578792296,73.824115301167,9.055385138137417,16.1245154965971,20.09975124224178,21.213203435596427,16.0312195418814,53.23532661682466,37.12142238654117,31.0,37.0,26.0,15.5,21.5,6.5,7.5,9.219544457292887,9.219544457292887,9.0,18.0,40.0,36.87817782917155
383,52,593,19.7666666666668,12.041594578792296,72.83543093852057,10.198039027185569,16.1245154965971,20.223748416156685,21.213203435596427,15.033296378372908,53.33854141237835,37.21558813185679,31.0,36.0,25.0,15.5,22.5,6.5,7.5,9.219544457292887,9.486832980505138,9.5,19.0,40.0,37.107950630558946
384,52,594,19.800000000000136,13.038404810405298,74.81310045707235,10.04987562112089,14.142135623730951,21.095023109728988,23.194827009486403,14.142135623730951,51.35172830587107,37.21558813185679,30.5,35.0,24.0,15.5,21.5,7.5,7.5,9.219544457292887,10.44030650891055,10.0,19.0,39.0,37.8549864614954
385,52,595,19.83333333333347,12.041594578792296,75.95393340703298,9.219544457292887,14.142135623730951,22.090722034374522,23.194827009486403,15.033296378372908,50.35871324805669,36.22154055254967,30.0,37.0,25.0,16.0,19.0,5.0,8.0,9.055385138137417,10.44030650891055,10.0,21.0,41.0,39.81205847478876
386,52,596,19.86666666666681,11.045361017187261,76.79192665899195,9.055385138137417,14.142135623730951,21.095023109728988,23.194827009486403,15.132745950421556,49.36598018878993,35.22782990761707,29.5,36.0,25.0,15.5,18.5,4.5,8.5,9.055385138137417,10.198039027185569,10.0,20.0,40.0,38.8329756778952
387,52,597,19.90000000000014,13.0,77.64663547121665,8.246211251235321,14.142135623730951,22.090722034374522,22.20360331117452,15.033296378372908,50.24937810560445,36.124783736376884,29.5,35.0,25.0,15.0,20.0,6.0,8.0,10.198039027185569,10.198039027185569,10.5,20.0,38.0,36.6742416417845
388,52,598,19.93333333333348,11.045361017187261,75.66372975210778,9.055385138137417,15.132745950421556,21.095023109728988,22.20360331117452,15.033296378372908,50.24937810560445,35.12833614050059,29.5,35.0,25.0,15.0,20.0,5.0,8.0,9.219544457292887,10.198039027185569,10.5,20.0,39.0,39.05124837953327
389,52,599,19.96666666666681,15.033296378372908,76.53103945458993,9.055385138137417,14.142135623730951,22.090722034374522,23.194827009486403,14.035668847618199,52.23983154643591,38.118237105091836,30.5,36.0,27.0,17.5,20.5,6.5,9.5,10.04987562112089,11.180339887498949,11.0,20.0,38.0,37.656340767525464
390,52,600,20.000000000000146,12.041594578792296,74.54528824815154,10.04987562112089,15.132745950421556,20.223748416156685,21.213203435596427,16.1245154965971,53.33854141237835,38.2099463490856,32.0,37.0,28.0,16.5,20.5,5.5,8.5,10.198039027185569,10.198039027185569,10.5,21.0,39.0,36.6742416417845
391,52,601,20.03333333333348,3.0,72.3394774656273,11.045361017187261,16.1245154965971,18.110770276274835,19.026297590440446,18.110770276274835,48.25971404805462,32.14031735997639,30.5,35.0,28.0,13.5,16.5,0.5,3.5,9.055385138137417,11.180339887498949,11.0,22.0,39.0,35.6931365951495
392,52,602,20.066666666666816,1.4142135623730951,73.43704787094863,11.045361017187261,16.0312195418814,19.1049731745428,20.09975124224178,19.1049731745428,47.265209192385896,31.25699921617557,30.5,36.0,28.0,13.0,15.0,1.0,3.0,9.219544457292887,10.04987562112089,10.0,23.0,38.0,37.48332962798263
393,52,603,20.10000000000015,2.23606797749979,73.43704787094863,11.045361017187261,16.0312195418814,19.1049731745428,20.09975124224178,19.1049731745428,48.25971404805462,32.2490309931942,31.0,36.0,28.0,13.0,16.0,1.0,3.0,10.198039027185569,11.180339887498949,11.0,22.0,38.0,35.6931365951495
394,52,604,20.13333333333349,2.23606797749979,74.33034373659252,11.045361017187261,16.1245154965971,19.1049731745428,21.095023109728988,19.026297590440446,48.25971404805462,32.14031735997639,31.0,36.0,29.0,13.5,15.5,0.5,3.5,10.04987562112089,10.04987562112089,10.5,23.0,37.0,37.33630940518894
395,52,605,20.16666666666682,3.1622776601683795,74.33034373659252,12.041594578792296,17.029386365926403,20.09975124224178,20.09975124224178,19.026297590440446,51.15662224971465,34.132096331752024,32.5,36.0,29.0,13.5,18.5,1.5,3.5,10.04987562112089,11.045361017187261,11.5,24.0,38.0,38.47076812334269
396,52,606,20.20000000000016,7.0710678118654755,75.23961722390672,12.0,17.029386365926403,21.02379604162864,22.02271554554524,17.029386365926403,53.08483775994799,36.05551275463989,32.5,35.0,29.0,15.0,21.0,4.0,4.0,10.04987562112089,11.180339887498949,11.0,24.0,37.0,37.48332962798263
397,52,607,20.23333333333349,12.041594578792296,76.16429609731846,10.0,14.035668847618199,21.02379604162864,22.02271554554524,17.029386365926403,53.08483775994799,39.05124837953327,33.0,35.0,30.0,15.5,20.5,5.5,6.5,10.04987562112089,10.04987562112089,10.5,25.0,36.0,37.33630940518894
398,52,608,20.266666666666826,12.041594578792296,77.1621668954417,10.0,15.033296378372908,21.02379604162864,23.08679276123039,16.0312195418814,53.08483775994799,38.05259518088089,32.0,34.0,29.0,15.5,21.5,5.5,6.5,10.04987562112089,10.198039027185569,10.5,25.0,36.0,38.3275357934736
399,52,609,20.30000000000016,12.041594578792296,78.10249675906654,10.0,14.0,20.024984394500787,23.021728866442675,16.0,52.009614495783374,38.01315561749642,32.0,34.0,30.0,16.0,20.0,5.0,7.0,10.04987562112089,10.04987562112089,10.5,24.0,35.0,38.3275357934736
400,52,610,20.333333333333496,13.0,78.10249675906654,9.055385138137417,14.035668847618199,21.02379604162864,23.08679276123039,16.0,52.03844732503075,38.01315561749642,31.5,33.0,29.0,15.0,21.0,6.0,7.0,11.045361017187261,11.045361017187261,11.5,25.0,35.0,40.311288741492746
401,52,611,20.36666666666683,12.041594578792296,77.10382610480494,10.0,14.035668847618199,21.02379604162864,23.021728866442675,15.0,51.03920062069938,37.013511046643494,31.0,33.0,29.0,16.0,20.0,6.0,7.0,10.0,11.180339887498949,11.5,26.0,35.0,38.3275357934736
402,52,612,20.40000000000017,12.0,78.05767098754612,9.0,14.035668847618199,22.02271554554524,24.020824298928627,16.0312195418814,51.03920062069938,37.013511046643494,31.0,32.0,29.0,14.5,20.5,5.5,6.5,10.0,11.045361017187261,11.0,26.0,35.0,39.20459156782532
403,52,613,20.4333333333335,12.0,78.10249675906654,10.04987562112089,14.035668847618199,22.02271554554524,24.020824298928627,15.033296378372908,51.0098029794274,37.0,31.0,33.0,29.0,16.0,20.0,5.0,7.0,10.0,11.045361017187261,11.0,26.0,35.0,38.3275357934736
404,52,614,20.46666666666684,12.0,79.05694150420949,9.0,14.035668847618199,22.0,24.020824298928627,15.0,50.00999900019995,36.0,30.0,31.0,28.0,14.5,20.5,5.5,5.5,11.0,11.045361017187261,11.0,27.0,34.0,38.2099463490856
405,52,615,20.50000000000017,13.0,77.05841939723393,9.0,14.035668847618199,22.02271554554524,23.021728866442675,15.0,51.0098029794274,37.0,30.5,32.0,29.0,15.5,20.5,5.5,7.5,11.0,10.04987562112089,10.0,26.0,34.0,39.20459156782532
406,52,616,20.533333333333506,12.0,78.02563681252464,9.0,14.035668847618199,23.0,24.020824298928627,15.033296378372908,50.0,36.013886210738214,30.0,31.0,29.0,15.0,20.0,5.0,6.0,10.04987562112089,10.04987562112089,10.5,27.0,34.0,40.19950248448356
407,52,617,20.56666666666684,12.0,80.02499609497022,8.0,15.0,23.0,24.020824298928627,17.029386365926403,52.009614495783374,37.013511046643494,31.0,31.0,29.0,13.0,22.0,6.0,5.0,11.0,11.045361017187261,11.0,27.0,34.0,38.2099463490856
408,52,618,20.600000000000176,13.0,79.02531240052139,9.0,14.035668847618199,23.0,25.019992006393608,16.0,52.009614495783374,38.0,31.5,31.0,29.0,14.0,22.0,7.0,6.0,10.0,11.045361017187261,11.0,27.0,33.0,40.311288741492746
409,52,619,20.63333333333351,12.0,80.00624975587844,9.0,14.0,23.0,24.020824298928627,16.0,51.0,37.0,31.0,30.0,29.0,13.5,21.5,7.5,5.5,10.04987562112089,11.045361017187261,10.5,28.0,33.0,38.05259518088089
410,52,620,20.666666666666845,13.0,80.02499609497022,8.0,15.0,23.0,24.020824298928627,16.0312195418814,52.009614495783374,37.013511046643494,30.5,30.0,28.0,13.0,23.0,8.0,5.0,5.0990195135927845,6.0,5.5,28.0,34.0,40.19950248448356
411,52,621,20.70000000000018,14.0,80.00624975587844,8.0,14.035668847618199,23.021728866442675,24.020824298928627,16.1245154965971,52.009614495783374,38.05259518088089,31.0,30.0,29.0,13.5,22.5,7.5,6.5,5.0,6.0,5.0,29.0,34.0,39.11521443121589
412,52,622,20.733333333333515,13.0,81.00617260431454,9.0,14.0,23.0,25.019992006393608,16.0312195418814,52.009614495783374,38.01315561749642,31.5,30.0,29.0,13.5,22.5,7.5,5.5,4.0,4.0,4.0,28.0,33.0,40.19950248448356
413,52,623,20.76666666666685,14.0,81.0,8.0,15.0,23.0,25.0,16.0312195418814,53.009433122794285,38.01315561749642,31.0,29.0,29.0,13.0,24.0,8.0,5.0,3.1622776601683795,4.0,3.5,28.0,32.0,40.19950248448356
414,52,624,20.800000000000185,13.038404810405298,80.00624975587844,9.0,15.033296378372908,24.0,24.020824298928627,16.0,53.0,38.01315561749642,31.5,30.0,29.0,13.5,23.5,7.5,5.5,4.123105625617661,5.0,5.0,28.0,32.0,39.05124837953327
415,52,625,20.83333333333352,14.0,81.0,9.055385138137417,14.0,24.0,24.0,16.0,53.009433122794285,39.01281840626232,32.0,30.0,30.0,14.0,23.0,7.0,6.0,6.082762530298219,7.0710678118654755,7.0,28.0,32.0,40.11234224026316
416,52,626,20.866666666666852,15.0,81.00617260431454,9.0,15.0,23.021728866442675,25.019992006393608,15.033296378372908,54.00925846556311,39.01281840626232,31.5,29.0,30.0,14.5,24.5,8.5,6.5,9.0,9.055385138137417,9.0,29.0,31.0,39.05124837953327
417,52,627,20.90000000000019,15.0,81.0,9.055385138137417,14.0,23.0,24.0,16.0,54.00925846556311,40.01249804748511,32.5,30.0,30.0,14.0,24.0,8.0,6.0,9.0,10.04987562112089,9.5,28.0,31.0,40.11234224026316
418,52,628,20.933333333333525,15.033296378372908,81.00617260431454,9.0,14.0,23.021728866442675,24.0,16.0,54.00925846556311,40.01249804748511,32.5,30.0,31.0,14.5,23.5,8.5,6.5,9.0,10.0,10.0,29.0,32.0,39.11521443121589
419,52,629,20.96666666666686,16.0,82.00609733428362,9.0,13.0,23.0,24.0,15.033296378372908,53.009433122794285,40.01249804748511,32.0,29.0,30.0,14.5,23.5,8.5,6.5,9.0,10.04987562112089,9.5,29.0,30.0,40.049968789001575
420,52,630,21.000000000000195,16.0,82.02438661763951,8.06225774829855,14.0,24.020824298928627,25.0,16.0312195418814,54.037024344425184,40.049968789001575,32.0,29.0,31.0,14.0,24.0,9.0,6.0,11.0,11.045361017187261,11.0,30.0,31.0,39.01281840626232
421,52,631,21.03333333333353,17.029386365926403,83.00602387778854,8.0,14.0,23.021728866442675,25.0,16.0312195418814,55.036351623268054,41.048751503547585,32.5,29.0,30.0,13.5,25.5,9.5,5.5,9.0,9.055385138137417,9.0,29.0,30.0,39.01281840626232
422,52,632,21.066666666666865,17.0,81.05553651663777,9.0,14.035668847618199,23.021728866442675,24.0,15.132745950421556,55.08175741568164,41.048751503547585,32.5,29.0,32.0,15.5,24.5,9.5,6.5,10.04987562112089,11.045361017187261,10.5,29.0,30.0,40.049968789001575
423,52,633,21.1000000000002,17.0,81.02468759581859,8.0,14.035668847618199,23.021728866442675,25.0,16.0312195418814,55.036351623268054,41.012193308819754,32.5,29.0,31.0,14.0,25.0,9.0,6.0,9.0,10.0,9.5,31.0,30.0,38.01315561749642
424,52,634,21.133333333333532,17.0,82.05485969764375,8.0,14.035668847618199,23.021728866442675,24.0,16.0312195418814,55.036351623268054,41.012193308819754,32.5,29.0,32.0,14.5,24.5,9.5,6.5,10.04987562112089,10.04987562112089,10.0,31.0,30.0,38.01315561749642
425,52,635,21.16666666666687,18.0,81.09870529176159,9.055385138137417,14.035668847618199,23.08679276123039,24.020824298928627,15.132745950421556,56.142675390472796,42.1070065428546,33.0,28.0,32.0,15.0,26.0,10.0,6.0,11.045361017187261,12.041594578792296,12.0,31.0,30.0,38.0
426,52,636,21.200000000000205,18.027756377319946,83.09632964216891,9.055385138137417,14.0,23.08679276123039,25.019992006393608,15.132745950421556,56.142675390472796,42.190046219457976,33.0,27.0,31.0,14.0,27.0,11.0,5.0,10.04987562112089,11.045361017187261,11.0,31.0,30.0,39.01281840626232
427,52,637,21.23333333333354,19.026297590440446,80.15609770940699,8.0,14.035668847618199,23.08679276123039,24.08318915758459,15.297058540778355,56.22277118748239,42.190046219457976,32.5,28.0,33.0,15.5,25.5,9.5,7.5,10.04987562112089,12.0,12.0,31.0,30.0,38.0
428,52,638,21.266666666666875,19.0,83.09632964216891,9.055385138137417,14.035668847618199,24.08318915758459,26.019223662515376,15.132745950421556,57.14017850864661,43.104524124504614,33.5,29.0,33.0,16.0,26.0,10.0,7.0,10.04987562112089,12.0,11.5,31.0,30.0,38.01315561749642
429,52,639,21.30000000000021,20.024984394500787,82.15229759416349,8.06225774829855,14.035668847618199,23.08679276123039,24.020824298928627,15.132745950421556,57.21887800367987,43.18564576337837,33.0,28.0,33.0,15.5,26.5,10.5,7.5,10.04987562112089,12.0,12.0,31.0,30.0,39.01281840626232
430,52,640,21.333333333333545,20.09975124224178,83.21658488546619,8.0,14.0,23.194827009486403,25.019992006393608,14.317821063276353,56.22277118748239,42.2965719651132,32.0,27.0,33.0,16.0,26.0,10.0,7.0,11.045361017187261,12.0,12.0,32.0,31.0,38.0
431,52,641,21.36666666666688,20.024984394500787,83.21658488546619,7.0,14.035668847618199,22.090722034374522,24.08318915758459,14.317821063276353,55.226805085936306,41.19465984809196,31.0,25.0,31.0,14.0,27.0,11.0,6.0,10.04987562112089,12.0,12.0,33.0,33.0,38.01315561749642
432,52,642,21.40000000000021,19.1049731745428,83.2946576918352,8.06225774829855,14.035668847618199,23.08679276123039,24.08318915758459,15.297058540778355,56.43580423808985,42.42640687119285,32.5,27.0,34.0,15.5,25.5,9.5,7.5,10.0,12.0,11.5,33.0,31.0,37.0
433,52,643,21.43333333333355,19.1049731745428,84.29116205154607,7.0710678118654755,15.033296378372908,23.08679276123039,25.079872407968907,15.297058540778355,56.43580423808985,41.43669871020132,31.5,26.0,33.0,14.5,26.5,9.5,6.5,10.0,11.0,11.5,33.0,31.0,38.0
434,52,644,21.466666666666885,19.1049731745428,84.29116205154607,7.0,13.038404810405298,22.20360331117452,24.08318915758459,15.524174696260024,54.45181356024793,41.43669871020132,31.5,25.0,32.0,13.5,25.5,9.5,5.5,10.04987562112089,11.0,11.0,34.0,32.0,37.0
435,52,645,21.50000000000022,17.11724276862369,82.29823813423954,7.0,13.038404810405298,22.20360331117452,24.08318915758459,15.524174696260024,52.46903848937962,39.45883931389772,30.5,25.0,32.0,13.5,23.5,7.5,5.5,11.0,11.045361017187261,11.5,34.0,31.0,37.0
436,52,646,21.533333333333555,16.1245154965971,82.38931969618392,8.06225774829855,14.035668847618199,23.194827009486403,24.186773244895647,14.560219778561036,52.61178575186362,38.63935817272331,30.0,25.0,33.0,15.0,23.0,7.0,6.0,11.045361017187261,12.0,12.0,35.0,32.0,39.01281840626232
437,52,647,21.56666666666689,18.110770276274835,84.38009243891595,7.0710678118654755,13.038404810405298,21.213203435596427,23.08679276123039,15.132745950421556,53.33854141237835,40.311288741492746,31.0,25.0,33.0,14.0,24.0,9.0,7.0,9.055385138137417,10.0,10.0,33.0,29.0,36.013886210738214
438,52,648,21.600000000000225,19.1049731745428,84.29116205154607,6.082762530298219,13.038404810405298,21.213203435596427,23.08679276123039,15.297058540778355,53.46026561849464,40.44749683231337,30.5,25.0,32.0,13.5,24.5,9.5,6.5,9.055385138137417,10.0,10.0,33.0,30.0,37.0
439,52,649,21.63333333333356,21.095023109728988,85.37564055396598,8.06225774829855,14.142135623730951,23.194827009486403,24.08318915758459,14.317821063276353,57.55866572463264,43.41658669218482,32.5,26.0,34.0,16.0,27.0,11.0,7.0,10.04987562112089,12.0,12.0,36.0,32.0,38.01315561749642
440,52,650,21.66666666666689,19.1049731745428,82.60750571225353,8.0,14.035668847618199,21.213203435596427,23.194827009486403,15.524174696260024,56.43580423808985,42.42640687119285,32.5,25.0,35.0,15.0,26.0,10.0,6.0,10.04987562112089,12.041594578792296,12.0,36.0,30.0,37.05401462729781
441,52,651,21.70000000000023,14.035668847618199,80.62257748298549,8.06225774829855,14.142135623730951,20.223748416156685,22.20360331117452,16.278820596099706,52.46903848937962,38.3275357934736,31.0,26.0,36.0,15.0,21.0,5.0,6.0,5.0,6.082762530298219,6.5,37.0,29.0,35.22782990761707
442,52,652,21.733333333333565,8.06225774829855,77.64663547121665,9.055385138137417,15.132745950421556,21.213203435596427,22.20360331117452,16.1245154965971,48.373546489791295,33.24154027718932,29.0,25.0,35.0,14.0,18.0,1.0,3.0,1.0,2.23606797749979,1.5,38.0,29.0,33.24154027718932
443,52,653,21.7666666666669,8.06225774829855,77.64663547121665,9.055385138137417,15.132745950421556,21.213203435596427,22.20360331117452,16.1245154965971,48.373546489791295,33.24154027718932,29.0,25.0,35.0,14.0,18.0,1.0,3.0,1.0,2.23606797749979,1.5,38.0,29.0,33.24154027718932
444,52,654,21.800000000000235,3.1622776601683795,79.30952023559341,11.045361017187261,15.132745950421556,20.09975124224178,21.095023109728988,16.492422502470642,45.70557952810576,30.59411708155671,28.5,26.0,33.0,13.5,15.5,1.5,1.5,11.045361017187261,12.0,11.5,34.0,32.0,36.0
445,52,655,21.83333333333357,2.8284271247461903,77.64663547121665,11.045361017187261,15.033296378372908,19.1049731745428,21.213203435596427,16.278820596099706,44.553338819890925,29.614185789921695,28.0,24.0,34.0,13.0,15.0,2.0,1.0,8.06225774829855,9.0,10.0,38.0,30.0,37.013511046643494
446,52,656,21.866666666666905,2.23606797749979,76.94153624668537,10.198039027185569,13.152946437965905,19.235384061671343,20.223748416156685,16.1245154965971,41.593268686170845,28.442925306655784,27.0,22.0,34.0,12.0,13.0,3.0,1.0,7.0710678118654755,8.246211251235321,8.0,38.0,27.0,36.22154055254967
447,52,657,21.90000000000024,1.0,76.6550715869472,11.045361017187261,14.142135623730951,20.223748416156685,21.213203435596427,16.492422502470642,41.773197148410844,27.65863337187866,27.0,25.0,35.0,14.0,11.0,5.0,2.0,8.06225774829855,9.055385138137417,9.0,39.0,29.0,37.12142238654117
