,frame_seq,m1,m3,m4,m5,m6,m7,m8,m9,m10,m11,m12,m13,m14,m15,m16,m17,e1,e2,e3,b1,b2,b3,label_measures
0,0,1.0,106.30145812734648,12.041594578792296,14.0356688476182,27.073972741361768,28.0713376952364,18.027756377319943,43.10452412450461,29.068883707497267,29.5,19.0,27.0,5.0,20.0,4.0,7.0,10.198039027185567,10.04987562112089,10.5,41.0,30.0,46.17358552246078,{}
1,1,1.0,102.39628899525609,12.041594578792296,15.132745950421556,26.1725046566048,28.0713376952364,17.11724276862369,43.28972164382672,28.16025568065745,28.5,19.0,28.0,6.5,19.5,2.5,5.5,9.219544457292889,10.04987562112089,10.0,43.0,30.0,44.28317965096906,{}
2,2,1.4142135623730951,103.39245620450264,11.04536101718726,14.0356688476182,26.0768096208106,28.0713376952364,18.027756377319943,42.190046219457976,28.16025568065745,28.5,18.0,27.0,4.5,19.5,3.5,6.5,10.198039027185567,10.04987562112089,10.0,41.0,29.0,43.10452412450461,{}
3,3,0.0,102.39628899525609,10.04987562112089,14.142135623730953,25.179356624028344,27.16615541441225,18.110770276274835,42.2965719651132,28.16025568065745,28.0,18.0,27.0,4.5,19.5,2.5,6.5,9.219544457292889,9.219544457292889,9.0,41.0,29.0,46.2709412050371,{}
4,4,1.0,101.49384217774002,11.0,14.142135623730953,25.179356624028344,27.16615541441225,17.11724276862369,42.2965719651132,28.16025568065745,28.0,17.0,27.0,5.0,20.0,4.0,6.0,8.246211251235321,10.198039027185567,9.5,42.0,29.0,46.2709412050371,{}
5,5,1.4142135623730951,101.40019723846694,11.0,14.142135623730953,25.179356624028344,27.073972741361768,17.11724276862369,41.30375285612676,27.16615541441225,27.5,17.0,26.0,4.5,19.5,3.5,6.5,9.486832980505138,9.055385138137416,9.5,42.0,29.0,46.2709412050371,{}
6,6,3.1622776601683795,102.39628899525609,11.04536101718726,15.033296378372908,25.179356624028344,26.0768096208106,18.110770276274835,41.30375285612676,26.30589287593181,27.5,17.0,26.0,3.5,19.5,3.5,7.5,10.198039027185567,9.055385138137416,9.0,41.0,30.0,45.27692569068709,{}
7,7,1.0,100.31948963187564,10.0,14.0356688476182,25.079872407968907,26.0768096208106,17.029386365926403,41.10960958218893,27.073972741361768,27.0,17.0,25.0,4.0,20.0,4.0,7.0,9.219544457292889,10.04987562112089,10.0,42.0,30.0,43.18564576337837,"{'neutral': (['m1', 'm3', 'm12', 'e1', 'e2'], None, 22)}"
8,8,0.0,100.31948963187564,10.04987562112089,13.038404810405298,25.079872407968907,26.0768096208106,18.027756377319943,41.10960958218893,28.0713376952364,28.0,18.0,26.0,4.0,19.0,4.0,6.0,9.219544457292889,9.0,9.0,41.0,29.0,42.190046219457976,"{'neutral': (['m1', 'm3', 'm12', 'e1', 'e2'], None, 22)}"
9,9,1.4142135623730951,100.31948963187564,10.0,13.038404810405298,25.079872407968907,26.0768096208106,18.110770276274835,40.19950248448356,27.16615541441225,27.5,18.0,26.0,4.0,18.0,4.0,6.0,10.198039027185567,9.055385138137416,9.0,40.0,29.0,44.181444068749045,"{'neutral': (['m1', 'm3', 'm12', 'e1', 'e2'], None, 22)}"
10,10,2.23606797749979,101.24228365658294,10.0,13.038404810405298,25.079872407968907,26.0768096208106,18.027756377319943,39.11521443121589,26.0768096208106,27.0,18.0,25.0,3.5,17.5,3.5,6.5,10.04987562112089,9.055385138137416,9.0,40.0,29.0,43.28972164382672,"{'neutral': (['m1', 'm3', 'm12', 'e1', 'e2'], None, 22)}"
11,11,0.0,100.24470060806208,9.055385138137416,13.038404810405298,24.020824298928627,25.079872407968907,18.027756377319943,40.11234224026316,27.073972741361768,27.0,18.0,25.0,3.5,18.5,3.5,5.5,9.219544457292889,9.055385138137416,9.0,39.0,29.0,42.190046219457976,"{'neutral': (['m1', 'm3', 'm12', 'e1', 'e2'], None, 22)}"
12,12,1.0,100.17983829094555,10.04987562112089,14.0356688476182,24.08318915758459,26.0768096208106,18.027756377319943,41.10960958218893,27.073972741361768,27.5,19.0,25.0,4.0,19.0,4.0,6.0,9.219544457292889,9.055385138137416,9.0,40.0,30.0,42.1070065428546,"{'neutral': (['m1', 'm3', 'm12', 'e1', 'e2'], None, 22)}"
13,13,1.0,99.18165152889924,10.04987562112089,14.0356688476182,25.079872407968907,26.0768096208106,18.027756377319943,41.10960958218893,27.073972741361768,27.5,19.0,25.0,4.0,19.0,4.0,6.0,8.246211251235321,9.055385138137416,9.0,39.0,30.0,41.19465984809196,"{'neutral': (['m1', 'm3', 'm12', 'e1', 'e2'], None, 22)}"
14,14,2.0,101.31633629380802,11.04536101718726,14.0356688476182,24.020824298928627,25.079872407968907,18.027756377319943,41.10960958218893,27.073972741361768,28.0,18.0,26.0,4.0,19.0,4.0,6.0,10.198039027185567,10.04987562112089,9.5,39.0,29.0,44.181444068749045,"{'neutral': (['m1', 'm3', 'm12', 'e1', 'e2'], None, 22)}"
15,15,1.4142135623730951,99.24716620639605,10.0,13.038404810405298,24.020824298928627,25.079872407968907,18.110770276274835,40.19950248448356,27.16615541441225,27.5,18.0,25.0,3.5,18.5,4.5,6.5,9.219544457292889,10.04987562112089,10.0,40.0,30.0,43.18564576337837,"{'neutral': (['m1', 'm3', 'm12', 'e1', 'e2'], None, 22)}"
16,16,2.0,100.17983829094555,11.04536101718726,14.0356688476182,25.019992006393608,26.0768096208106,18.110770276274835,41.19465984809196,27.16615541441225,28.0,19.0,25.0,4.0,19.0,4.0,6.0,9.219544457292889,9.055385138137416,9.0,39.0,30.0,43.18564576337837,"{'neutral': (['m1', 'm3', 'm12', 'e1', 'e2'], None, 22)}"
17,17,1.4142135623730951,100.17983829094555,11.0,14.0356688476182,25.019992006393608,26.0768096208106,17.029386365926403,41.10960958218893,27.073972741361768,27.5,19.0,25.0,5.0,19.0,3.0,6.0,8.246211251235321,8.06225774829855,8.5,40.0,30.0,43.10452412450461,"{'neutral': (['m1', 'm3', 'm12', 'e1', 'e2'], None, 22)}"
18,18,1.4142135623730951,97.18538984847466,10.0,14.0356688476182,24.020824298928627,25.019992006393608,19.026297590440446,42.1070065428546,28.0713376952364,28.5,22.0,28.0,6.0,17.0,2.0,4.0,8.246211251235321,9.0,8.5,40.0,30.0,41.19465984809196,"{'neutral': (['m1', 'm3', 'm12', 'e1', 'e2'], None, 22)}"
19,19,1.0,97.18538984847466,10.04987562112089,14.0356688476182,24.08318915758459,25.019992006393608,19.0,43.10452412450461,29.068883707497267,29.0,22.0,28.0,6.0,18.0,2.0,4.0,9.219544457292889,9.0,9.0,40.0,31.0,44.181444068749045,"{'neutral': (['m1', 'm3', 'm12', 'e1', 'e2'], None, 22)}"
20,20,0.0,96.1873172512884,10.04987562112089,15.033296378372908,24.020824298928627,25.019992006393608,19.0,44.04543109109048,29.017236257093817,29.0,23.0,29.0,7.0,18.0,2.0,3.0,9.055385138137416,8.06225774829855,8.5,39.0,30.0,45.09988913511872,"{'neutral': (['m1', 'm3', 'm12', 'e1', 'e2'], None, 22)}"
21,21,1.0,95.0473566176356,10.04987562112089,15.033296378372908,23.08679276123039,24.08318915758459,19.0,45.044422518220834,30.01666203960727,29.5,26.0,29.0,8.5,17.5,1.5,1.5,8.06225774829855,9.0,9.0,37.0,32.0,44.01136216933077,"{'neutral': (['m1', 'm3', 'm12', 'e1', 'e2'], None, 22)}"
22,22,0.0,92.02173656261871,10.0,15.0,22.02271554554524,24.020824298928627,19.026297590440446,44.01136216933077,29.017236257093817,29.0,27.0,29.0,9.0,16.0,1.0,1.0,10.04987562112089,9.0,9.0,39.0,34.0,43.01162633521314,"{'neutral': (['m1', 'm3', 'm12', 'e1', 'e2'], None, 22)}"
23,23,1.0,93.00537618869136,11.0,15.0,23.021728866442675,24.020824298928627,20.024984394500787,47.01063709417264,32.01562118716424,31.5,30.0,31.0,10.5,16.5,0.5,0.5,8.06225774829855,8.0,8.5,36.0,35.0,43.01162633521314,"{'neutral': (['m1', 'm3', 'm12', 'e1', 'e2'], None, 22)}"
24,24,0.0,93.00537618869136,12.0,16.0,23.0,25.0,19.026297590440446,47.01063709417264,31.016124838541646,31.0,30.0,31.0,11.5,16.5,0.5,0.5,8.06225774829855,8.06225774829855,8.5,36.0,36.0,41.0,"{'neutral': (['m1', 'm3', 'm12', 'e1', 'e2'], None, 22)}"
25,25,1.0,93.00537618869136,12.0,17.029386365926403,24.020824298928627,25.019992006393608,20.0,50.00999900019995,33.0,32.5,33.0,32.0,12.5,17.5,0.5,0.5,8.06225774829855,9.0,9.0,37.0,38.0,41.0,"{'neutral': (['m1', 'm3', 'm12', 'e1', 'e2'], None, 22)}"
26,26,2.0,90.00555538409837,12.0,17.0,24.020824298928627,25.0,20.024984394500787,51.0098029794274,34.0147027033899,33.0,35.0,34.0,14.5,16.5,0.5,2.5,9.055385138137416,9.0,8.5,35.0,38.0,43.04648650006177,"{'neutral': (['m1', 'm3', 'm12', 'e1', 'e2'], None, 22)}"
27,27,1.0,94.0850678907126,13.038404810405298,19.026297590440446,24.0,25.019992006393608,21.0,54.037024344425184,35.0142828000232,34.5,37.0,33.0,14.0,19.0,0.0,1.0,7.0,7.0,7.5,35.0,41.0,45.044422518220834,"{'neutral': (['m1', 'm3', 'm12', 'e1', 'e2'], None, 22)}"
28,28,3.0,93.26306878931231,12.041594578792296,18.110770276274835,23.08679276123039,26.1725046566048,22.09072203437452,55.22680508593631,37.12142238654117,35.5,39.0,32.0,13.5,19.5,2.5,2.5,5.385164807134504,5.0,4.5,36.0,43.0,48.04164859785725,"{'neutral': (['m1', 'm3', 'm12', 'e1', 'e2'], None, 22)}"
29,29,5.0990195135927845,95.33624704172072,12.0,18.110770276274835,25.079872407968907,27.073972741361768,23.194827009486403,58.30951894845301,40.19950248448356,37.5,41.0,33.0,14.0,21.0,3.0,3.0,4.123105625617661,4.0,3.5,35.0,43.0,50.08991914547278,"{'neutral': (['m1', 'm3', 'm12', 'e1', 'e2'], None, 22)}"
30,30,4.123105625617661,93.34345183246651,14.0,18.027756377319943,24.08318915758459,26.0768096208106,22.20360331117452,58.215118311311535,40.19950248448356,38.0,42.0,34.0,16.0,20.0,2.0,4.0,5.385164807134504,4.0,4.0,34.0,45.0,49.09175083453431,"{'neutral': (['m1', 'm3', 'm12', 'e1', 'e2'], None, 22)}"
31,31,2.8284271247461903,94.4298681562142,14.0,19.026297590440446,24.08318915758459,26.1725046566048,23.08679276123039,58.215118311311535,39.20459156782532,38.0,44.0,35.0,16.5,18.5,0.5,4.5,4.123105625617661,5.0,5.0,33.0,44.0,50.15974481593781,"{'neutral': (['m1', 'm3', 'm12', 'e1', 'e2'], None, 22)}"
32,32,4.47213595499958,97.51410154434076,13.038404810405298,19.026297590440446,25.079872407968907,27.073972741361768,24.08318915758459,60.29925372672534,41.30375285612676,39.0,46.0,36.0,17.0,19.0,0.0,6.0,7.071067811865476,7.071067811865476,7.0,32.0,45.0,52.15361924162119,"{'neutral': (['m1', 'm3', 'm12', 'e1', 'e2'], None, 22)}"
33,33,4.47213595499958,99.40824915468536,14.0356688476182,19.1049731745428,25.019992006393608,27.16615541441225,22.20360331117452,59.53990258641679,40.44749683231337,38.0,46.0,37.0,19.5,17.5,1.5,6.5,7.071067811865476,8.06225774829855,8.0,31.0,46.0,52.23983154643591,"{'neutral': (['m1', 'm3', 'm12', 'e1', 'e2'], None, 22)}"
34,34,4.47213595499958,102.48902380255166,14.0356688476182,19.1049731745428,26.019223662515376,27.16615541441225,22.09072203437452,59.4138031100518,40.311288741492746,38.0,45.0,35.0,18.0,19.0,1.0,5.0,7.280109889280518,7.071067811865476,7.0,32.0,46.0,53.23532661682466,"{'neutral': (['m1', 'm3', 'm12', 'e1', 'e2'], None, 22)}"
35,35,2.8284271247461903,101.40019723846694,15.033296378372908,20.09975124224178,27.073972741361768,28.16025568065745,24.08318915758459,61.40032573203501,41.30375285612676,40.0,48.0,39.0,19.5,17.5,1.5,6.5,7.071067811865476,8.246211251235321,8.0,31.0,46.0,52.3450093132096,"{'neutral': (['m1', 'm3', 'm12', 'e1', 'e2'], None, 22)}"
36,36,4.47213595499958,98.73196037757988,15.033296378372908,21.095023109728988,24.186773244895647,27.29468812791236,23.08679276123039,63.38769596696192,42.2965719651132,40.0,50.0,38.0,21.0,19.0,1.0,8.0,9.055385138137416,10.04987562112089,9.5,31.0,47.0,52.3450093132096,"{'neutral': (['m1', 'm3', 'm12', 'e1', 'e2'], None, 22)}"
37,37,7.615773105863909,100.71742649611338,15.033296378372908,21.095023109728988,27.16615541441225,29.154759474226505,23.08679276123039,66.48308055437865,45.39823785126467,41.5,50.0,38.0,21.0,22.0,1.0,8.0,8.06225774829855,9.055385138137416,9.0,32.0,47.0,55.14526271584895,{}
38,38,8.06225774829855,100.60318086422517,15.033296378372908,21.095023109728988,27.073972741361768,29.154759474226505,22.09072203437452,66.27216610312357,45.17742799230607,41.0,50.0,39.0,22.5,21.5,1.5,9.5,8.06225774829855,10.198039027185567,9.5,31.0,48.0,52.3450093132096,{}
39,39,10.04987562112089,101.59724405711012,15.033296378372908,21.095023109728988,27.16615541441225,29.154759474226505,22.09072203437452,68.26419266350405,47.16990566028302,42.0,51.0,40.0,23.5,22.5,2.5,9.5,9.055385138137416,10.198039027185567,10.0,33.0,48.0,54.230987451824994,{}
40,40,8.06225774829855,99.503768772846,14.0356688476182,20.09975124224178,26.1725046566048,28.16025568065745,23.08679276123039,65.27633568147036,45.17742799230607,41.0,49.0,39.0,21.0,21.0,2.0,9.0,9.0,10.04987562112089,10.0,32.0,47.0,54.230987451824994,{}
41,41,7.280109889280518,100.4987562112089,14.0,21.095023109728988,27.073972741361768,29.154759474226505,23.021728866442675,65.19202405202648,44.10215414239989,40.5,49.0,39.0,21.0,21.0,1.0,8.0,10.04987562112089,11.180339887498947,11.0,35.0,49.0,53.23532661682466,{}
42,42,9.219544457292889,100.4987562112089,14.0356688476182,20.09975124224178,27.073972741361768,28.16025568065745,23.021728866442675,66.27216610312357,46.17358552246078,41.5,49.0,39.0,21.0,22.0,2.0,8.0,10.04987562112089,11.180339887498947,10.5,35.0,49.0,51.24451190127583,{}
43,43,8.06225774829855,102.48902380255166,14.0356688476182,21.095023109728988,27.073972741361768,29.068883707497267,23.021728866442675,66.18912297349165,45.09988913511872,41.0,49.0,39.0,21.0,22.0,2.0,8.0,11.04536101718726,11.180339887498947,11.0,38.0,49.0,49.36598018878993,{}
44,44,7.280109889280518,101.49384217774002,16.0312195418814,21.095023109728988,27.16615541441225,29.154759474226505,22.0,66.18912297349165,45.09988913511872,41.5,50.0,40.0,23.0,21.0,1.0,9.0,10.04987562112089,10.04987562112089,10.5,36.0,48.0,51.35172830587107,{}
45,45,5.0990195135927845,100.31948963187564,14.0356688476182,20.09975124224178,26.0768096208106,28.0713376952364,23.021728866442675,62.20128616033595,42.1070065428546,39.5,48.0,40.0,21.0,18.0,1.0,8.0,9.055385138137416,10.04987562112089,10.0,37.0,49.0,48.25971404805462,{}
46,46,2.23606797749979,101.31633629380802,15.033296378372908,20.09975124224178,27.018512172212592,28.16025568065745,24.020824298928627,61.20457499239743,41.10960958218893,40.0,47.0,39.0,19.0,18.0,2.0,5.0,10.0,11.04536101718726,11.0,36.0,49.0,49.36598018878993,{}
47,47,1.4142135623730951,101.17806086301516,16.0312195418814,20.09975124224178,26.019223662515376,28.0713376952364,24.0,59.13543776789008,39.05124837953327,39.5,46.0,40.0,19.0,16.0,4.0,4.0,11.0,11.04536101718726,11.0,39.0,49.0,48.16637831516918,{}
48,48,0.0,101.1236866416568,15.033296378372908,19.1049731745428,27.018512172212592,28.0713376952364,24.020824298928627,58.137767414994535,39.05124837953327,39.0,45.0,40.0,18.5,15.5,3.5,4.5,10.04987562112089,10.0,10.5,38.0,48.0,45.17742799230607,{}
49,49,1.0,103.1746092796091,15.0,20.024984394500787,26.019223662515376,28.0713376952364,24.020824298928627,59.07622195096772,39.05124837953327,39.0,45.0,39.0,18.0,17.0,3.0,4.0,10.04987562112089,11.04536101718726,10.5,37.0,46.0,48.16637831516918,{}
50,50,1.0,99.12618221237013,14.0356688476182,18.110770276274835,26.0,27.018512172212592,26.0,57.07889277132134,39.01281840626232,39.5,45.0,40.0,16.5,14.5,3.5,3.5,11.0,11.04536101718726,11.0,38.0,45.0,47.09564735726647,{}
51,51,2.0,98.04590761474952,15.033296378372908,19.026297590440446,26.0,28.0178514522438,25.019992006393608,57.0087712549569,38.0,39.0,44.0,41.0,17.5,14.5,4.5,3.5,11.0,11.04536101718726,11.0,39.0,45.0,51.03920062069938,{}
52,52,1.0,97.082439194738,15.033296378372908,19.026297590440446,25.0,27.018512172212592,22.0,56.08029957123981,37.05401462729781,37.0,42.0,38.0,18.0,16.0,3.0,4.0,10.0,10.04987562112089,10.0,39.0,42.0,61.00819617067857,{}
53,53,1.0,99.02019995940222,15.0,19.0,26.0,28.0,23.0,57.0087712549569,38.01315561749642,38.0,43.0,41.0,19.0,15.0,5.0,4.0,11.0,11.0,11.5,38.0,43.0,52.009614495783374,{}
54,54,2.23606797749979,100.04498987955368,15.033296378372908,20.0,27.0,28.0,23.0,56.0357029044876,36.05551275463989,37.0,43.0,40.0,18.5,14.5,5.5,4.5,11.04536101718726,11.0,11.0,40.0,43.0,54.00925846556311,{}
55,55,1.0,99.02019995940222,16.0312195418814,19.026297590440446,26.0,27.0,21.0,55.03635162326805,36.013886210738214,36.5,43.0,41.0,21.0,13.0,6.0,6.0,10.0,11.0,11.0,40.0,41.0,59.00847396772772,{}
56,56,1.4142135623730951,100.07996802557444,15.033296378372908,19.026297590440446,27.0,27.018512172212592,23.08679276123039,56.00892785976178,37.0,37.5,45.0,41.0,20.0,13.0,6.0,6.0,10.04987562112089,10.0,10.0,39.0,41.0,56.00892785976178,{}
57,57,0.0,99.08077512817508,15.033296378372908,18.027756377319943,26.0,27.018512172212592,23.021728866442675,56.00892785976178,38.0,38.0,45.0,41.0,20.0,13.0,6.0,6.0,10.04987562112089,12.0,12.0,38.0,38.0,59.033888572581766,{}
58,58,1.4142135623730951,98.02040603874276,15.0,19.026297590440446,27.0,27.0,22.0,55.03635162326805,36.013886210738214,36.5,44.0,42.0,21.0,12.0,7.0,7.0,11.04536101718726,11.04536101718726,11.0,41.0,41.0,62.03224967708329,{}
59,59,2.0,100.04498987955368,15.0,19.026297590440446,26.019223662515376,27.018512172212592,23.0,57.07889277132134,38.05259518088089,38.0,45.0,42.0,20.5,13.5,5.5,6.5,11.04536101718726,11.0,11.0,41.0,44.0,57.0,{}
60,60,1.4142135623730951,100.00499987500623,15.0,19.026297590440446,27.018512172212592,27.0,22.0,55.03635162326805,36.013886210738214,36.5,43.0,42.0,20.5,12.5,6.5,5.5,11.0,12.0,11.5,42.0,44.0,48.010415536631214,{}
61,61,0.0,100.04498987955368,15.0,19.026297590440446,26.019223662515376,28.0,21.02379604162864,55.03635162326805,36.013886210738214,36.0,43.0,40.0,20.5,13.5,6.5,5.5,9.0,10.0,9.5,40.0,44.0,49.01020301937138,{}
62,62,1.0,100.0199980003999,15.0,19.0,26.0,28.0178514522438,21.02379604162864,55.03635162326805,36.05551275463989,36.0,43.0,41.0,21.0,13.0,7.0,7.0,11.0,12.0,11.5,41.0,44.0,53.009433122794285,{}
63,63,1.0,97.02061636580136,15.0,19.026297590440446,26.0,27.0,23.021728866442675,57.0087712549569,38.0,38.0,45.0,43.0,21.0,13.0,7.0,7.0,11.04536101718726,11.0,11.0,40.0,43.0,56.0,{}
64,64,1.0,101.01980003939822,15.0,19.026297590440446,27.0,28.0,22.02271554554524,56.08029957123981,37.05401462729781,37.0,44.0,42.0,21.0,13.0,7.0,7.0,11.04536101718726,11.0,10.5,41.0,44.0,51.03920062069938,{}
65,65,1.0,99.02019995940222,15.0,20.024984394500787,26.0,27.0,21.02379604162864,56.00892785976178,36.0,36.0,43.0,41.0,21.0,14.0,7.0,7.0,11.04536101718726,11.04536101718726,11.0,39.0,43.0,57.0,{}
66,66,1.0,97.0051545022222,14.0,19.0,26.019223662515376,27.018512172212592,23.0,56.00892785976178,37.01351104664349,37.0,44.0,43.0,20.5,12.5,7.5,6.5,9.0,10.0,10.0,39.0,42.0,50.00999900019995,{}
67,67,2.0,95.00526301210895,14.0,18.0,25.0,27.0,24.020824298928627,56.00892785976178,38.01315561749642,38.0,44.0,43.0,19.5,12.5,6.5,5.5,10.0,11.0,11.0,40.0,42.0,54.0,{}
68,68,2.8284271247461903,96.02083107326244,15.0,19.0,25.0,27.0,22.02271554554524,58.00862004909271,39.01281840626232,38.0,45.0,43.0,22.0,14.0,6.0,7.0,11.04536101718726,11.0,11.0,40.0,43.0,59.00847396772772,{}
69,69,1.0,97.04638066409278,14.0,19.026297590440446,25.0,26.0,24.0,57.0350769263968,38.01315561749642,38.0,45.0,42.0,19.5,13.5,6.5,5.5,11.0,11.04536101718726,11.0,40.0,42.0,58.0,{}
70,70,1.4142135623730951,97.02061636580136,14.0,20.024984394500787,25.019992006393608,26.0,23.0,58.034472514187634,38.01315561749642,37.5,43.0,41.0,19.0,16.0,5.0,5.0,10.04987562112089,11.0,11.0,40.0,41.0,56.00892785976178,{}
71,71,2.23606797749979,99.12618221237013,14.0,19.026297590440446,26.0,28.0,23.021728866442675,58.00862004909271,39.0,38.0,43.0,38.0,17.5,17.5,1.5,4.5,3.1622776601683795,3.1622776601683795,3.0,36.0,44.0,49.09175083453431,{}
72,72,3.1622776601683795,101.17806086301516,13.0,19.026297590440446,27.018512172212592,29.068883707497267,21.02379604162864,56.08029957123981,37.05401462729781,35.5,41.0,35.0,17.0,18.0,1.0,5.0,3.1622776601683795,3.0,3.0,36.0,45.0,57.07889277132134,{}
73,73,2.23606797749979,102.39628899525609,14.0,19.1049731745428,27.018512172212592,28.0713376952364,22.02271554554524,57.14017850864661,38.05259518088089,37.0,42.0,33.0,15.5,19.5,0.5,2.5,3.605551275463989,4.0,4.0,37.0,48.0,50.15974481593781,{}
74,74,1.4142135623730951,104.6900186264192,14.0356688476182,18.110770276274835,26.0768096208106,28.16025568065745,22.02271554554524,55.22680508593631,37.12142238654117,36.5,42.0,30.0,14.0,19.0,1.0,2.0,3.605551275463989,4.0,3.5,34.0,48.0,50.15974481593781,{}
75,75,2.0,107.05606008068855,14.0356688476182,19.1049731745428,26.1725046566048,29.27456233660889,21.095023109728988,54.45181356024793,35.35533905932738,35.0,43.0,28.0,14.5,18.5,1.5,2.5,5.385164807134504,5.0990195135927845,5.0,32.0,51.0,48.373546489791295,{}
76,76,2.23606797749979,106.36728820459794,14.0356688476182,19.235384061671343,27.16615541441225,28.284271247461906,22.20360331117452,54.74486277268398,35.510561809129406,35.5,44.0,27.0,13.5,18.5,1.5,1.5,7.280109889280518,8.54400374531753,7.5,31.0,52.0,49.64876634922564,{}
77,77,2.0,105.54619841567008,14.0356688476182,20.223748416156685,26.30589287593181,28.284271247461906,21.587033144922906,56.08921464952064,35.90264614203248,35.0,45.0,27.0,15.0,19.0,1.0,3.0,9.219544457292889,9.486832980505138,9.0,28.0,51.0,49.8196748283246,{}
78,78,2.23606797749979,108.67382389517726,15.132745950421556,19.4164878389476,27.29468812791236,28.442925306655784,20.223748416156685,54.12947441089743,34.713109915419565,34.5,45.0,26.0,15.5,17.5,0.5,3.5,9.219544457292889,9.486832980505138,9.0,28.0,52.0,49.64876634922564,{}
79,79,2.8284271247461903,107.68936809174804,15.132745950421556,19.4164878389476,28.284271247461906,29.42787793912432,21.37755832643195,54.3415126767741,34.92849839314596,35.0,46.0,27.0,15.5,16.5,1.5,3.5,8.246211251235321,10.44030650891055,9.5,29.0,53.0,47.8539444560216,{}
80,80,2.0,107.8702924812944,14.142135623730953,18.43908891458577,27.29468812791236,28.284271247461906,20.39607805437113,53.36665625650534,34.92849839314596,34.0,46.0,26.0,16.0,16.0,0.0,4.0,8.246211251235321,9.219544457292889,8.5,26.0,51.0,52.773099207835045,{}
81,81,3.1622776601683795,108.67382389517726,14.0356688476182,19.235384061671343,26.30589287593181,28.284271247461906,20.39607805437113,55.10898293381942,35.90264614203248,34.5,46.0,27.0,16.5,17.5,0.5,4.5,8.246211251235321,9.486832980505138,9.0,28.0,51.0,50.635955604688654,{}
82,82,2.23606797749979,106.70520137275408,13.152946437965904,17.46424919657298,27.29468812791236,28.284271247461906,22.20360331117452,54.12947441089743,36.6742416417845,35.5,47.0,28.0,15.5,15.5,0.5,5.5,9.219544457292889,9.486832980505138,9.0,26.0,50.0,50.635955604688654,{}
83,83,5.385164807134504,106.21205204683694,13.038404810405298,18.43908891458577,28.284271247461906,29.27456233660889,21.213203435596427,57.87054518492115,39.45883931389772,36.5,47.0,31.0,18.0,18.0,1.0,7.0,8.246211251235321,9.486832980505138,9.0,28.0,51.0,49.64876634922564,{}
84,84,11.180339887498947,106.53168542738824,13.152946437965904,20.223748416156685,27.29468812791236,29.42787793912432,20.09975124224178,64.6297145282261,44.40720662234904,38.5,49.0,31.0,20.0,24.0,6.0,9.0,9.219544457292889,10.44030650891055,9.5,29.0,52.0,50.635955604688654,{}
85,85,22.09072203437452,107.5174404457249,14.142135623730953,20.39607805437113,28.284271247461906,31.25699921617557,18.110770276274835,74.67261881037788,54.3323108288245,43.0,50.0,32.0,23.0,33.0,14.0,11.0,8.246211251235321,10.44030650891055,9.5,28.0,52.0,50.635955604688654,{}
86,86,29.068883707497267,109.17875251164944,14.142135623730953,22.20360331117452,29.27456233660889,32.2490309931942,17.11724276862369,82.49242389456137,60.29925372672534,45.5,48.0,32.0,23.0,42.0,21.0,11.0,9.219544457292889,10.198039027185567,9.5,30.0,51.0,57.3149195236284,{}
87,87,34.132096331752024,113.28283188550682,13.038404810405298,21.213203435596427,30.14962686336267,34.23448553724738,14.317821063276352,82.60750571225353,61.40032573203501,44.0,44.0,27.0,21.5,46.5,27.5,10.5,7.280109889280518,9.486832980505138,8.5,30.0,52.0,51.62363799656123,{}
88,88,41.04875150354759,110.8873302050329,11.04536101718726,20.09975124224178,31.14482300479488,34.058772731852805,19.1049731745428,91.26883367283708,71.17583859709698,50.5,48.0,34.0,22.0,50.0,30.0,14.0,8.06225774829855,9.486832980505138,9.0,28.0,48.0,52.61178575186362,{}
89,89,41.01219330881976,113.7453295744489,11.04536101718726,21.095023109728988,33.06055050963308,36.05551275463989,11.04536101718726,84.1486779456457,63.07138812488592,42.5,37.0,24.0,19.5,53.5,32.5,11.5,7.280109889280518,7.071067811865476,7.5,28.0,40.0,66.06814663663572,{}
90,90,49.01020301937138,117.34564329364768,10.04987562112089,20.09975124224178,34.058772731852805,38.11823710509184,9.055385138137416,88.14193099768123,68.06614430096654,43.5,32.0,23.0,18.5,60.5,39.5,11.5,7.0,7.071067811865476,7.0,28.0,38.0,63.07138812488592,{}
91,91,47.042533945356304,113.07077429645558,9.055385138137416,19.026297590440446,33.015148038438355,38.0,15.0,90.08884503644168,71.06335201775947,47.5,34.0,30.0,17.0,58.0,38.0,10.0,8.0,9.055385138137416,9.5,34.0,43.0,63.07138812488592,{}
92,92,49.01020301937138,117.27318534089538,11.04536101718726,20.024984394500787,35.0142828000232,38.01315561749642,12.041594578792296,92.0869154657707,72.06247289678588,47.5,35.0,27.0,19.0,61.0,40.0,10.0,8.0,9.0,9.0,32.0,45.0,60.13318551349163,{}
93,93,46.01086828130936,108.07404868885035,9.055385138137416,19.1049731745428,32.01562118716424,36.013886210738214,16.0312195418814,90.0499861188218,71.00704190430693,48.0,36.0,32.0,18.0,56.0,36.0,11.0,7.0,8.06225774829855,8.5,36.0,48.0,61.07372593840988,{}
94,94,40.049968789001575,110.2905254316979,8.06225774829855,20.09975124224178,32.0624390837628,36.12478373637688,16.0,84.1486779456457,64.07027391856539,44.0,34.0,26.0,14.0,54.0,33.0,8.0,7.071067811865476,8.06225774829855,8.5,35.0,51.0,55.22680508593631,{}
95,95,44.01136216933077,108.29589096544709,8.06225774829855,19.1049731745428,34.058772731852805,37.0,16.0312195418814,87.14355971613737,68.06614430096654,46.0,37.0,29.0,17.0,54.0,34.0,11.0,8.06225774829855,8.06225774829855,8.5,32.0,51.0,59.21148537234985,{}
96,96,48.04164859785725,112.0089282155668,11.180339887498947,20.223748416156685,33.13608305156178,37.12142238654117,14.142135623730953,93.43446901438462,73.24616030891995,49.0,43.0,28.0,21.5,57.5,36.5,13.5,8.246211251235321,9.219544457292889,9.0,25.0,53.0,59.033888572581766,{}
97,97,44.01136216933077,108.04628637764463,8.246211251235321,19.4164878389476,33.24154027718932,37.21558813185679,13.152946437965904,84.48076704197234,65.19202405202648,43.0,36.0,21.0,15.5,55.5,35.5,11.5,8.246211251235321,9.219544457292889,9.0,19.0,44.0,59.53990258641679,{}
98,98,46.04345773288535,111.4629983447422,10.44030650891055,19.4164878389476,33.37663853655727,37.21558813185679,15.297058540778355,90.79647570252934,71.449282711585,48.0,41.0,23.0,17.0,58.0,39.0,11.0,7.280109889280518,8.54400374531753,8.5,21.0,56.0,55.90169943749474,{}
99,99,45.17742799230607,107.48953437428224,10.198039027185567,18.68154169226941,29.61418578992169,33.54101966249684,22.80350850198276,96.5090669315583,77.92945527847606,54.5,53.0,30.0,19.5,53.5,36.5,14.5,8.54400374531753,9.486832980505138,9.5,20.0,60.0,50.69516742254631,{}
100,100,56.32051136131489,109.38464243210744,11.40175425099138,21.587033144922906,29.8328677803526,34.52535300326414,17.08800749063506,105.9056183589898,84.34453153583817,55.0,56.0,29.0,26.5,61.5,41.5,20.5,8.94427190999916,8.94427190999916,8.5,19.0,61.0,47.43416490252569,{}
101,101,55.22680508593631,110.86027241532469,10.44030650891055,18.027756377319943,29.120439557122072,33.734255586866,17.08800749063506,100.0199980003999,82.20097323024831,53.5,56.0,27.0,25.5,56.5,40.5,20.5,9.848857801796104,10.295630140987,9.0,17.0,63.0,45.5411901469428,{}
102,102,52.23983154643591,111.40017953306898,10.44030650891055,19.313207915827967,31.04834939252005,35.6931365951495,18.384776310850235,99.46356116689168,80.4114419718985,53.0,57.0,26.0,24.5,55.5,39.5,19.5,9.848857801796104,10.295630140987,9.5,16.0,65.0,46.8187996428785,{}
103,103,56.43580423808985,113.22543883774529,9.848857801796104,18.027756377319943,30.364452901377952,34.92849839314596,17.88854381999832,101.13851887386922,83.19855767980596,53.0,56.0,22.0,23.0,59.0,44.0,20.0,8.06225774829855,10.295630140987,9.0,14.0,65.0,48.46648326421054,{}
104,104,54.45181356024793,115.7410903698423,10.770329614269007,18.384776310850235,32.28002478313795,36.1386219991853,16.64331697709324,98.76234100101112,80.52328855678958,51.0,56.0,20.0,24.0,57.0,42.0,19.0,8.94427190999916,10.770329614269007,10.0,16.0,67.0,45.31004303683677,{}
105,105,51.35172830587107,115.43396380615197,10.44030650891055,20.248456731316587,31.6227766016838,35.17101079013795,18.788294228055936,99.92497185388645,79.83107164506812,52.5,59.0,21.0,23.0,57.0,42.0,19.0,9.433981132056603,10.295630140987,8.5,13.0,63.0,59.20304046246274,{}
106,106,50.35871324805669,115.43396380615197,9.848857801796104,20.615528128088304,31.32091952673165,35.17101079013795,18.35755975068582,97.8008179924892,77.3692445355388,50.0,57.0,19.0,22.0,56.0,39.0,18.0,7.810249675906654,8.94427190999916,8.5,13.0,66.0,50.32891812864648,{}
107,107,48.373546489791295,116.05602095539896,9.848857801796104,20.615528128088304,31.32091952673165,35.17101079013795,17.4928556845359,94.92101980067427,74.46475676452586,48.0,54.0,17.0,20.5,55.5,39.5,16.5,8.06225774829855,11.180339887498947,9.5,12.0,65.0,48.46648326421054,{}
108,108,47.51841748206689,114.49017425089367,10.770329614269007,18.384776310850235,30.675723300355934,34.20526275297414,17.4928556845359,93.00537618869136,74.72616676907762,48.5,54.0,16.0,20.0,54.0,39.0,16.0,9.848857801796104,11.180339887498947,10.0,13.0,63.0,49.9799959983992,{}
109,109,36.345563690772494,114.16216536138408,10.770329614269007,18.97366596101028,29.410882339705484,33.24154027718932,17.88854381999832,83.24061508662703,64.28841264178172,44.0,53.0,16.0,18.5,45.5,30.5,13.5,8.94427190999916,10.295630140987,9.0,12.0,61.0,48.104053883222775,{}
110,110,23.53720459187964,110.67971810589329,10.44030650891055,18.384776310850235,29.410882339705484,31.6227766016838,19.313207915827967,71.47027354082255,53.16013544000805,39.5,50.0,15.0,14.5,35.5,22.5,9.5,8.54400374531753,9.848857801796104,9.5,13.0,61.0,47.16990566028302,{}
111,111,13.0,109.73149046650192,10.44030650891055,16.15549442140351,29.410882339705484,30.675723300355934,20.615528128088304,60.08327554319921,43.965895873961216,36.0,48.0,13.0,10.5,26.5,14.5,5.5,8.06225774829855,9.848857801796104,8.5,13.0,61.0,46.8187996428785,{}
112,112,5.0,111.6288493177279,12.36931687685298,15.231546211727816,28.46049894151541,31.6227766016838,20.615528128088304,52.20153254455275,37.0,33.5,47.0,12.0,9.5,19.5,9.5,3.5,8.94427190999916,8.94427190999916,8.5,13.0,60.0,48.70318264754368,{}
113,113,5.0,110.3675676999362,12.36931687685298,15.231546211727816,28.46049894151541,30.675723300355934,19.6468827043885,51.26402247190519,36.05551275463989,32.5,46.0,12.0,10.0,19.0,9.0,3.0,8.54400374531753,9.848857801796104,9.0,13.0,60.0,48.70318264754368,{}
114,114,8.602325267042627,111.31936040060596,11.40175425099138,13.92838827718412,29.410882339705484,31.6227766016838,19.6468827043885,53.14132102234569,39.21734310225516,33.5,46.0,12.0,10.0,21.0,12.0,5.0,8.94427190999916,9.848857801796104,9.0,13.0,59.0,49.64876634922564,{}
115,115,13.601470508735444,111.97321108193692,11.40175425099138,14.866068747318506,29.120439557122072,30.364452901377952,17.72004514666935,57.56735185849702,42.72001872658765,34.5,46.0,13.0,12.5,25.5,15.5,6.5,8.94427190999916,8.94427190999916,8.5,14.0,58.0,49.33558553417604,{}
116,116,18.43908891458577,113.3225485064645,11.40175425099138,15.811388300841896,28.861739379323623,32.01562118716424,16.492422502470642,62.0966987850401,46.32493928760188,36.0,46.0,15.0,14.5,29.5,16.5,8.5,7.615773105863909,8.06225774829855,7.5,18.0,59.0,51.92301994298868,{}
117,117,25.317977802344327,119.81652640600127,10.44030650891055,14.866068747318506,30.80584360149873,33.95585369269929,16.492422502470642,66.94027188471824,52.172789842982326,38.5,47.0,17.0,16.0,33.0,22.0,10.0,7.615773105863909,8.94427190999916,8.0,17.0,57.0,54.12023651093924,{}
118,118,28.284271247461906,120.61923561356208,10.198039027185567,13.601470508735444,31.575306807693888,34.713109915419565,17.46424919657298,69.42621983083913,55.90169943749474,41.0,46.0,21.0,16.5,34.5,23.5,10.5,8.246211251235321,9.486832980505138,8.5,22.0,56.0,53.36665625650534,{}
119,119,28.16025568065745,124.61540835707277,11.180339887498947,14.560219778561036,33.37663853655727,35.35533905932738,16.1245154965971,69.87131027825369,55.44366510251645,41.0,45.0,25.0,19.0,34.0,21.0,11.0,7.280109889280518,8.246211251235321,8.0,24.0,51.0,50.80354318352215,{}
120,120,28.0178514522438,120.93386622447824,11.180339887498947,14.317821063276352,32.14031735997639,34.132096331752024,16.0312195418814,69.35416353759881,55.14526271584895,41.0,42.0,27.0,18.5,34.5,21.5,9.5,7.280109889280518,8.246211251235321,8.5,27.0,48.0,55.57877292636101,{}
121,121,26.019223662515376,123.3288287465668,10.04987562112089,14.142135623730953,33.015148038438355,35.05709628591621,17.029386365926403,67.1863081289633,53.08483775994799,40.0,39.0,30.0,17.5,32.5,18.5,8.5,6.082762530298219,8.06225774829855,8.0,30.0,44.0,53.33854141237835,{}
122,122,26.019223662515376,123.10158406779338,10.0,14.0,34.0,36.0,16.0,66.007575322837,52.009614495783374,39.0,36.0,31.0,17.5,32.5,18.5,8.5,6.082762530298219,7.0,6.5,30.0,40.0,53.150729063673246,{}
123,123,24.0,124.00403219250576,10.0,14.0,34.0147027033899,36.013886210738214,17.029386365926403,65.00769185258002,51.0098029794274,39.0,35.0,34.0,17.5,30.5,16.5,7.5,6.0,7.0,7.0,34.0,39.0,53.0,{}
124,124,24.020824298928627,126.01587201618692,10.0,14.0,34.0147027033899,36.013886210738214,18.0,66.007575322837,52.009614495783374,40.0,34.0,36.0,17.0,31.0,16.0,7.0,7.0,8.06225774829855,8.5,37.0,37.0,49.01020301937138,{}
125,125,24.020824298928627,125.14391715141412,10.0,14.0,33.06055050963308,36.05551275463989,17.11724276862369,65.06919393998976,51.0881590977792,39.0,31.0,37.0,17.0,31.0,15.0,7.0,6.082762530298219,7.071067811865476,7.5,41.0,37.0,48.04164859785725,{}
126,126,25.079872407968907,125.25573839150046,11.0,15.0,33.06055050963308,36.12478373637688,17.029386365926403,68.06614430096654,53.08483775994799,40.5,30.0,38.0,17.0,34.0,16.0,6.0,7.071067811865476,7.280109889280518,7.5,45.0,35.0,50.15974481593781,{}
127,127,24.020824298928627,124.57929201917948,11.04536101718726,15.132745950421556,32.14031735997639,36.22154055254967,16.1245154965971,66.27216610312357,51.15662224971465,39.0,25.0,37.0,15.0,35.0,18.0,4.0,8.246211251235321,9.219544457292889,9.0,48.0,34.0,51.0881590977792,{}
128,128,24.08318915758459,123.9112585683803,11.04536101718726,14.0356688476182,34.36568055487916,36.345563690772494,18.43908891458577,67.47592163134935,53.46026561849464,41.0,26.0,41.0,15.5,33.5,15.5,3.5,8.246211251235321,9.219544457292889,9.0,49.0,33.0,54.147945482723536,{}
129,129,25.019992006393608,126.01983970788092,10.04987562112089,15.297058540778355,33.37663853655727,36.345563690772494,17.46424919657298,67.60177512462228,52.3450093132096,39.5,23.0,39.0,14.0,36.0,18.0,3.0,8.54400374531753,9.219544457292889,9.0,50.0,32.0,51.35172830587107,{}
130,130,24.08318915758459,123.17873193047572,11.04536101718726,15.297058540778355,32.38826948140329,34.52535300326414,17.46424919657298,67.7421582177598,52.46903848937962,40.0,21.0,38.0,12.5,37.5,18.5,0.5,9.486832980505138,10.198039027185567,10.0,52.0,31.0,50.48762224545735,{}
131,131,25.079872407968907,121.49485585818029,12.16552506059644,15.297058540778355,32.55764119219941,35.510561809129406,15.524174696260024,67.89698078707183,52.61178575186362,39.5,22.0,41.0,16.5,35.5,16.5,2.5,9.486832980505138,10.04987562112089,10.0,52.0,30.0,49.49747468305833,{}
132,132,29.154759474226505,123.17873193047572,10.04987562112089,15.132745950421556,33.37663853655727,35.510561809129406,16.492422502470642,70.71067811865476,55.57877292636101,40.5,21.0,38.0,13.5,40.5,21.5,2.5,10.44030650891055,10.04987562112089,10.0,52.0,31.0,52.3450093132096,{}
133,133,30.066592756745816,121.19818480488888,10.04987562112089,15.297058540778355,32.38826948140329,34.52535300326414,17.72004514666935,72.83543093852057,57.55866572463264,42.0,23.0,40.0,14.5,40.5,21.5,3.5,9.219544457292889,11.04536101718726,10.5,51.0,30.0,49.36598018878993,{}
134,134,28.0713376952364,119.07980517283356,10.04987562112089,15.297058540778355,33.37663853655727,35.35533905932738,18.43908891458577,71.7007670809734,56.43580423808985,42.0,23.0,39.0,13.0,40.0,21.0,2.0,11.40175425099138,11.04536101718726,11.5,53.0,32.0,54.45181356024793,{}
135,135,23.194827009486403,116.2497311824849,10.04987562112089,16.278820596099706,31.400636936215164,33.37663853655727,19.6468827043885,69.05070600652827,52.773099207835045,40.5,24.0,41.0,13.5,35.5,16.5,1.5,10.198039027185567,11.180339887498947,10.5,50.0,30.0,50.35871324805669,{}
136,136,14.142135623730953,118.94956914591998,12.041594578792296,16.278820596099706,31.400636936215164,33.54101966249684,19.4164878389476,61.814237842102365,45.5411901469428,38.0,23.0,38.0,11.5,30.5,11.5,1.5,10.198039027185567,11.04536101718726,11.0,50.0,31.0,51.47815070493501,{}
137,137,4.47213595499958,117.38824472663352,12.041594578792296,15.132745950421556,29.42787793912432,31.400636936215164,21.37755832643195,52.773099207835045,37.65634076752546,35.0,21.0,39.0,9.0,22.0,4.0,4.0,10.44030650891055,11.180339887498947,10.5,52.0,31.0,48.66210024238576,{}
138,138,2.0,116.40017182117904,12.041594578792296,16.1245154965971,31.25699921617557,32.55764119219941,22.20360331117452,50.635955604688654,34.52535300326414,34.0,23.0,41.0,10.0,18.0,1.0,3.0,9.486832980505138,10.198039027185567,10.0,50.0,29.0,49.64876634922564,{}
139,139,2.0,116.2497311824849,12.041594578792296,15.132745950421556,31.400636936215164,32.38826948140329,23.194827009486403,50.635955604688654,35.510561809129406,35.0,23.0,40.0,8.5,18.5,0.5,4.5,10.44030650891055,10.04987562112089,10.0,51.0,30.0,51.47815070493501,{}
140,140,7.280109889280518,116.1077086157504,11.04536101718726,14.142135623730953,30.26549190084312,32.38826948140329,21.213203435596427,53.60037313302959,39.45883931389772,35.5,22.0,38.0,9.0,23.0,6.0,3.0,10.198039027185567,11.180339887498947,10.5,51.0,30.0,50.48762224545735,{}
141,141,12.16552506059644,113.99122773266372,12.041594578792296,15.132745950421556,28.442925306655784,31.25699921617557,20.39607805437113,59.682493245507096,44.553338819890925,38.0,24.0,39.0,11.5,27.5,9.5,2.5,10.198039027185567,10.04987562112089,9.5,50.0,31.0,50.35871324805669,{}
142,142,15.033296378372908,115.974135047432,11.04536101718726,14.142135623730953,30.4138126514911,31.25699921617557,20.39607805437113,60.53098380168623,46.389654018972806,38.5,23.0,38.0,10.5,29.5,11.5,1.5,9.219544457292889,9.055385138137416,9.0,50.0,31.0,50.48762224545735,{}
143,143,16.0312195418814,117.957619508025,11.04536101718726,15.132745950421556,31.25699921617557,33.37663853655727,20.39607805437113,62.51399843235114,47.38143096192854,39.0,23.0,38.0,10.5,31.5,12.5,1.5,8.246211251235321,9.055385138137416,9.0,50.0,31.0,50.48762224545735,{}
144,144,15.132745950421556,118.94956914591998,11.04536101718726,15.033296378372908,31.25699921617557,34.36568055487916,19.235384061671343,60.40695324215582,45.39823785126467,37.5,22.0,37.0,10.5,30.5,12.5,1.5,9.486832980505138,10.04987562112089,10.0,50.0,32.0,48.507731342539614,{}
145,145,16.1245154965971,117.957619508025,11.04536101718726,15.132745950421556,31.400636936215164,33.37663853655727,20.223748416156685,62.51399843235114,47.38143096192854,39.0,23.0,38.0,10.5,31.5,12.5,1.5,9.219544457292889,10.198039027185567,9.5,51.0,31.0,49.49747468305833,{}
146,146,16.1245154965971,119.94165248152952,11.04536101718726,17.11724276862369,32.38826948140329,34.36568055487916,19.4164878389476,63.63961030678928,46.52956049652737,38.0,24.0,39.0,12.5,31.5,11.5,0.5,9.219544457292889,9.219544457292889,8.5,50.0,32.0,50.35871324805669,{}
147,147,20.09975124224178,115.84903970253704,11.04536101718726,17.11724276862369,31.25699921617557,33.24154027718932,19.235384061671343,67.47592163134935,50.35871324805669,40.0,26.0,40.0,14.0,34.0,14.0,2.0,9.486832980505138,9.219544457292889,9.5,49.0,31.0,50.35871324805669,{}
148,148,23.08679276123039,115.84903970253704,10.04987562112089,16.0312195418814,32.2490309931942,34.23448553724738,20.39607805437113,69.46221994724903,53.46026561849464,41.5,28.0,42.0,15.0,34.0,14.0,4.0,9.219544457292889,10.198039027185567,10.0,50.0,33.0,49.49747468305833,{}
149,149,24.08318915758459,117.61377470347595,11.04536101718726,16.0312195418814,32.2490309931942,35.35533905932738,17.26267650163207,68.3593446428504,52.3450093132096,40.0,28.0,40.0,17.0,34.0,15.0,5.0,9.219544457292889,9.219544457292889,9.0,48.0,33.0,53.23532661682466,{}
150,150,24.08318915758459,118.3427226321923,11.04536101718726,15.033296378372908,32.14031735997639,35.12833614050059,17.26267650163207,67.36467917239716,52.3450093132096,40.0,29.0,38.0,16.5,33.5,16.5,4.5,7.071067811865476,7.280109889280518,7.0,47.0,35.0,53.08483775994799,{}
151,151,22.02271554554524,116.21101496846155,11.04536101718726,15.033296378372908,31.064449134018133,32.14031735997639,17.029386365926403,65.12296062065974,50.08991914547278,39.0,31.0,38.0,17.5,30.5,13.5,6.5,6.082762530298219,6.324555320336759,6.0,43.0,35.0,53.08483775994799,{}
152,152,22.02271554554524,116.03878661895772,11.04536101718726,17.0,32.0624390837628,34.058772731852805,15.033296378372908,65.00769185258002,48.010415536631214,37.0,33.0,36.0,19.5,30.5,12.5,7.5,4.123105625617661,4.123105625617661,4.0,43.0,37.0,50.039984012787215,{}
153,153,20.024984394500787,116.0172400981854,12.0,17.0,31.016124838541646,33.015148038438355,15.033296378372908,64.0,47.0,37.0,33.0,35.0,19.0,30.0,12.0,7.0,3.0,3.605551275463989,3.0,40.0,37.0,48.010415536631214,{}
154,154,21.02379604162864,116.00431026474836,12.0,16.0,31.0,33.0,15.033296378372908,64.0,48.0,37.5,35.0,34.0,19.5,29.5,12.5,8.5,3.0,3.0,3.0,39.0,39.0,51.0,{}
155,155,21.02379604162864,114.03946685248928,11.04536101718726,14.0356688476182,31.0,33.0,15.0,61.00819617067857,47.0,36.5,33.0,30.0,16.5,29.5,14.5,6.5,3.0,4.0,4.0,35.0,39.0,49.04079934095692,{}
156,156,21.02379604162864,113.07077429645558,10.0,14.0356688476182,30.01666203960727,33.0,16.1245154965971,61.1310068623117,47.09564735726647,36.5,34.0,30.0,16.0,29.0,14.0,7.0,4.0,5.0990195135927845,4.5,36.0,42.0,48.04164859785725,{}
157,157,20.024984394500787,112.44554237496476,10.04987562112089,14.142135623730953,30.066592756745816,31.14482300479488,17.0,61.1310068623117,47.042533945356304,37.0,37.0,27.0,15.0,29.0,16.0,7.0,6.0,6.082762530298219,6.5,34.0,41.0,54.08326913195984,{}
158,158,20.0,112.53888216967503,10.04987562112089,14.317821063276352,29.068883707497267,32.0624390837628,17.029386365926403,61.20457499239743,47.042533945356304,37.0,38.0,27.0,15.5,28.5,14.5,7.5,4.0,5.0990195135927845,5.0,36.0,44.0,47.09564735726647,{}
159,159,19.1049731745428,111.879399354841,10.04987562112089,13.152946437965904,28.16025568065745,31.25699921617557,17.029386365926403,59.30430001273095,46.17358552246078,36.5,39.0,25.0,15.0,27.0,15.0,7.0,7.071067811865476,8.06225774829855,7.5,35.0,45.0,44.04543109109048,{}
160,160,19.026297590440446,111.0180165558726,10.04987562112089,14.317821063276352,28.16025568065745,30.26549190084312,17.26267650163207,60.53098380168623,46.2709412050371,36.5,38.0,23.0,13.5,29.5,16.5,6.5,8.06225774829855,8.246211251235321,8.0,33.0,46.0,44.10215414239989,{}
161,161,21.02379604162864,108.34205093129812,11.04536101718726,17.26267650163207,26.30589287593181,29.42787793912432,17.11724276862369,66.37017402418047,49.16299421312742,38.5,41.0,24.0,15.5,33.5,17.5,7.5,9.055385138137416,9.219544457292889,9.0,33.0,46.0,42.1070065428546,{}
162,162,29.068883707497267,109.04127658827184,9.055385138137416,16.278820596099706,28.442925306655784,30.59411708155671,18.110770276274835,72.44308110509934,56.22277118748239,41.5,45.0,24.0,16.5,37.5,22.5,10.5,9.219544457292889,10.44030650891055,9.5,32.0,48.0,42.190046219457976,{}
163,163,35.05709628591621,108.06016842481785,9.055385138137416,16.278820596099706,28.442925306655784,30.4138126514911,17.26267650163207,77.52418977325722,61.29437168288782,43.5,45.0,24.0,17.5,42.5,28.5,11.5,10.198039027185567,9.486832980505138,9.0,30.0,48.0,44.28317965096906,{}
164,164,32.0624390837628,110.21796586763884,9.055385138137416,17.26267650163207,28.442925306655784,31.78049716414141,17.26267650163207,75.53806987208503,58.30951894845301,42.0,44.0,22.0,16.0,42.0,28.0,11.0,10.04987562112089,10.770329614269007,10.0,28.0,47.0,46.2709412050371,{}
165,165,29.017236257093817,107.28000745712129,9.055385138137416,15.297058540778355,26.476404589747453,29.61418578992169,19.1049731745428,72.3394774656273,57.14017850864661,42.5,48.0,26.0,18.0,35.0,22.0,12.0,10.198039027185567,9.486832980505138,9.0,29.0,48.0,49.25444142409901,{}
166,166,26.0768096208106,107.07940978544848,9.055385138137416,16.278820596099706,27.29468812791236,29.8328677803526,19.235384061671343,70.57619995437555,54.3323108288245,41.0,46.0,25.0,16.5,34.5,20.5,10.5,9.055385138137416,9.486832980505138,9.0,29.0,49.0,48.25971404805462,{}
167,168,26.0768096208106,109.4440496326776,9.055385138137416,17.26267650163207,28.442925306655784,31.575306807693888,18.110770276274835,70.45565981523414,53.23532661682466,40.0,46.0,23.0,16.5,35.5,21.5,10.5,9.055385138137416,8.54400374531753,8.0,29.0,48.0,41.30375285612676,{}
168,169,20.09975124224178,113.35784048754634,10.04987562112089,19.235384061671343,28.442925306655784,31.575306807693888,18.68154169226941,67.89698078707183,48.66210024238576,38.0,45.0,22.0,15.5,33.5,16.5,8.5,9.219544457292889,8.54400374531753,8.0,30.0,50.0,43.18564576337837,{}
169,170,21.095023109728988,112.58774356030057,11.04536101718726,19.235384061671343,30.4138126514911,32.55764119219941,18.68154169226941,69.87131027825369,50.635955604688654,39.5,46.0,22.0,16.0,35.0,18.0,9.0,9.219544457292889,9.848857801796104,8.5,30.0,50.0,42.190046219457976,{}
170,171,23.08679276123039,112.58774356030057,11.180339887498947,19.4164878389476,28.442925306655784,31.78049716414141,17.46424919657298,71.02112361825881,51.62363799656123,39.5,46.0,22.0,17.0,36.0,19.0,9.0,10.198039027185567,8.94427190999916,8.0,29.0,49.0,39.319206502675,{}
171,172,30.066592756745816,110.85576214162258,10.04987562112089,16.492422502470642,28.442925306655784,31.78049716414141,17.26267650163207,73.68174807915459,57.3149195236284,42.0,46.0,21.0,16.5,39.5,25.5,9.5,8.246211251235321,8.54400374531753,7.5,30.0,51.0,39.20459156782532,{}
172,173,29.154759474226505,113.50770898930168,10.04987562112089,17.46424919657298,27.65863337187866,31.04834939252005,17.46424919657298,73.97972695272672,56.56854249492381,41.5,48.0,20.0,17.0,39.0,24.0,11.0,7.280109889280518,8.06225774829855,6.5,29.0,49.0,41.43669871020132,{}
173,174,30.066592756745816,114.47707194019246,11.180339887498947,17.72004514666935,29.8328677803526,33.24154027718932,17.46424919657298,76.11832893594026,58.54912467321779,43.0,47.0,19.0,16.0,42.0,26.0,10.0,5.0,3.605551275463989,2.5,26.0,51.0,44.7213595499958,{}
174,175,35.12833614050059,114.47707194019246,10.04987562112089,16.492422502470642,29.61418578992169,33.734255586866,17.46424919657298,78.91767862779544,62.51399843235114,44.5,50.0,22.0,19.0,42.0,29.0,13.0,2.8284271247461903,4.242640687119285,2.5,26.0,52.0,42.579337712087536,{}
175,176,29.154759474226505,115.69356075426153,10.44030650891055,17.72004514666935,28.861739379323623,32.984845004941285,17.26267650163207,74.33034373659252,56.71860364994893,41.5,51.0,22.0,19.5,36.5,22.5,13.5,5.0,4.242640687119285,3.0,28.0,53.0,46.52956049652737,{}
176,177,33.24154027718932,116.21101496846155,9.219544457292889,16.76305461424021,29.61418578992169,32.7566787083184,17.72004514666935,76.68767828015137,60.01666435249463,42.5,52.0,21.0,19.5,38.5,25.5,13.5,4.242640687119285,4.242640687119285,3.0,27.0,52.0,48.373546489791295,{}
177,178,29.27456233660889,113.6001760562016,10.44030650891055,18.68154169226941,30.80584360149873,34.92849839314596,17.72004514666935,75.92759709091287,57.27128425310541,41.5,55.0,23.0,22.0,35.0,20.0,16.0,3.605551275463989,2.8284271247461903,2.5,25.0,54.0,50.80354318352215,{}
178,179,31.25699921617557,115.52056094046635,10.44030650891055,18.97366596101028,32.01562118716424,34.92849839314596,17.46424919657298,77.62087348130012,58.69412236331676,41.5,54.0,22.0,22.0,37.0,22.0,16.0,5.830951894845301,5.385164807134504,5.0,22.0,51.0,47.51841748206689,{}
179,180,31.25699921617557,115.24755962709143,10.198039027185567,18.027756377319943,31.78049716414141,34.92849839314596,18.384776310850235,77.3692445355388,59.43904440685432,42.5,53.0,22.0,20.5,37.5,23.5,14.5,7.211102550927978,7.211102550927978,5.5,21.0,49.0,45.5411901469428,{}
180,181,29.154759474226505,114.0175425099138,10.44030650891055,18.027756377319943,30.80584360149873,33.95585369269929,19.313207915827967,76.40026177965623,58.463663928973865,42.5,52.0,22.0,19.0,37.0,22.0,13.0,7.211102550927978,8.602325267042627,6.5,19.0,48.0,42.42640687119285,{}
181,182,30.14962686336267,112.53888216967503,10.44030650891055,18.97366596101028,29.61418578992169,32.55764119219941,18.384776310850235,77.3692445355388,58.463663928973865,42.0,51.0,23.0,20.0,38.0,22.0,13.0,8.54400374531753,9.433981132056603,8.0,18.0,48.0,44.553338819890925,{}
182,183,38.3275357934736,114.72575996697516,10.44030650891055,18.97366596101028,30.59411708155671,33.734255586866,17.46424919657298,84.64632301523794,65.73431371817918,45.0,52.0,23.0,21.5,44.5,28.5,14.5,10.44030650891055,11.704699910719626,10.5,20.0,50.0,44.40720662234904,{}
183,184,36.345563690772494,112.7918436767482,10.198039027185567,17.72004514666935,30.80584360149873,33.734255586866,18.027756377319943,82.0,64.32728814430156,45.0,53.0,24.0,21.5,41.5,27.5,15.5,7.615773105863909,7.615773105863909,7.0,20.0,50.0,42.42640687119285,{}
184,185,45.17742799230607,112.0580206857144,9.486832980505138,18.68154169226941,30.80584360149873,35.6931365951495,18.384776310850235,91.00549433962765,72.3671196055225,48.5,51.0,25.0,21.0,51.0,35.0,16.0,6.4031242374328485,5.830951894845301,5.0,19.0,51.0,45.5411901469428,{}
185,186,41.30375285612676,111.1260545506768,10.44030650891055,19.92485884517128,30.59411708155671,33.734255586866,19.235384061671343,89.98888820293314,70.09279563550022,47.5,54.0,24.0,22.0,48.0,31.0,16.0,5.656854249492381,5.0,4.0,19.0,51.0,46.52956049652737,{}
186,187,35.35533905932738,114.28473213863695,10.44030650891055,19.92485884517128,31.78049716414141,34.92849839314596,18.384776310850235,83.67795408588812,63.788713735268246,44.5,53.0,22.0,20.5,43.5,26.5,14.5,6.4031242374328485,5.830951894845301,5.0,16.0,52.0,43.73785545725808,{}
187,188,38.47076812334269,111.0180165558726,9.486832980505138,20.248456731316587,29.120439557122072,32.984845004941285,17.88854381999832,85.44003745317531,65.25335240430181,44.0,52.0,19.0,19.5,46.5,29.5,15.5,7.211102550927978,6.708203932499369,6.0,15.0,53.0,43.73785545725808,{}
188,189,34.23448553724738,107.5174404457249,10.770329614269007,19.313207915827967,30.083217912982647,32.984845004941285,18.68154169226941,82.46211251235322,63.34824385884742,45.0,57.0,23.0,22.0,40.0,25.0,17.0,7.810249675906654,7.071067811865476,5.0,14.0,54.0,45.60701700396552,{}
189,190,39.319206502675,110.72488428533129,10.44030650891055,20.615528128088304,29.410882339705484,32.57299494980466,18.788294228055936,88.32326986700618,67.91170738539859,46.5,57.0,19.0,21.0,47.0,31.0,16.0,9.433981132056603,8.94427190999916,7.5,14.0,56.0,46.84015371452148,{}
190,191,41.43669871020132,108.84851859350222,11.704699910719626,21.18962010041709,28.46049894151541,33.24154027718932,17.0,90.52071586106683,69.3757882838098,46.5,57.0,19.0,23.0,49.0,32.0,17.0,8.06225774829855,10.295630140987,8.5,15.0,57.0,46.84015371452148,{}
191,192,22.56102834535696,104.75208828467336,12.36931687685298,20.248456731316587,28.16025568065745,31.32091952673165,17.88854381999832,72.73238618387272,52.49761899362675,39.0,55.0,18.0,20.5,32.5,17.5,13.5,8.94427190999916,10.295630140987,9.5,13.0,55.0,40.80441152620633,{}
192,193,9.433981132056603,101.01980003939822,12.649110640673518,16.15549442140351,25.6320112359526,27.85677655436824,19.92485884517128,57.9396237474839,41.78516483155236,35.0,53.0,16.0,15.5,19.5,9.5,8.5,9.848857801796104,10.295630140987,9.5,15.0,58.0,41.7612260356422,{}
193,194,5.0990195135927845,101.59232254457028,13.341664064126334,16.15549442140351,26.570660511172846,27.51363298439521,20.248456731316587,50.566787519082126,34.438350715445125,31.5,50.0,14.0,13.0,14.0,4.0,5.0,9.848857801796104,9.433981132056603,8.5,16.0,57.0,41.48493702538308,{}
194,195,4.0,101.84301645179212,12.36931687685298,16.15549442140351,26.248809496813376,27.51363298439521,19.92485884517128,49.76946855251722,33.61547262794322,31.0,47.0,13.0,11.0,16.0,5.0,4.0,9.486832980505138,8.94427190999916,8.5,14.0,56.0,42.44997055358225,{}
195,196,5.0,103.12128781197411,12.36931687685298,17.08800749063506,26.248809496813376,28.46049894151541,20.8806130178211,54.42425929675111,37.33630940518894,33.5,50.0,15.0,12.5,18.5,6.5,4.5,8.54400374531753,8.06225774829855,7.5,14.0,56.0,43.68065933568311,{}
196,197,9.848857801796104,107.83784122468327,12.649110640673518,17.08800749063506,28.46049894151541,31.6227766016838,18.68154169226941,58.18934610390462,41.10960958218893,34.5,48.0,13.0,12.5,24.5,12.5,5.5,8.06225774829855,8.06225774829855,7.5,14.0,57.0,46.17358552246078,{}
197,198,13.92838827718412,111.0,12.36931687685298,18.027756377319943,28.46049894151541,30.675723300355934,18.027756377319943,62.29767250869008,44.27188724235731,35.5,49.0,13.0,14.0,28.0,16.0,7.0,7.211102550927978,8.06225774829855,7.5,13.0,57.0,45.5411901469428,{}
198,199,19.6468827043885,112.8937553631732,10.44030650891055,17.08800749063506,30.364452901377952,31.6227766016838,18.027756377319943,65.14598989960932,48.08326112068523,36.5,49.0,13.0,14.0,31.0,18.0,9.0,6.708203932499369,7.211102550927978,6.5,14.0,57.0,45.880278987817846,{}
199,200,22.80350850198276,112.57886124845996,10.44030650891055,17.08800749063506,29.410882339705484,32.28002478313795,16.76305461424021,67.05221845696084,50.0,37.0,47.0,12.0,13.5,34.5,22.5,8.5,7.615773105863909,8.06225774829855,7.5,16.0,56.0,45.60701700396552,{}
200,201,19.4164878389476,113.52973178863763,11.704699910719626,18.384776310850235,30.364452901377952,32.57299494980466,16.76305461424021,66.09841147864296,47.80167361086848,36.5,48.0,13.0,14.5,32.5,19.5,8.5,8.06225774829855,8.06225774829855,7.0,14.0,55.0,44.9221548904324,{}
201,202,23.53720459187964,115.7410903698423,10.44030650891055,17.08800749063506,30.364452901377952,32.28002478313795,17.72004514666935,68.6804193347711,51.66236541235796,38.5,49.0,13.0,14.0,35.0,23.0,10.0,7.615773105863909,8.06225774829855,8.0,15.0,56.0,47.80167361086848,{}
202,203,27.459060435491963,115.24755962709143,11.40175425099138,16.76305461424021,29.8328677803526,32.984845004941285,16.15549442140351,71.56814934033156,54.81788029466298,39.5,49.0,18.0,18.5,35.5,22.5,11.5,6.708203932499369,8.06225774829855,7.0,17.0,55.0,48.507731342539614,{}
203,204,26.30589287593181,114.47707194019246,11.40175425099138,18.027756377319943,30.80584360149873,32.7566787083184,15.524174696260024,71.06335201775947,53.150729063673246,39.0,48.0,20.0,19.0,35.0,21.0,12.0,8.246211251235321,8.94427190999916,8.0,20.0,53.0,49.24428900898052,{}
204,205,27.29468812791236,112.17842929904128,10.198039027185567,15.524174696260024,29.42787793912432,31.575306807693888,16.278820596099706,69.2314957226839,53.75872022286245,39.5,45.0,23.0,18.0,34.0,21.0,11.0,6.708203932499369,8.94427190999916,7.5,21.0,50.0,50.00999900019995,{}
205,206,32.14031735997639,114.27160627207444,9.055385138137416,14.317821063276352,32.2490309931942,34.23448553724738,16.278820596099706,71.7007670809734,57.42821606144492,41.0,42.0,25.0,17.5,37.5,23.5,11.5,6.324555320336759,6.324555320336759,6.5,25.0,46.0,56.32051136131489,{}
206,207,31.016124838541646,114.6298390472568,10.04987562112089,14.317821063276352,30.14962686336267,33.06055050963308,16.1245154965971,71.34423592694787,57.14017850864661,41.5,42.0,30.0,20.0,35.0,22.0,12.0,7.280109889280518,8.06225774829855,7.5,28.0,44.0,46.2709412050371,{}
207,208,33.015148038438355,117.27318534089538,10.0,14.142135623730953,32.0,35.0142828000232,16.0312195418814,73.10950690573696,59.033888572581766,42.5,40.0,32.0,20.0,37.0,22.0,11.0,7.071067811865476,9.055385138137416,8.5,34.0,43.0,47.16990566028302,{}
208,209,33.0,115.03912377969506,9.0,13.038404810405298,32.0,35.0,16.0312195418814,71.02816342831905,58.00862004909271,41.5,37.0,34.0,19.5,35.5,20.5,11.5,7.0,8.06225774829855,8.5,36.0,41.0,47.01063709417264,{}
209,210,34.0147027033899,116.03878661895772,10.0,14.0,32.01562118716424,35.05709628591621,14.0356688476182,72.02777242147643,58.034472514187634,41.0,32.0,35.0,19.5,38.5,22.5,9.5,8.06225774829855,9.055385138137416,9.0,40.0,38.0,52.009614495783374,{}
210,211,34.058772731852805,115.35163631262454,9.0,14.0356688476182,33.13608305156178,36.22154055254967,15.297058540778355,72.24956747275377,58.215118311311535,41.0,30.0,39.0,19.5,37.5,20.5,10.5,7.071067811865476,8.06225774829855,8.5,43.0,36.0,49.01020301937138,{}
211,212,33.015148038438355,117.72000679578642,10.04987562112089,16.1245154965971,32.2490309931942,35.35533905932738,13.601470508735444,72.44308110509934,56.32051136131489,39.5,25.0,38.0,18.5,40.5,20.5,7.5,9.219544457292889,9.219544457292889,9.0,47.0,33.0,48.25971404805462,{}
212,213,37.05401462729781,116.55899793666724,10.04987562112089,16.278820596099706,33.54101966249684,36.49657518178932,14.866068747318506,77.78174593052023,61.5223536610881,42.5,24.0,43.0,19.5,43.5,22.5,8.5,8.54400374531753,8.54400374531753,8.0,49.0,30.0,45.5411901469428,{}
213,214,40.11234224026316,120.22063050907694,11.180339887498947,16.278820596099706,34.713109915419565,37.8549864614954,12.649110640673518,79.90619500389191,63.63961030678928,43.0,22.0,45.0,21.5,45.5,23.5,9.5,8.54400374531753,8.54400374531753,8.0,51.0,27.0,45.70557952810576,{}
214,215,43.04648650006177,116.4989270336856,11.180339887498947,16.492422502470642,33.54101966249684,36.87817782917155,13.0,83.02409288875127,66.61080993352356,44.5,22.0,46.0,22.0,48.0,26.0,10.0,9.486832980505138,9.486832980505138,8.5,54.0,26.0,50.00999900019995,{}
215,216,38.05259518088089,120.22063050907694,7.280109889280518,14.560219778561036,33.54101966249684,36.87817782917155,15.297058540778355,74.81310045707235,60.40695324215582,41.0,13.0,36.0,9.5,49.5,30.5,1.5,8.94427190999916,9.848857801796104,8.5,52.0,24.0,49.24428900898052,{}
216,217,35.12833614050059,117.47765745025733,9.219544457292889,15.524174696260024,32.7566787083184,35.90264614203248,16.492422502470642,76.11832893594026,60.67124524847005,42.5,15.0,39.0,11.0,48.0,28.0,1.0,8.94427190999916,8.54400374531753,8.0,55.0,24.0,52.172789842982326,{}
217,218,48.0936586256442,116.92732785794772,9.219544457292889,15.524174696260024,35.6931365951495,39.293765408777,12.36931687685298,84.8528137423857,69.46221994724903,45.0,19.0,45.0,20.0,52.0,30.0,10.0,9.848857801796104,9.219544457292889,8.5,57.0,25.0,53.150729063673246,{}
218,219,35.05709628591621,116.1808934377766,10.198039027185567,16.76305461424021,35.6931365951495,38.07886552931954,13.341664064126334,74.96665925596525,58.42088667591412,40.5,10.0,37.0,10.5,50.5,27.5,0.5,8.06225774829855,7.280109889280518,7.0,58.0,27.0,55.10898293381942,{}
219,220,37.05401462729781,111.40017953306898,8.06225774829855,15.297058540778355,30.59411708155671,33.734255586866,20.39607805437113,80.62257748298549,65.37583651472461,46.5,21.0,44.0,12.5,47.5,27.5,2.5,8.06225774829855,8.06225774829855,7.0,55.0,27.0,51.19570294468082,{}
220,221,33.015148038438355,112.17842929904128,8.246211251235321,14.317821063276352,32.55764119219941,34.713109915419565,24.515301344262525,79.76214641043707,65.49045732013177,48.5,24.0,46.0,11.0,44.0,25.0,2.0,9.848857801796104,8.246211251235321,8.5,55.0,25.0,52.172789842982326,{}
221,222,21.095023109728988,108.85311203635844,13.152946437965904,18.24828759089466,31.575306807693888,33.54101966249684,19.1049731745428,71.56814934033156,53.33854141237835,42.5,30.0,50.0,21.0,31.0,9.0,6.0,8.94427190999916,8.06225774829855,7.5,53.0,24.0,50.44799302251776,{}
222,223,14.317821063276352,106.73331251301067,13.341664064126334,16.492422502470642,29.8328677803526,31.04834939252005,19.235384061671343,63.34824385884742,46.87216658103186,39.0,26.0,50.0,19.0,24.0,3.0,3.0,8.06225774829855,8.54400374531753,7.5,53.0,22.0,49.03060268852505,{}
223,224,7.615773105863909,105.77334257741882,12.36931687685298,14.560219778561036,29.120439557122072,30.364452901377952,20.09975124224178,54.3415126767741,39.81205847478876,35.5,21.0,49.0,15.0,18.0,2.0,0.0,7.211102550927978,8.06225774829855,7.0,57.0,19.0,47.53945729601885,{}
224,225,9.486832980505138,105.94810050208544,12.36931687685298,13.92838827718412,29.410882339705484,30.675723300355934,19.6468827043885,55.36244214266564,41.48493702538308,35.5,18.0,50.0,15.0,19.0,0.0,1.0,8.602325267042627,7.810249675906654,6.5,61.0,15.0,44.01136216933077,{}
225,226,17.26267650163207,103.464969917359,10.770329614269007,13.0,26.570660511172846,29.154759474226505,23.08679276123039,63.89053137985315,50.96076922496363,40.5,17.0,53.0,13.0,26.0,7.0,0.0,10.0,8.94427190999916,8.0,66.0,12.0,47.53945729601885,{}
226,227,32.38826948140329,112.0089282155668,8.94427190999916,15.231546211727816,31.016124838541646,33.24154027718932,17.46424919657298,73.37574531137656,58.240879114244144,40.0,9.0,48.0,12.5,41.5,19.5,1.5,10.0,9.848857801796104,8.5,70.0,12.0,45.617978911828175,{}
227,228,40.60788100849391,121.7579566188592,8.94427190999916,15.264337522473747,32.89376840679705,35.11409973215888,14.212670403551895,77.25283166331187,62.29767250869008,39.0,1.0,41.0,10.0,51.0,30.0,1.0,11.40175425099138,10.295630140987,9.0,72.0,13.0,45.65084884205331,{}
228,229,44.553338819890925,118.00423721205946,7.211102550927978,15.652475842498529,30.083217912982647,33.24154027718932,16.64331697709324,82.54089895318563,67.05221845696084,42.0,7.0,41.0,10.0,54.0,34.0,2.0,12.529964086141668,11.40175425099138,11.0,56.0,7.0,48.70318264754368,{}
229,230,34.713109915419565,121.8400590938793,7.211102550927978,14.7648230602334,32.28002478313795,34.20526275297414,17.204650534085253,72.61542535852834,57.9396237474839,37.0,0.0,34.0,3.0,50.0,31.0,5.0,10.816653826391969,10.770329614269007,9.5,57.0,5.0,52.49761899362675,{}
230,231,41.77319714841085,127.81236246936366,8.06225774829855,16.1245154965971,32.31098884280702,35.84689665786984,15.620499351813308,79.84985911070852,63.90618123468183,39.5,5.0,39.0,5.0,57.0,35.0,5.0,11.40175425099138,10.770329614269007,8.5,75.0,10.0,47.41307836451879,{}
231,232,40.024992192379,124.78781991845196,7.071067811865476,16.64331697709324,33.24154027718932,35.84689665786984,17.029386365926403,78.7210264160726,62.24146527838174,37.5,7.0,39.0,3.0,55.0,33.0,6.0,12.206555615733702,12.083045973594572,10.5,77.0,15.0,53.85164807134504,{}
232,233,38.63935817272331,125.93649193144932,7.810249675906654,15.264337522473747,33.83784863137726,36.40054944640259,18.601075237738275,78.39005038906404,63.324560795950255,40.0,5.0,39.0,2.0,55.0,34.0,7.0,12.529964086141668,11.704699910719626,10.5,77.0,17.0,55.15432893255071,{}
233,234,37.8549864614954,126.64912159190052,9.433981132056603,17.0,37.0,39.0,21.633307652783937,84.69356528095862,67.77905281132217,44.5,0.0,46.0,5.0,55.0,31.0,7.0,14.7648230602334,12.649110640673518,12.0,78.0,17.0,53.48831648126533,{}
234,235,39.6232255123179,126.53062870309309,8.94427190999916,17.4928556845359,34.785054261852174,38.27531841800928,22.02271554554524,86.00581375697809,68.70953354520753,44.5,1.0,44.0,5.5,56.5,33.5,5.5,14.7648230602334,13.341664064126334,12.5,77.0,19.0,57.584720195551874,{}
235,236,50.48762224545735,117.00427342623004,11.180339887498947,18.788294228055936,31.32091952673165,34.48187929913333,15.620499351813308,93.92017887546852,75.28612089887484,47.0,11.0,48.0,17.5,59.5,36.5,4.5,12.529964086141668,13.0,11.5,71.0,10.0,44.77722635447622,{}
236,237,38.8329756778952,115.7410903698423,11.704699910719626,18.384776310850235,30.364452901377952,33.52610922848042,19.235384061671343,87.5956619930462,69.26037828369117,47.0,15.0,51.0,16.0,50.0,27.0,2.0,11.6619037896906,12.083045973594572,10.5,69.0,12.0,44.28317965096906,{}
237,238,32.38826948140329,109.78615577567146,11.180339887498947,17.88854381999832,28.792360097775937,31.016124838541646,19.697715603592208,80.32434251209281,62.6418390534633,44.0,15.0,53.0,16.0,42.0,20.0,2.0,14.317821063276352,13.0,11.5,72.0,12.0,47.8539444560216,{}
238,239,23.53720459187964,106.62082348209472,12.083045973594572,17.46424919657298,27.73084924772409,29.9666481275434,20.8806130178211,73.68174807915459,56.32051136131489,42.5,16.0,58.0,17.0,33.0,10.0,0.0,12.529964086141668,12.083045973594572,11.0,76.0,16.0,45.18849411078001,{}
239,240,16.76305461424021,105.84894897919392,13.601470508735444,18.97366596101028,26.92582403567252,30.463092423455635,21.840329667841555,71.16881339463234,52.20153254455275,42.0,15.0,55.0,14.0,33.0,9.0,3.0,13.41640786499874,13.0,12.0,71.0,17.0,47.92702786528704,{}
240,242,19.92485884517128,110.13627921806692,10.770329614269007,16.15549442140351,29.73213749463701,31.78049716414141,21.18962010041709,68.00735254367721,51.86520991955976,39.5,14.0,53.0,13.5,30.5,8.5,0.5,13.0,11.40175425099138,11.0,67.0,16.0,54.70831746635972,{}
241,243,19.6468827043885,113.22543883774529,10.770329614269007,16.55294535724685,30.675723300355934,31.95309061734092,18.027756377319943,64.8459713474939,48.38388161361178,36.5,11.0,45.0,11.0,33.0,12.0,3.0,12.083045973594572,11.704699910719626,10.5,66.0,17.0,54.12023651093924,{}
242,244,17.72004514666935,112.27199116431488,10.44030650891055,16.15549442140351,30.083217912982647,31.95309061734092,19.313207915827967,63.56886030125127,47.43416490252569,36.5,11.0,45.0,10.0,32.0,12.0,3.0,11.180339887498947,10.44030650891055,9.5,66.0,16.0,50.92150822589606,{}
243,245,17.46424919657298,110.67971810589329,9.848857801796104,14.317821063276352,29.410882339705484,31.95309061734092,19.92485884517128,61.35144660071187,47.12748667179272,36.5,10.0,45.0,8.5,30.5,11.5,3.5,12.529964086141668,11.704699910719626,10.5,68.0,16.0,55.65968020030299,{}
244,246,14.560219778561036,110.06361796706484,10.770329614269007,15.231546211727816,29.410882339705484,32.89376840679705,18.97366596101028,59.46427498927402,44.27188724235731,35.0,10.0,43.0,8.5,29.5,8.5,4.5,11.180339887498947,10.770329614269007,9.5,66.0,16.0,54.70831746635972,{}
245,247,14.560219778561036,109.11003620199196,10.770329614269007,15.231546211727816,29.73213749463701,31.016124838541646,19.92485884517128,60.40695324215582,45.22167621838005,36.0,10.0,46.0,9.0,29.0,9.0,5.0,11.6619037896906,9.848857801796104,8.5,68.0,16.0,53.48831648126533,{}
246,248,21.587033144922906,109.73149046650192,9.486832980505138,17.72004514666935,30.675723300355934,31.95309061734092,19.313207915827967,68.00735254367721,50.28916384272063,37.5,13.0,48.0,12.5,34.5,11.5,0.5,8.94427190999916,8.94427190999916,7.5,66.0,18.0,52.49761899362675,{}
247,252,36.12478373637688,108.34205093129812,12.16552506059644,20.223748416156685,30.4138126514911,33.54101966249684,21.02379604162864,89.45389874119518,69.26037828369117,51.0,28.0,45.0,15.5,52.5,28.5,2.5,11.180339887498947,9.486832980505138,9.0,61.0,27.0,51.92301994298868,{}
248,253,31.064449134018133,107.56393447619884,13.152946437965904,20.09975124224178,30.14962686336267,33.13608305156178,22.02271554554524,86.14522621712709,66.06814663663572,50.5,32.0,43.0,15.5,48.5,25.5,2.5,10.44030650891055,9.486832980505138,9.0,56.0,30.0,54.12947441089743,{}
249,254,24.020824298928627,110.22250223978769,12.16552506059644,19.026297590440446,30.066592756745816,33.06055050963308,23.08679276123039,78.02563681252464,59.00847396772772,47.0,33.0,40.0,13.5,41.5,19.5,1.5,10.44030650891055,9.219544457292889,9.0,54.0,33.0,53.60037313302959,{}
250,255,12.0,108.04165863221463,13.038404810405298,19.026297590440446,29.017236257093817,30.01666203960727,24.020824298928627,68.00735254367721,49.0,43.0,36.0,39.0,13.5,30.5,9.5,0.5,10.198039027185567,9.219544457292889,9.0,49.0,35.0,54.230987451824994,{}
251,256,7.0,108.0185169311262,13.0,17.0,29.017236257093817,30.01666203960727,24.08318915758459,61.032778078668514,44.04543109109048,40.5,38.0,36.0,13.0,24.0,6.0,0.0,11.0,11.04536101718726,11.0,42.0,39.0,50.039984012787215,{}
252,257,4.0,112.21853679316978,15.0,19.0,29.0,30.01666203960727,23.345235059857504,61.1310068623117,42.190046219457976,40.0,39.0,32.0,12.5,25.5,6.5,1.5,11.0,11.0,11.0,39.0,43.0,55.00909015790027,{}
253,258,7.071067811865476,112.64102272262978,14.0,19.1049731745428,28.0713376952364,30.066592756745816,23.345235059857504,63.38769596696192,44.28317965096906,40.5,42.0,30.0,13.0,27.0,8.0,0.0,11.04536101718726,10.04987562112089,10.5,40.0,47.0,56.0357029044876,{}
254,259,10.198039027185567,115.84903970253704,14.0356688476182,21.095023109728988,30.066592756745816,32.14031735997639,21.213203435596427,66.48308055437865,45.39823785126467,40.0,43.0,29.0,15.0,30.0,10.0,2.0,10.198039027185567,10.198039027185567,10.5,37.0,51.0,52.15361924162119,{}
255,260,15.132745950421556,117.5457357797381,13.152946437965904,20.223748416156685,31.25699921617557,33.24154027718932,19.235384061671343,67.7421582177598,47.51841748206689,39.5,45.0,26.0,16.5,31.5,13.5,5.5,11.180339887498947,10.198039027185567,10.5,34.0,53.0,53.46026561849464,{}
256,261,17.11724276862369,120.03332870498926,12.16552506059644,19.4164878389476,30.4138126514911,33.54101966249684,20.223748416156685,68.8839603971781,49.49747468305833,40.5,46.0,24.0,15.0,33.0,16.0,6.0,10.04987562112089,10.44030650891055,10.0,30.0,54.0,54.45181356024793,{}
257,262,15.132745950421556,119.4361754243663,12.16552506059644,20.39607805437113,30.4138126514911,33.734255586866,20.223748416156685,67.89698078707183,47.51841748206689,39.5,47.0,23.0,15.0,32.0,15.0,6.0,9.219544457292889,9.219544457292889,9.5,29.0,56.0,52.46903848937962,{}
258,263,16.278820596099706,121.80722474467596,13.152946437965904,21.37755832643195,32.38826948140329,35.90264614203248,19.4164878389476,70.21395872616783,48.83646178829912,40.0,47.0,21.0,15.0,35.0,17.0,6.0,10.198039027185567,11.704699910719626,10.5,28.0,58.0,52.773099207835045,{}
259,264,22.36067977499789,121.51131634543344,12.16552506059644,19.4164878389476,31.78049716414141,34.92849839314596,18.43908891458577,72.3671196055225,52.952809179494906,41.0,48.0,19.0,15.5,37.5,20.5,8.5,10.198039027185567,11.40175425099138,11.5,24.0,58.0,52.773099207835045,{}
260,265,28.284271247461906,121.27654348636426,11.180339887498947,16.492422502470642,32.55764119219941,35.90264614203248,20.39607805437113,76.2954782408499,59.84145720150872,45.0,49.0,21.0,15.0,40.0,26.0,8.0,10.198039027185567,11.704699910719626,11.5,23.0,57.0,52.952809179494906,{}
261,266,29.154759474226505,120.30378215168466,12.36931687685298,16.76305461424021,31.78049716414141,34.92849839314596,19.4164878389476,77.46612162745726,60.8276253029822,45.5,49.0,21.0,16.0,41.0,27.0,9.0,10.198039027185567,11.704699910719626,11.0,23.0,56.0,53.9351462406472,{}
262,267,31.14482300479488,120.074976577137,11.40175425099138,17.46424919657298,31.575306807693888,34.713109915419565,19.235384061671343,79.07591289387686,61.66036003787198,45.5,50.0,23.0,17.5,41.5,26.5,9.5,11.180339887498947,11.704699910719626,11.5,23.0,55.0,52.952809179494906,{}
263,268,31.14482300479488,120.074976577137,11.40175425099138,16.492422502470642,32.55764119219941,35.90264614203248,19.235384061671343,78.08969202141856,61.66036003787198,45.5,49.0,22.0,16.5,41.5,27.5,9.5,10.198039027185567,10.770329614269007,10.0,26.0,56.0,52.773099207835045,{}
264,269,30.26549190084312,121.0495766204905,11.180339887498947,16.492422502470642,32.38826948140329,34.92849839314596,20.223748416156685,78.08969202141856,61.66036003787198,46.0,51.0,24.0,17.5,39.5,25.5,10.5,10.198039027185567,11.704699910719626,11.0,27.0,56.0,53.150729063673246,{}
265,270,28.16025568065745,121.0495766204905,11.180339887498947,17.46424919657298,30.59411708155671,33.734255586866,19.235384061671343,75.95393340703298,58.54912467321779,44.0,49.0,22.0,16.5,39.5,25.5,9.5,10.198039027185567,10.44030650891055,10.0,29.0,55.0,52.773099207835045,{}
266,271,18.110770276274835,118.25819210524064,11.180339887498947,18.24828759089466,29.42787793912432,32.55764119219941,21.095023109728988,68.59300255857006,50.35871324805669,41.0,46.0,23.0,13.5,33.5,17.5,6.5,11.180339887498947,11.40175425099138,11.0,27.0,52.0,53.60037313302959,{}
267,272,14.317821063276352,118.06777714516352,10.04987562112089,15.524174696260024,29.27456233660889,32.55764119219941,22.02271554554524,61.66036003787198,46.2709412050371,39.0,45.0,23.0,12.0,27.0,14.0,5.0,10.04987562112089,11.40175425099138,10.5,30.0,52.0,51.47815070493501,{}
268,273,11.180339887498947,114.42464769445436,11.180339887498947,15.297058540778355,30.14962686336267,31.400636936215164,22.02271554554524,59.53990258641679,44.28317965096906,38.5,43.0,25.0,12.0,25.0,12.0,4.0,10.04987562112089,10.44030650891055,10.0,30.0,51.0,51.35172830587107,{}
269,274,13.152946437965904,113.1370849898476,9.055385138137416,15.297058540778355,30.14962686336267,31.25699921617557,23.08679276123039,60.53098380168623,45.27692569068709,38.5,43.0,27.0,12.0,25.0,11.0,5.0,10.04987562112089,10.198039027185567,10.0,32.0,48.0,57.07889277132134,{}
270,275,10.198039027185567,113.0,8.06225774829855,14.142135623730953,29.068883707497267,31.25699921617557,25.079872407968907,57.42821606144492,43.28972164382672,38.0,44.0,29.0,11.5,20.5,7.5,5.5,10.04987562112089,11.180339887498947,11.0,32.0,48.0,51.15662224971465,{}
271,276,11.04536101718726,111.44954015158608,8.0,14.142135623730953,28.0178514522438,30.066592756745816,24.08318915758459,57.21887800367987,43.10452412450461,37.5,40.0,30.0,11.0,22.0,8.0,5.0,11.04536101718726,12.16552506059644,11.5,36.0,48.0,52.08646657242167,{}
272,277,13.038404810405298,109.22453936730518,8.0,15.033296378372908,28.0,30.066592756745816,24.08318915758459,60.13318551349163,45.09988913511872,38.5,40.0,33.0,12.5,23.5,7.5,5.5,13.0,13.038404810405298,13.0,38.0,46.0,54.08326913195984,{}
273,278,16.0,107.0420478129973,8.06225774829855,18.027756377319943,29.017236257093817,31.016124838541646,25.0,67.02984409947557,49.01020301937138,41.0,40.0,37.0,13.5,28.5,10.5,5.5,12.0,12.041594578792296,12.5,41.0,44.0,54.0,{}
274,279,23.021728866442675,104.04326023342406,10.0,20.0,27.0,30.0,24.08318915758459,77.05841939723393,57.07889277132134,45.5,42.0,39.0,16.5,36.5,15.5,7.5,13.038404810405298,13.0,13.0,42.0,42.0,52.03844732503075,{}
275,280,34.0,104.00480758118827,10.0,19.0,29.017236257093817,31.016124838541646,23.021728866442675,86.00581375697809,67.00746227100382,50.0,42.0,43.0,19.5,43.5,21.5,9.5,14.0356688476182,13.0,13.5,46.0,41.0,52.08646657242167,{}
276,281,35.0,107.00467279516349,11.0,21.0,29.068883707497267,32.01562118716424,24.020824298928627,91.00549433962765,70.00714249274856,52.5,42.0,43.0,18.5,48.5,25.5,7.5,14.0356688476182,13.0,13.0,48.0,40.0,52.15361924162119,{}
277,282,38.0,107.07474025184464,11.04536101718726,21.0,29.017236257093817,32.01562118716424,23.021728866442675,93.0,72.0,53.0,41.0,45.0,20.0,50.0,27.0,9.0,15.132745950421556,13.0,13.5,51.0,40.0,53.150729063673246,{}
278,283,38.0,110.07270324653612,11.0,21.02379604162864,31.064449134018133,33.06055050963308,24.020824298928627,94.0,73.00684899377592,54.0,40.0,44.0,18.0,52.0,28.0,7.0,13.152946437965904,13.0,13.0,48.0,39.0,54.147945482723536,{}
279,284,38.0,107.07474025184464,11.0,21.0,29.068883707497267,32.01562118716424,24.020824298928627,94.00531899844816,73.00684899377592,54.0,43.0,47.0,21.0,49.0,25.0,9.0,14.142135623730953,13.038404810405298,13.0,47.0,39.0,53.23532661682466,{}
280,285,35.0,109.1146186356347,13.0,23.021728866442675,29.068883707497267,33.015148038438355,22.02271554554524,93.0,70.00714249274856,52.5,39.0,44.0,19.5,51.5,26.5,6.5,14.142135623730953,13.0,13.0,49.0,39.0,53.23532661682466,{}
281,286,35.0142828000232,107.07474025184464,13.0,22.0,29.068883707497267,32.0624390837628,23.08679276123039,93.00537618869136,71.00704190430693,53.5,41.0,45.0,20.0,50.0,25.0,7.0,14.142135623730953,13.038404810405298,13.0,47.0,39.0,53.23532661682466,{}
282,287,36.0,109.04127658827184,12.041594578792296,22.0,30.066592756745816,33.06055050963308,23.08679276123039,93.00537618869136,71.00704190430693,53.0,40.0,43.0,18.5,51.5,27.5,5.5,14.142135623730953,13.0,13.5,48.0,40.0,54.147945482723536,{}
283,288,34.0,109.04127658827184,13.038404810405298,22.0,30.01666203960727,33.015148038438355,23.021728866442675,92.0,70.0,53.0,41.0,44.0,19.5,49.5,25.5,6.5,12.16552506059644,12.0,12.5,47.0,40.0,54.147945482723536,{}
284,289,23.021728866442675,110.00454536063498,13.0,22.0,30.01666203960727,32.0,25.0,83.00602387778854,61.00819617067857,49.5,41.0,42.0,16.5,41.5,17.5,3.5,13.152946437965904,13.0,12.5,48.0,40.0,55.14526271584895,{}
285,290,9.0,107.0420478129973,14.0,19.0,30.01666203960727,31.016124838541646,26.019223662515376,68.00735254367721,49.01020301937138,44.5,39.0,42.0,14.5,27.5,6.5,1.5,14.142135623730953,12.0,12.5,50.0,39.0,53.23532661682466,{}
286,291,5.0990195135927845,109.1146186356347,13.038404810405298,18.027756377319943,30.066592756745816,32.0624390837628,25.019992006393608,61.0,43.01162633521314,40.5,36.0,41.0,13.5,22.5,2.5,0.5,13.152946437965904,11.04536101718726,11.5,51.0,39.0,50.24937810560445,{}
287,292,6.0,110.16351483136329,13.038404810405298,18.0,30.066592756745816,31.064449134018133,27.0,64.00781202322104,46.01086828130936,43.0,37.0,43.0,13.0,24.0,4.0,0.0,12.041594578792296,12.041594578792296,11.5,50.0,40.0,56.22277118748239,{}
288,293,9.055385138137416,110.22250223978769,16.0,21.0,32.0624390837628,33.06055050963308,24.020824298928627,70.02856560004639,49.04079934095692,44.5,38.0,45.0,17.5,28.5,5.5,1.5,11.180339887498947,11.0,11.0,51.0,38.0,56.22277118748239,{}
289,294,28.0713376952364,113.44161493913953,14.0356688476182,24.020824298928627,33.24154027718932,36.12478373637688,23.08679276123039,89.20201791439474,65.19202405202648,51.0,39.0,49.0,21.0,45.0,19.0,6.0,11.40175425099138,11.04536101718726,11.0,51.0,37.0,54.147945482723536,{}
290,295,37.12142238654117,118.6086000254619,12.041594578792296,21.095023109728988,34.23448553724738,38.3275357934736,19.235384061671343,89.45389874119518,68.3593446428504,49.5,35.0,47.0,22.0,48.0,23.0,8.0,7.280109889280518,6.708203932499369,6.5,52.0,36.0,50.35871324805669,{}
291,296,37.05401462729781,124.4869471069156,12.041594578792296,21.095023109728988,34.23448553724738,38.2099463490856,19.1049731745428,89.27485648266257,68.18357573492314,49.5,32.0,43.0,18.5,51.5,27.5,6.5,7.280109889280518,6.708203932499369,6.5,52.0,35.0,53.33854141237835,{}
292,297,30.14962686336267,117.23907198540935,8.06225774829855,18.24828759089466,34.23448553724738,38.3275357934736,18.027756377319943,74.14849964766651,55.90169943749474,40.0,15.0,32.0,6.5,49.5,27.5,1.5,5.385164807134504,5.0,4.5,49.0,24.0,64.6297145282261,{}
293,298,40.049968789001575,120.3536455617361,12.16552506059644,20.223748416156685,35.35533905932738,38.47076812334269,14.560219778561036,86.70063436907483,66.48308055437865,46.0,28.0,46.0,23.0,49.0,25.0,10.0,8.246211251235321,8.54400374531753,7.5,55.0,32.0,49.49747468305833,{}
294,299,36.12478373637688,119.05040949110592,10.198039027185567,17.72004514666935,33.54101966249684,36.6742416417845,19.4164878389476,83.18653737234169,65.62011886609167,47.0,26.0,48.0,18.0,45.0,23.0,7.0,8.54400374531753,7.615773105863909,7.5,54.0,29.0,58.69412236331676,{}
295,300,37.12142238654117,126.30122723077557,10.44030650891055,15.524174696260024,34.52535300326414,36.87817782917155,15.524174696260024,78.26237921249263,62.80127387243033,43.5,22.0,46.0,19.0,43.0,23.0,7.0,9.848857801796104,9.486832980505138,9.0,58.0,28.0,51.78802950489621,{}
296,301,32.2490309931942,119.1007976463634,10.198039027185567,16.76305461424021,33.95585369269929,36.1386219991853,14.866068747318506,73.7563556583431,57.0701322935211,40.0,23.0,50.0,22.5,35.5,14.5,9.5,10.770329614269007,9.848857801796104,9.5,59.0,26.0,51.78802950489621,{}
297,302,30.26549190084312,116.92732785794772,11.180339887498947,15.811388300841896,32.984845004941285,36.1386219991853,14.317821063276352,71.06335201775947,55.31726674375732,39.0,22.0,48.0,22.0,34.0,14.0,8.0,8.94427190999916,9.848857801796104,9.0,58.0,27.0,50.99019513592785,{}
298,303,27.16615541441225,119.1007976463634,10.44030650891055,15.811388300841896,32.984845004941285,35.17101079013795,14.317821063276352,67.1863081289633,51.419840528729765,36.5,19.0,46.0,19.5,32.5,13.5,6.5,7.615773105863909,8.94427190999916,8.0,58.0,25.0,48.27007354458868,{}
299,304,25.179356624028344,113.2651755836718,10.44030650891055,14.866068747318506,32.01562118716424,34.20526275297414,14.317821063276352,64.28841264178172,49.47726750741192,35.5,19.0,46.0,19.5,29.5,10.5,5.5,9.848857801796104,11.180339887498947,9.5,59.0,24.0,49.47726750741192,{}
300,305,20.39607805437113,109.48059188732952,10.44030650891055,14.866068747318506,31.32091952673165,32.57299494980466,16.76305461424021,62.36184731067546,47.53945729601885,36.0,20.0,51.0,19.5,24.5,5.5,5.5,10.770329614269007,10.770329614269007,9.5,59.0,23.0,49.47726750741192,{}
301,306,19.235384061671343,106.60675400742676,10.44030650891055,13.92838827718412,30.364452901377952,30.675723300355934,19.4164878389476,62.81719509815764,49.03060268852505,38.5,23.0,54.0,19.5,22.5,4.5,5.5,10.770329614269007,11.40175425099138,11.0,58.0,23.0,51.419840528729765,{}
302,307,20.223748416156685,105.65036677645752,11.180339887498947,14.560219778561036,29.410882339705484,31.32091952673165,19.4164878389476,65.30696746902278,50.80354318352215,40.0,24.0,55.0,20.5,24.5,5.5,5.5,12.36931687685298,12.649110640673518,12.0,60.0,24.0,50.69516742254631,{}
303,308,20.09975124224178,103.84603988597736,12.16552506059644,14.560219778561036,29.120439557122072,30.083217912982647,20.223748416156685,66.91038783328041,52.46903848937962,42.0,26.0,54.0,20.0,26.0,7.0,5.0,12.649110640673518,12.36931687685298,11.5,61.0,24.0,49.72926703662542,{}
304,309,19.1049731745428,100.89598604503551,12.16552506059644,15.297058540778355,27.892651361962702,29.8328677803526,20.223748416156685,66.75327707311455,51.47815070493501,41.5,29.0,53.0,21.0,25.0,6.0,6.0,13.341664064126334,12.649110640673518,12.5,57.0,26.0,46.32493928760188,{}
305,310,14.317821063276352,100.43903623591775,14.0356688476182,17.26267650163207,26.68332812825267,27.892651361962702,20.223748416156685,65.76473218982953,48.507731342539614,41.0,31.0,53.0,22.0,23.0,2.0,5.0,11.40175425099138,11.40175425099138,11.5,56.0,28.0,51.97114584074513,{}
306,311,20.09975124224178,100.43903623591775,12.16552506059644,14.317821063276352,27.65863337187866,29.8328677803526,20.223748416156685,66.75327707311455,52.46903848937962,42.0,30.0,52.0,21.0,25.0,7.0,6.0,12.36931687685298,12.36931687685298,12.0,57.0,28.0,47.07440918375928,{}
307,312,19.1049731745428,99.46356116689168,12.16552506059644,14.560219778561036,28.861739379323623,29.8328677803526,21.213203435596427,66.91038783328041,52.46903848937962,42.5,30.0,52.0,20.0,25.0,6.0,6.0,12.36931687685298,12.36931687685298,12.0,57.0,28.0,44.91102314577124,{}
308,313,17.11724276862369,99.24716620639605,12.16552506059644,15.297058540778355,26.68332812825267,28.861739379323623,21.095023109728988,65.62011886609167,50.35871324805669,41.5,30.0,51.0,19.5,24.5,4.5,4.5,13.341664064126334,12.36931687685298,12.0,56.0,28.0,45.89117562233506,{}
309,314,19.235384061671343,102.96115772464876,12.16552506059644,15.297058540778355,28.635642126552707,29.61418578992169,19.1049731745428,65.76473218982953,50.48762224545735,40.5,28.0,48.0,19.0,27.0,8.0,5.0,12.36931687685298,12.36931687685298,12.0,56.0,29.0,46.87216658103186,{}
310,315,22.20360331117452,107.68936809174804,11.180339887498947,17.11724276862369,31.400636936215164,32.55764119219941,17.26267650163207,67.7421582177598,50.635955604688654,39.0,25.0,44.0,17.5,32.5,12.5,4.5,12.36931687685298,13.341664064126334,12.5,56.0,27.0,48.83646178829912,{}
311,316,24.33105012119288,107.07940978544848,11.180339887498947,17.46424919657298,29.61418578992169,32.55764119219941,21.37755832643195,74.33034373659252,56.88585061331157,44.0,27.0,48.0,16.5,35.5,14.5,3.5,12.649110640673518,13.341664064126334,12.0,57.0,27.0,49.8196748283246,{}
312,317,39.20459156782532,107.8702924812944,11.180339887498947,18.24828759089466,30.4138126514911,33.734255586866,19.235384061671343,87.82368700982668,69.58448102845921,49.5,31.0,51.0,22.0,46.0,24.0,9.0,12.649110640673518,12.16552506059644,12.0,58.0,29.0,50.80354318352215,{}
313,318,40.19950248448356,113.1591799192624,10.198039027185567,19.4164878389476,32.55764119219941,34.92849839314596,20.223748416156685,89.94442728707543,70.57619995437555,50.0,26.0,48.0,17.0,52.0,28.0,5.0,12.649110640673518,12.16552506059644,12.0,58.0,28.0,53.60037313302959,{}
314,319,42.190046219457976,113.95174417269794,11.180339887498947,19.235384061671343,31.575306807693888,35.6931365951495,20.223748416156685,92.7793080379456,73.55270219373317,52.0,28.0,49.0,18.5,53.5,29.5,6.5,12.649110640673518,12.16552506059644,12.0,58.0,29.0,55.57877292636101,{}
315,320,45.09988913511872,113.6001760562016,10.198039027185567,18.24828759089466,31.575306807693888,34.713109915419565,19.235384061671343,92.65527507918802,74.43117626371358,51.5,27.0,46.0,17.5,55.5,32.5,6.5,11.40175425099138,11.40175425099138,11.5,56.0,29.0,53.46026561849464,{}
316,321,42.1070065428546,112.44998888394788,10.198039027185567,18.110770276274835,30.26549190084312,33.54101966249684,18.110770276274835,88.45903006477066,70.34912934784623,49.0,27.0,45.0,18.0,52.0,30.0,7.0,12.36931687685298,12.16552506059644,12.0,57.0,31.0,50.635955604688654,{}
317,322,34.132096331752024,112.78741064498288,10.198039027185567,18.24828759089466,30.59411708155671,34.713109915419565,18.24828759089466,80.75270893288967,62.51399843235114,45.0,26.0,46.0,18.0,44.0,21.0,6.0,11.40175425099138,12.36931687685298,12.0,54.0,30.0,53.60037313302959,{}
318,323,33.06055050963308,116.55899793666724,11.04536101718726,18.110770276274835,33.37663853655727,36.6742416417845,15.297058540778355,77.41446893184762,59.30430001273095,42.5,25.0,44.0,19.5,42.5,20.5,6.5,12.36931687685298,12.16552506059644,12.0,55.0,31.0,51.62363799656123,{}
319,324,30.14962686336267,114.75626344561763,11.04536101718726,16.1245154965971,32.55764119219941,35.6931365951495,16.1245154965971,73.43704787094863,57.3149195236284,42.0,24.0,44.0,18.0,39.0,18.0,5.0,12.36931687685298,12.16552506059644,12.0,55.0,32.0,51.62363799656123,{}
320,325,26.019223662515376,115.974135047432,11.04536101718726,15.132745950421556,32.38826948140329,34.52535300326414,15.297058540778355,67.36467917239716,52.23983154643591,39.0,24.0,39.0,16.5,35.5,16.5,3.5,11.180339887498947,11.180339887498947,11.5,52.0,33.0,60.29925372672534,{}
321,326,21.095023109728988,115.73245007343446,10.04987562112089,16.1245154965971,32.2490309931942,33.37663853655727,18.027756377319943,65.27633568147036,49.16299421312742,38.5,27.0,40.0,15.5,31.5,12.5,4.5,11.180339887498947,12.041594578792296,12.0,50.0,34.0,57.21887800367987,{}
322,327,22.02271554554524,114.5294721894762,11.04536101718726,16.1245154965971,32.2490309931942,34.36568055487916,15.132745950421556,64.28063471995279,48.16637831516918,37.0,26.0,37.0,16.5,32.5,13.5,4.5,12.041594578792296,12.041594578792296,12.0,48.0,34.0,61.20457499239743,{}
323,328,22.02271554554524,114.21471008587292,11.04536101718726,15.0,31.064449134018133,34.132096331752024,18.24828759089466,66.18912297349165,51.24451190127583,40.0,32.0,39.0,17.5,30.5,13.5,6.5,12.16552506059644,13.038404810405298,13.0,35.0,24.0,58.137767414994535,{}
324,329,23.0,114.03946685248928,9.0,15.033296378372908,32.01562118716424,34.132096331752024,19.1049731745428,66.06814663663572,51.03920062069938,39.5,32.0,35.0,14.5,32.5,15.5,5.5,11.180339887498947,12.0,12.0,32.0,24.0,58.137767414994535,{}
325,330,24.0,115.03912377969506,11.0,16.0,32.01562118716424,35.05709628591621,15.033296378372908,66.007575322837,50.00999900019995,38.0,30.0,33.0,16.5,34.5,16.5,5.5,10.198039027185567,10.0,10.5,45.0,39.0,58.034472514187634,{}
326,331,28.0178514522438,115.0,10.0,17.0,34.0,35.0142828000232,18.027756377319943,73.0,56.0,42.0,35.0,35.0,17.0,38.0,19.0,8.0,11.04536101718726,11.0,11.0,39.0,34.0,65.03076195155643,{}
327,332,31.016124838541646,116.03878661895772,10.0,18.110770276274835,33.0,36.0,18.027756377319943,77.02596964660685,59.0,43.5,36.0,33.0,16.5,42.5,23.5,7.5,7.0,8.0,8.0,34.0,32.0,64.0,{}
328,333,36.013886210738214,115.1086443322134,10.04987562112089,19.1049731745428,33.015148038438355,36.0,16.1245154965971,81.2219182240853,62.12889826803627,44.0,34.0,29.0,15.5,49.5,28.5,7.5,5.0990195135927845,5.0990195135927845,5.5,31.0,34.0,61.00819617067857,{}
329,334,37.01351104664349,113.35784048754634,9.055385138137416,18.110770276274835,33.015148038438355,36.0,19.026297590440446,83.15046602394962,65.06919393998976,46.5,42.0,33.0,18.5,45.5,27.5,11.5,4.123105625617661,3.1622776601683795,3.0,22.0,32.0,51.03920062069938,{}
330,335,37.05401462729781,114.73883387938018,10.198039027185567,19.235384061671343,36.12478373637688,38.05259518088089,13.341664064126334,79.63039620647382,60.40695324215582,41.5,35.0,22.0,15.5,50.5,30.5,8.5,3.1622776601683795,2.8284271247461903,2.5,24.0,38.0,58.215118311311535,{}
331,336,42.1070065428546,115.26057435220424,13.152946437965904,21.37755832643195,31.14482300479488,34.132096331752024,16.15549442140351,92.22797840135064,70.8590149522275,49.0,49.0,32.0,25.5,50.5,30.5,14.5,5.0,3.605551275463989,3.0,30.0,51.0,51.24451190127583,{}
332,337,44.04543109109048,112.78741064498288,12.36931687685298,19.6468827043885,32.2490309931942,36.22154055254967,18.97366596101028,94.36630754670864,74.81310045707235,52.0,54.0,34.0,26.0,49.0,31.0,17.0,4.242640687119285,3.605551275463989,3.0,24.0,52.0,51.62363799656123,{}
333,338,41.04875150354759,111.6288493177279,11.40175425099138,18.68154169226941,32.2490309931942,35.22782990761707,18.43908891458577,89.10667763978185,70.57619995437555,49.5,53.0,34.0,25.5,44.5,26.5,17.5,5.830951894845301,5.830951894845301,5.0,24.0,52.0,47.51841748206689,{}
334,339,44.181444068749045,111.19802156513396,12.16552506059644,19.92485884517128,31.400636936215164,35.35533905932738,16.55294535724685,91.98369420718,72.18032973047436,49.0,53.0,31.0,27.0,48.0,30.0,18.0,9.486832980505138,8.94427190999916,7.5,24.0,55.0,47.67598976424087,{}
335,340,43.28972164382672,111.08555261599052,12.36931687685298,19.6468827043885,30.59411708155671,34.52535300326414,15.652475842498529,90.24411338142782,70.61161377563892,47.5,55.0,29.0,28.0,46.0,29.0,19.0,10.44030650891055,10.770329614269007,9.5,20.0,56.0,46.32493928760188,{}
336,341,42.42640687119285,109.63576058932595,11.40175425099138,17.72004514666935,29.8328677803526,32.7566787083184,17.46424919657298,88.52683209061533,70.83078426785913,48.0,54.0,26.0,24.0,46.0,31.0,17.0,12.36931687685298,12.083045973594572,11.0,18.0,56.0,47.80167361086848,{}
337,342,38.3275357934736,111.1260545506768,11.704699910719626,18.97366596101028,31.78049716414141,35.90264614203248,13.038404810405298,81.04319835741924,62.0966987850401,41.0,51.0,21.0,25.0,42.0,27.0,18.0,12.649110640673518,12.083045973594572,11.0,19.0,59.0,46.17358552246078,{}
338,343,33.37663853655727,106.90182411914212,11.704699910719626,18.97366596101028,29.120439557122072,32.28002478313795,16.1245154965971,79.40403012442127,60.440052945046304,41.5,54.0,22.0,24.0,38.0,23.0,18.0,10.770329614269007,11.704699910719626,10.5,14.0,57.0,43.68065933568311,{}
339,344,32.55764119219941,107.5174404457249,11.40175425099138,17.08800749063506,29.120439557122072,32.01562118716424,17.88854381999832,78.44743462982075,61.40032573203501,43.0,55.0,21.0,22.0,37.0,24.0,16.0,7.810249675906654,8.06225774829855,6.5,8.0,53.0,45.880278987817846,{}
340,345,34.52535300326414,107.5174404457249,10.770329614269007,16.15549442140351,29.410882339705484,32.28002478313795,17.0,77.79460135510689,61.68468205316454,42.0,52.0,18.0,20.0,39.0,26.0,16.0,9.848857801796104,11.180339887498947,9.5,11.0,56.0,46.48655719667784,{}
341,346,34.36568055487916,103.12128781197411,9.848857801796104,16.55294535724685,28.46049894151541,30.364452901377952,17.88854381999832,77.79460135510689,61.40032573203501,42.0,54.0,19.0,20.5,37.5,25.5,16.5,8.06225774829855,8.94427190999916,7.5,8.0,57.0,48.104053883222775,{}
342,347,26.68332812825267,103.81714694596457,10.770329614269007,18.384776310850235,27.85677655436824,29.73213749463701,17.0,72.44998274671983,54.08326913195984,38.0,53.0,16.0,19.5,33.5,20.5,14.5,8.602325267042627,8.06225774829855,7.5,10.0,60.0,46.238512086787566,{}
343,348,22.80350850198276,102.31813133555558,10.44030650891055,16.15549442140351,26.570660511172846,30.083217912982647,17.46424919657298,66.73080248281148,50.59644256269407,37.0,53.0,15.0,18.0,29.0,18.0,13.0,7.810249675906654,7.211102550927978,6.5,7.0,61.0,45.31004303683677,{}
344,349,21.587033144922906,102.15674231297707,10.770329614269007,15.652475842498529,26.0,27.85677655436824,17.46424919657298,65.19202405202648,49.64876634922564,36.5,53.0,13.0,17.0,28.0,18.0,12.0,7.810249675906654,7.810249675906654,6.5,6.0,62.0,47.92702786528704,{}
345,350,19.6468827043885,100.72239075796404,9.486832980505138,17.46424919657298,25.079872407968907,26.92582403567252,17.46424919657298,63.90618123468183,46.48655719667784,34.5,52.0,11.0,15.5,28.5,16.5,11.5,7.071067811865476,7.071067811865476,5.5,6.0,63.0,47.4236228055175,{}
346,351,20.615528128088304,99.92497185388645,8.94427190999916,16.55294535724685,26.0,27.85677655436824,17.08800749063506,62.96824596572466,46.48655719667784,34.0,51.0,12.0,15.5,27.5,15.5,12.5,7.810249675906654,7.211102550927978,6.0,5.0,60.0,42.5440947723653,{}
347,352,19.4164878389476,99.0050503762308,11.180339887498947,16.55294535724685,26.570660511172846,27.85677655436824,18.027756377319943,64.8459713474939,48.38388161361178,36.5,56.0,17.0,19.5,24.5,13.5,14.5,7.071067811865476,6.4031242374328485,5.0,2.0,55.0,41.14608122288197,{}
348,353,25.495097567963924,98.79271228182776,9.848857801796104,17.46424919657298,24.698178070456937,27.85677655436824,17.46424919657298,69.8927750200262,52.49761899362675,37.5,55.0,19.0,21.0,29.0,17.0,17.0,6.4031242374328485,6.4031242374328485,5.0,4.0,55.0,42.5440947723653,{}
349,354,24.33105012119288,95.85927185202274,10.770329614269007,15.231546211727816,25.29822128134704,27.51363298439521,17.08800749063506,67.05221845696084,51.92301994298868,38.0,54.0,21.0,21.5,26.5,15.5,15.5,7.071067811865476,6.708203932499369,6.0,8.0,54.0,41.43669871020132,{}
350,355,16.492422502470642,97.40636529508735,10.44030650891055,15.231546211727816,24.04163056034261,26.248809496813376,15.652475842498529,57.584720195551874,42.37924020083418,32.0,51.0,19.0,21.0,19.0,9.0,14.0,7.211102550927978,6.708203932499369,6.5,12.0,51.0,42.05948168962618,{}
351,356,12.36931687685298,99.45853407325085,11.40175425099138,13.0,25.70992026436488,26.92582403567252,17.08800749063506,53.75872022286245,40.80441152620633,33.0,49.0,23.0,20.0,15.0,6.0,12.0,7.211102550927978,7.615773105863909,6.5,16.0,50.0,43.41658669218482,{}
352,357,11.40175425099138,99.68951800465284,9.219544457292889,12.649110640673518,25.495097567963924,27.65863337187866,17.08800749063506,50.28916384272063,37.64306044943742,30.5,46.0,23.0,18.5,13.5,4.5,11.5,5.0,6.324555320336759,5.5,17.0,46.0,46.09772228646444,{}
353,358,13.152946437965904,99.04039579888602,10.198039027185567,12.649110640673518,25.317977802344327,26.476404589747453,17.46424919657298,53.36665625650534,40.79215610874228,33.5,46.0,26.0,19.0,16.0,7.0,11.0,6.708203932499369,6.324555320336759,6.0,21.0,44.0,46.69047011971501,{}
354,359,14.0356688476182,99.82484660644364,11.180339887498947,15.524174696260024,24.186773244895647,27.459060435491963,16.492422502470642,57.0701322935211,41.593268686170845,34.0,43.0,24.0,17.5,22.5,10.5,8.5,6.324555320336759,7.615773105863909,6.5,24.0,44.0,41.43669871020132,{}
355,360,15.033296378372908,101.11874208078342,10.04987562112089,16.1245154965971,25.179356624028344,28.284271247461906,16.278820596099706,57.42821606144492,41.30375285612676,33.5,40.0,25.0,16.5,24.5,10.5,8.5,6.324555320336759,7.071067811865476,6.5,27.0,43.0,43.28972164382672,{}
356,361,16.0312195418814,103.9471019317037,10.04987562112089,14.142135623730953,26.1725046566048,29.27456233660889,16.1245154965971,56.32051136131489,42.190046219457976,34.0,38.0,24.0,15.0,25.0,12.0,7.0,6.082762530298219,7.280109889280518,6.5,31.0,42.0,39.20459156782532,{}
357,362,16.1245154965971,104.80935072788114,9.055385138137416,13.152946437965904,25.179356624028344,28.284271247461906,16.0312195418814,54.3323108288245,41.19465984809196,33.0,37.0,24.0,14.5,23.5,11.5,7.5,6.0,6.082762530298219,6.0,30.0,40.0,40.049968789001575,{}
358,363,19.026297590440446,105.47511554864494,9.055385138137416,13.152946437965904,27.073972741361768,29.154759474226505,15.0,56.1426753904728,43.04648650006177,33.5,36.0,26.0,16.0,25.0,13.0,8.0,6.082762530298219,6.0,5.5,29.0,37.0,36.05551275463989,{}
359,364,18.027756377319943,105.30432089900204,9.055385138137416,12.041594578792296,27.018512172212592,29.068883707497267,16.0312195418814,55.03635162326805,43.01162633521314,34.0,34.0,26.0,14.0,25.0,14.0,7.0,6.0,6.0,6.0,30.0,37.0,39.05124837953327,{}
360,365,18.027756377319943,107.298648640139,7.0,13.152946437965904,28.0178514522438,29.068883707497267,17.0,55.08175741568164,42.01190307520001,33.0,34.0,26.0,13.0,25.0,13.0,7.0,6.0,6.082762530298219,6.0,34.0,36.0,39.01281840626232,{}
361,366,17.0,106.23088063270492,9.055385138137416,13.038404810405298,27.018512172212592,29.068883707497267,17.029386365926403,56.00892785976178,43.0,34.5,36.0,29.0,15.5,23.5,11.5,7.5,7.0,7.0,6.5,36.0,35.0,36.013886210738214,{}
362,367,17.029386365926403,102.12247548899312,10.0,14.0,26.0,29.017236257093817,16.0312195418814,57.0350769263968,43.04648650006177,34.5,34.0,29.0,15.5,25.5,11.5,6.5,6.082762530298219,7.0,7.0,35.0,34.0,41.04875150354759,{}
363,368,18.0,103.12128781197411,9.055385138137416,16.0,27.018512172212592,29.017236257093817,15.0,58.00862004909271,42.01190307520001,33.0,34.0,29.0,16.5,26.5,10.5,8.5,6.082762530298219,6.0,6.0,37.0,35.0,40.049968789001575,{}
364,369,18.027756377319943,103.07764064044152,10.0,15.0,27.0,29.017236257093817,16.0,59.00847396772772,44.01136216933077,35.0,35.0,31.0,17.0,26.0,11.0,8.0,6.0,7.071067811865476,7.0,36.0,35.0,41.01219330881976,{}
365,370,18.0,104.0768946500615,9.0,14.0,28.0,31.064449134018133,17.11724276862369,58.034472514187634,44.04543109109048,35.0,35.0,31.0,16.0,25.0,11.0,8.0,6.0,7.0,7.0,37.0,36.0,37.01351104664349,{}
366,371,18.0,102.04410811016967,8.0,16.0,27.0,29.017236257093817,16.0312195418814,58.00862004909271,42.01190307520001,33.0,34.0,31.0,16.5,25.5,10.5,8.5,7.0,7.0,6.5,36.0,35.0,39.01281840626232,{}
367,372,17.0,103.07764064044152,8.0,13.038404810405298,27.018512172212592,29.017236257093817,16.1245154965971,54.00925846556311,41.04875150354759,32.5,34.0,30.0,16.0,22.0,10.0,9.0,6.0,6.082762530298219,6.0,36.0,35.0,41.0,{}
368,373,25.0,105.04284840006956,8.0,13.0,27.0,30.066592756745816,17.11724276862369,63.0317380372777,50.039984012787215,37.5,36.0,33.0,17.5,28.5,15.5,9.5,5.0,7.0,6.5,34.0,34.0,38.0,{}
369,374,18.0,104.12012293500234,9.0,16.0312195418814,27.018512172212592,29.068883707497267,15.033296378372908,58.0,42.01190307520001,33.0,34.0,29.0,16.5,26.5,11.5,8.5,7.071067811865476,7.071067811865476,6.5,34.0,34.0,42.01190307520001,{}
370,375,24.020824298928627,106.1178590059185,9.055385138137416,15.0,27.0,31.016124838541646,15.033296378372908,63.00793600809346,48.010415536631214,36.0,31.0,26.0,13.5,34.5,19.5,5.5,6.0,6.0,6.0,36.0,35.0,42.04759208325728,{}
371,376,18.027756377319943,108.07404868885035,10.0,15.0,28.0178514522438,31.016124838541646,15.0,58.00862004909271,43.01162633521314,34.0,34.0,30.0,17.0,26.0,11.0,7.0,6.0,6.0,6.5,35.0,34.0,43.04648650006177,{}
372,377,21.0,107.00467279516349,9.0,13.0,29.017236257093817,32.01562118716424,15.0,58.0,45.0,34.5,33.0,32.0,17.5,25.5,12.5,8.5,7.071067811865476,6.0,6.0,38.0,35.0,44.01136216933077,{}
373,378,19.0,109.00458705944445,9.0,14.0356688476182,30.01666203960727,32.0,16.0312195418814,58.0,44.01136216933077,34.5,34.0,33.0,17.5,24.5,9.5,8.5,3.0,4.123105625617661,3.5,36.0,35.0,45.0111097397076,{}
374,379,19.026297590440446,109.01834707974616,9.0,14.0356688476182,30.0,31.0,16.0,58.0,44.01136216933077,34.5,33.0,31.0,16.0,26.0,11.0,7.0,2.0,2.23606797749979,2.5,33.0,34.0,47.0,{}
375,380,17.0,110.0,10.0,14.0,29.017236257093817,31.016124838541646,15.033296378372908,56.00892785976178,42.01190307520001,33.5,32.0,32.0,17.0,24.0,9.0,7.0,3.0,2.8284271247461903,2.0,36.0,34.0,49.01020301937138,{}
376,381,16.0,110.01818031580054,10.04987562112089,13.038404810405298,30.01666203960727,32.01562118716424,16.0312195418814,55.08175741568164,42.04759208325728,34.0,33.0,35.0,18.0,21.0,8.0,8.0,3.1622776601683795,3.1622776601683795,2.5,35.0,32.0,46.01086828130936,{}
377,382,17.0,108.04165863221463,9.055385138137416,13.038404810405298,29.068883707497267,30.066592756745816,18.110770276274835,57.14017850864661,44.10215414239989,35.5,35.0,38.0,18.5,20.5,6.5,8.5,3.1622776601683795,3.605551275463989,3.0,35.0,32.0,46.04345773288535,{}
378,383,17.029386365926403,107.1167587261676,9.055385138137416,11.04536101718726,29.068883707497267,30.14962686336267,17.11724276862369,54.230987451824994,43.18564576337837,34.5,33.0,38.0,18.5,18.5,6.5,8.5,5.0990195135927845,6.324555320336759,5.5,35.0,30.0,47.042533945356304,{}
379,384,19.026297590440446,109.16501271011695,9.055385138137416,11.180339887498947,29.154759474226505,31.14482300479488,18.24828759089466,57.42821606144492,46.2709412050371,36.5,34.0,40.0,19.0,20.0,7.0,9.0,9.055385138137416,9.055385138137416,8.5,41.0,32.0,47.09564735726647,{}
380,385,19.1049731745428,107.46627377926528,9.055385138137416,12.36931687685298,29.27456233660889,31.25699921617557,17.11724276862369,57.55866572463264,45.27692569068709,35.5,32.0,42.0,20.0,20.0,6.0,10.0,9.0,9.219544457292889,9.0,37.0,30.0,49.25444142409901,{}
381,386,17.11724276862369,105.57461816175324,10.04987562112089,12.16552506059644,28.284271247461906,29.27456233660889,17.46424919657298,56.71860364994893,44.553338819890925,35.5,32.0,43.0,20.5,18.5,3.5,9.5,9.055385138137416,9.219544457292889,8.5,41.0,29.0,45.27692569068709,{}
382,387,18.110770276274835,101.71037311896951,9.219544457292889,13.152946437965904,26.30589287593181,28.284271247461906,18.43908891458577,58.85575587824864,45.70557952810576,36.0,32.0,44.0,20.0,20.0,4.0,9.0,11.180339887498947,11.180339887498947,10.5,44.0,30.0,44.28317965096906,{}
383,388,18.110770276274835,99.72462083156798,10.04987562112089,14.317821063276352,27.16615541441225,28.284271247461906,18.24828759089466,60.67124524847005,46.389654018972806,37.0,32.0,44.0,20.0,22.0,5.0,9.0,10.04987562112089,11.180339887498947,10.0,43.0,29.0,47.265209192385896,{}
384,389,19.1049731745428,99.98499887483122,9.055385138137416,15.297058540778355,25.317977802344327,27.459060435491963,18.43908891458577,61.814237842102365,46.52956049652737,36.5,30.0,44.0,19.0,24.0,6.0,8.0,10.198039027185567,9.486832980505138,8.5,42.0,26.0,46.389654018972806,{}
385,390,23.08679276123039,102.77159140540736,10.198039027185567,15.524174696260024,28.635642126552707,30.59411708155671,13.601470508735444,62.16912416947821,46.69047011971501,34.5,18.0,37.0,14.5,33.5,13.5,3.5,10.04987562112089,10.44030650891055,9.5,47.0,29.0,51.47815070493501,{}
386,391,32.0624390837628,98.84331034521254,10.04987562112089,16.278820596099706,28.442925306655784,30.59411708155671,13.341664064126334,71.56814934033156,55.326304774492215,39.0,28.0,47.0,24.5,33.5,12.5,12.5,9.219544457292889,9.486832980505138,8.5,45.0,25.0,45.70557952810576,{}
387,392,37.01351104664349,100.0199980003999,9.219544457292889,16.492422502470642,29.42787793912432,31.575306807693888,15.297058540778355,77.64663547121665,61.29437168288782,42.5,30.0,50.0,25.0,37.0,16.0,14.0,6.324555320336759,6.708203932499369,5.0,46.0,25.0,45.70557952810576,{}
388,393,35.12833614050059,99.24716620639605,9.219544457292889,16.278820596099706,28.442925306655784,31.78049716414141,13.152946437965904,73.68174807915459,57.42821606144492,39.5,24.0,45.0,21.5,38.5,17.5,10.5,6.324555320336759,7.211102550927978,5.0,49.0,25.0,48.66210024238576,{}
389,394,37.12142238654117,104.5609869884557,9.219544457292889,16.492422502470642,28.635642126552707,31.78049716414141,17.46424919657298,80.06247560499239,63.63961030678928,44.5,27.0,50.0,21.5,40.5,19.5,11.5,6.324555320336759,7.211102550927978,5.5,50.0,22.0,43.73785545725808,{}
390,395,39.11521443121589,106.23088063270492,10.198039027185567,17.72004514666935,29.8328677803526,32.984845004941285,14.866068747318506,81.39410298049853,63.788713735268246,43.5,24.0,50.0,23.0,43.0,21.0,10.0,8.246211251235321,8.94427190999916,7.5,51.0,22.0,50.00999900019995,{}
391,396,40.049968789001575,107.93516572461452,10.198039027185567,17.72004514666935,31.04834939252005,33.95585369269929,13.92838827718412,81.21576201698781,63.63961030678928,43.0,22.0,47.0,21.5,45.5,22.5,9.5,7.615773105863909,9.848857801796104,8.5,52.0,21.0,45.89117562233506,{}
392,397,41.10960958218893,111.32385189167684,9.219544457292889,16.76305461424021,32.01562118716424,35.4400902933387,12.083045973594572,78.44743462982075,61.814237842102365,40.5,19.0,46.0,21.5,44.5,22.5,9.5,9.486832980505138,9.848857801796104,9.0,51.0,20.0,48.27007354458868,{}
393,398,27.16615541441225,104.12012293500234,8.246211251235321,15.811388300841896,30.80584360149873,33.24154027718932,18.027756377319943,68.8839603971781,53.150729063673246,38.5,15.0,44.0,12.5,37.5,16.5,2.5,8.06225774829855,8.06225774829855,7.5,53.0,22.0,50.00999900019995,{}
394,399,38.11823710509184,114.0175425099138,9.486832980505138,17.72004514666935,33.24154027718932,36.40054944640259,14.866068747318506,79.62411694957753,61.98386886924694,42.0,20.0,50.0,21.0,43.0,20.0,9.0,8.06225774829855,8.54400374531753,8.0,51.0,20.0,48.27007354458868,{}
395,400,36.22154055254967,114.0175425099138,9.219544457292889,17.46424919657298,33.95585369269929,36.40054944640259,12.083045973594572,74.52516353554684,57.0701322935211,38.0,15.0,45.0,19.0,43.0,20.0,7.0,7.615773105863909,8.54400374531753,8.0,53.0,21.0,49.24428900898052,{}
396,401,34.058772731852805,116.29703349613008,9.219544457292889,16.278820596099706,33.734255586866,35.90264614203248,16.278820596099706,75.66372975210778,59.4138031100518,42.0,23.0,46.0,18.5,40.5,19.5,7.5,8.06225774829855,8.06225774829855,7.5,54.0,19.0,44.64302857109943,{}
397,402,32.14031735997639,115.31695452100702,11.180339887498947,15.297058540778355,32.55764119219941,34.92849839314596,14.560219778561036,72.99315036357864,57.706152185014034,41.0,22.0,45.0,19.5,38.5,18.5,7.5,8.54400374531753,8.54400374531753,8.0,53.0,21.0,44.14748010928823,{}
398,403,32.14031735997639,115.31695452100702,11.180339887498947,15.297058540778355,32.55764119219941,34.92849839314596,14.560219778561036,72.99315036357864,57.706152185014034,41.0,22.0,45.0,19.5,38.5,18.5,7.5,8.54400374531753,8.54400374531753,8.0,53.0,21.0,44.14748010928823,{}
399,404,32.0624390837628,116.90166808048548,8.246211251235321,15.297058540778355,33.54101966249684,36.6742416417845,13.92838827718412,69.05070600652827,53.75872022286245,37.0,20.0,41.0,17.5,37.5,18.5,7.5,7.615773105863909,8.54400374531753,7.5,50.0,21.0,43.93176527297759,{}
400,405,23.194827009486403,113.1591799192624,10.198039027185567,15.524174696260024,31.78049716414141,33.95585369269929,17.46424919657298,66.2872536767062,50.80354318352215,38.5,23.0,45.0,17.0,31.0,11.0,6.0,8.06225774829855,8.246211251235321,8.0,53.0,25.0,48.27007354458868,{}
401,406,24.186773244895647,117.71151175649727,9.219544457292889,13.341664064126334,32.7566787083184,33.734255586866,17.72004514666935,64.32728814430156,50.99019513592785,38.0,23.0,43.0,16.0,30.0,12.0,5.0,7.615773105863909,7.615773105863909,7.5,53.0,25.0,47.07440918375928,{}
402,407,23.194827009486403,117.38824472663352,9.055385138137416,13.341664064126334,32.55764119219941,34.713109915419565,14.866068747318506,60.20797289396148,46.87216658103186,34.5,22.0,40.0,17.0,28.0,11.0,6.0,7.280109889280518,8.246211251235321,8.0,53.0,26.0,46.87216658103186,{}
403,408,21.213203435596427,118.0889495253472,9.055385138137416,13.152946437965904,33.37663853655727,35.510561809129406,16.492422502470642,59.84145720150872,46.69047011971501,35.5,24.0,40.0,16.0,27.0,10.0,6.0,7.615773105863909,8.246211251235321,8.0,51.0,27.0,45.89117562233506,{}
404,409,20.223748416156685,119.94165248152952,9.055385138137416,14.0356688476182,33.37663853655727,34.52535300326414,16.278820596099706,59.53990258641679,45.5411901469428,35.0,24.0,39.0,15.5,27.5,10.5,5.5,6.324555320336759,7.280109889280518,7.0,50.0,29.0,47.67598976424087,{}
405,410,19.1049731745428,120.41594578792296,10.04987562112089,15.033296378372908,33.24154027718932,35.35533905932738,18.110770276274835,62.28964600958975,47.265209192385896,37.5,30.0,40.0,17.0,27.0,10.0,6.0,6.324555320336759,7.280109889280518,6.5,49.0,30.0,49.49747468305833,{}
406,411,27.018512172212592,119.15116449284078,10.0,16.0312195418814,33.13608305156178,35.12833614050059,18.027756377319943,71.06335201775947,55.03635162326805,41.5,32.0,38.0,17.0,36.0,18.0,7.0,7.280109889280518,7.071067811865476,6.5,48.0,33.0,48.373546489791295,{}
407,412,39.01281840626232,123.00406497347964,10.04987562112089,17.0,33.015148038438355,36.013886210738214,15.0,81.02468759581859,64.03124237432849,44.5,36.0,35.0,20.5,45.5,27.5,11.5,8.06225774829855,8.0,8.0,45.0,37.0,48.16637831516918,{}
408,413,42.0,122.2620137246234,10.0,18.110770276274835,34.0147027033899,37.05401462729781,16.0312195418814,86.05230967266364,68.00735254367721,47.0,43.0,35.0,23.0,47.0,29.0,15.0,9.055385138137416,9.0,9.0,42.0,41.0,49.01020301937138,{}
409,414,41.01219330881976,122.6906679417795,10.0,17.11724276862369,33.13608305156178,36.22154055254967,15.132745950421556,83.15046602394962,66.06814663663572,45.5,45.0,32.0,23.5,44.5,28.5,15.5,9.0,8.06225774829855,7.5,37.0,40.0,48.010415536631214,{}
410,415,39.0,125.02799686470227,11.04536101718726,17.26267650163207,33.13608305156178,36.22154055254967,16.0,83.09632964216891,66.007575322837,46.5,46.0,30.0,22.0,45.0,28.0,13.0,7.071067811865476,8.246211251235321,7.5,36.0,44.0,47.09564735726647,{}
411,416,41.0,122.64175471673585,11.04536101718726,17.26267650163207,33.24154027718932,36.345563690772494,17.11724276862369,86.20904824900923,69.06518659932803,48.5,52.0,32.0,25.0,44.0,29.0,16.0,7.280109889280518,8.246211251235321,7.0,31.0,45.0,51.24451190127583,{}
412,417,40.01249804748511,121.2023102090055,12.041594578792296,17.26267650163207,34.23448553724738,37.48332962798263,17.11724276862369,86.28441342444185,69.1158447825099,49.0,56.0,33.0,27.5,41.5,26.5,17.5,6.324555320336759,6.708203932499369,6.0,31.0,49.0,53.33854141237835,{}
413,418,43.04648650006177,130.41855696180662,9.055385138137416,16.278820596099706,35.510561809129406,39.6232255123179,11.04536101718726,79.30952023559341,63.12685640834652,41.5,37.0,12.0,13.5,54.5,39.5,9.5,7.280109889280518,8.06225774829855,7.0,24.0,42.0,59.21148537234985,{}
414,419,40.01249804748511,125.63439019631528,12.16552506059644,15.524174696260024,33.734255586866,37.10795063055895,18.43908891458577,85.70880934886448,70.34912934784623,50.0,58.0,28.0,25.0,42.0,30.0,17.0,6.324555320336759,6.708203932499369,6.0,26.0,52.0,48.507731342539614,{}
415,420,36.05551275463989,125.686116973992,12.041594578792296,19.6468827043885,33.734255586866,37.10795063055895,19.6468827043885,86.97700845625813,67.47592163134935,49.0,63.0,29.0,27.0,40.0,24.0,19.0,7.615773105863909,8.06225774829855,7.0,27.0,54.0,48.66210024238576,{}
416,421,39.05124837953327,126.9212354178764,11.180339887498947,17.72004514666935,32.984845004941285,37.36308338453881,20.615528128088304,88.11923740024082,70.57619995437555,50.5,61.0,26.0,23.5,43.5,31.5,17.5,8.54400374531753,8.06225774829855,7.0,23.0,48.0,59.21148537234985,{}
417,422,35.0142828000232,123.0812739615576,12.16552506059644,17.46424919657298,33.95585369269929,36.40054944640259,19.92485884517128,84.01190391843289,66.61080993352356,48.5,65.0,30.0,28.5,35.5,23.5,20.5,7.615773105863909,9.848857801796104,8.5,24.0,57.0,49.8196748283246,{}
418,423,38.01315561749642,124.91997438360288,11.180339887498947,16.492422502470642,32.984845004941285,36.68787265568828,19.92485884517128,85.0,68.59300255857006,49.0,62.0,24.0,24.0,41.0,30.0,17.0,7.615773105863909,8.06225774829855,7.0,24.0,59.0,56.88585061331157,{}
419,424,38.01315561749642,124.27791436936812,10.198039027185567,17.08800749063506,33.24154027718932,37.64306044943742,20.8806130178211,85.32877591996736,68.59300255857006,49.0,63.0,24.0,23.5,40.5,29.5,18.5,8.94427190999916,9.433981132056603,8.0,22.0,60.0,46.57252408878007,{}
420,425,33.015148038438355,126.8108828137396,10.198039027185567,18.027756377319943,32.57299494980466,36.40054944640259,22.80350850198276,83.3606621854697,65.62011886609167,48.5,66.0,25.0,23.5,36.5,25.5,18.5,9.848857801796104,9.433981132056603,7.5,21.0,60.0,50.21951811795888,{}
421,426,33.06055050963308,127.13772060250254,11.40175425099138,18.027756377319943,33.24154027718932,36.68787265568828,22.56102834535696,84.52810183601665,66.75327707311455,49.5,67.0,25.0,24.0,37.0,25.0,18.0,9.848857801796104,8.94427190999916,8.0,19.0,60.0,51.66236541235796,{}
422,427,35.12833614050059,125.86500705120544,11.40175425099138,19.92485884517128,31.6227766016838,36.40054944640259,20.615528128088304,86.68333173107735,66.91038783328041,48.5,65.0,24.0,24.5,40.5,26.5,18.5,8.94427190999916,9.433981132056603,7.5,19.0,60.0,52.392747589718944,{}
423,428,34.0147027033899,124.59534501738015,10.44030650891055,16.15549442140351,33.24154027718932,37.0,21.587033144922906,81.39410298049853,65.62011886609167,48.0,66.0,26.0,25.0,34.0,24.0,20.0,9.848857801796104,9.433981132056603,8.5,20.0,60.0,51.419840528729765,{}
424,429,35.12833614050059,128.08200498118384,12.36931687685298,19.92485884517128,34.48187929913333,37.94733192202055,21.54065922853801,88.29496021857646,68.4470598345904,49.5,65.0,23.0,24.0,42.0,28.0,18.0,8.94427190999916,8.602325267042627,7.0,18.0,59.0,56.753854494650845,{}
425,430,26.1725046566048,124.91997438360288,10.44030650891055,18.027756377319943,30.364452901377952,33.52610922848042,21.840329667841555,76.15773105863909,58.2494635168428,44.0,61.0,23.0,21.0,32.0,20.0,16.0,8.94427190999916,10.295630140987,8.5,18.0,61.0,55.78530272392541,{}
426,431,26.30589287593181,125.86500705120544,11.40175425099138,18.027756377319943,33.52610922848042,36.05551275463989,19.4164878389476,74.95331880577403,57.0701322935211,43.0,60.0,19.0,20.5,33.5,21.5,14.5,9.848857801796104,9.433981132056603,7.5,18.0,60.0,53.60037313302959,{}
427,432,24.515301344262525,125.22779244241272,11.40175425099138,18.027756377319943,32.57299494980466,34.785054261852174,19.6468827043885,73.49829930005184,55.54277630799526,42.0,57.0,18.0,18.5,33.5,21.5,13.5,8.94427190999916,8.602325267042627,7.5,20.0,60.0,53.85164807134504,{}
428,433,20.39607805437113,126.17844506887856,11.40175425099138,18.97366596101028,32.28002478313795,35.73513677041127,20.39607805437113,71.06335201775947,52.172789842982326,41.0,56.0,17.0,16.5,32.5,18.5,10.5,8.06225774829855,7.211102550927978,6.0,19.0,60.0,52.88667128870941,{}
429,434,20.615528128088304,128.08200498118384,11.40175425099138,18.027756377319943,33.24154027718932,34.785054261852174,19.235384061671343,69.12307863514182,51.19570294468082,40.0,55.0,16.0,16.5,31.5,19.5,10.5,7.615773105863909,8.602325267042627,7.0,20.0,60.0,52.88667128870941,{}
430,435,18.43908891458577,127.7810627597063,11.40175425099138,18.384776310850235,32.57299494980466,35.4400902933387,20.39607805437113,68.41052550594829,50.21951811795888,40.0,54.0,16.0,15.0,31.0,19.0,10.0,7.211102550927978,7.810249675906654,6.0,21.0,60.0,50.44799302251776,{}
431,436,20.39607805437113,127.7810627597063,10.44030650891055,17.08800749063506,32.28002478313795,35.4400902933387,20.615528128088304,68.41052550594829,51.419840528729765,40.0,53.0,15.0,14.0,32.0,20.0,9.0,8.94427190999916,8.06225774829855,7.5,20.0,59.0,51.419840528729765,{}
432,437,18.24828759089466,128.4445405612866,10.44030650891055,17.46424919657298,34.92849839314596,38.3275357934736,20.615528128088304,66.48308055437865,49.24428900898052,39.0,51.0,14.0,12.5,31.5,20.5,7.5,8.54400374531753,9.848857801796104,8.5,21.0,59.0,55.78530272392541,{}
433,438,18.43908891458577,125.2836781069266,10.44030650891055,17.08800749063506,32.01562118716424,35.4400902933387,20.39607805437113,66.21933252457322,49.24428900898052,39.0,50.0,14.0,12.0,32.0,20.0,7.0,8.06225774829855,7.211102550927978,6.5,21.0,58.0,56.753854494650845,{}
434,439,16.278820596099706,120.3328716519306,11.40175425099138,17.08800749063506,31.78049716414141,35.17101079013795,20.39607805437113,65.0,48.05205510693585,39.0,48.0,16.0,12.0,31.0,19.0,6.0,8.06225774829855,8.06225774829855,7.0,20.0,57.0,53.60037313302959,{}
435,440,18.24828759089466,116.91449867317569,10.44030650891055,15.811388300841896,30.80584360149873,32.984845004941285,21.37755832643195,65.73431371817918,50.00999900019995,40.0,48.0,18.0,12.0,31.0,19.0,6.0,7.615773105863909,8.06225774829855,7.0,25.0,54.0,66.61080993352356,{}
436,441,18.110770276274835,115.95257651298655,11.180339887498947,14.866068747318506,30.4138126514911,32.55764119219941,22.36067977499789,66.2872536767062,51.62363799656123,42.0,47.0,21.0,12.0,31.0,19.0,5.0,7.615773105863909,6.708203932499369,6.0,24.0,54.0,55.90169943749474,{}
437,442,18.110770276274835,122.18428704215611,11.180339887498947,16.492422502470642,32.2490309931942,35.510561809129406,20.223748416156685,65.92419889539804,49.49747468305833,40.0,46.0,23.0,14.5,30.5,16.5,6.5,8.246211251235321,8.246211251235321,8.5,27.0,52.0,53.60037313302959,{}
438,443,19.026297590440446,121.19818480488888,10.198039027185567,16.278820596099706,31.14482300479488,33.37663853655727,20.09975124224178,65.49045732013177,49.25444142409901,39.5,43.0,26.0,14.5,30.5,15.5,6.5,7.071067811865476,7.280109889280518,7.0,32.0,48.0,55.326304774492215,{}
439,444,17.029386365926403,116.52038448271615,11.0,15.033296378372908,31.016124838541646,33.13608305156178,19.1049731745428,62.12889826803627,47.09564735726647,38.5,41.0,30.0,16.5,26.5,12.5,6.5,8.0,8.06225774829855,8.0,33.0,44.0,55.14526271584895,{}
440,445,18.0,118.06777714516352,10.04987562112089,15.0,32.01562118716424,34.0,20.024984394500787,63.0317380372777,48.04164859785725,39.0,38.0,34.0,16.0,27.0,11.0,8.0,8.06225774829855,8.0,8.0,38.0,40.0,55.0,{}
441,446,19.026297590440446,116.0172400981854,10.0,16.0,31.016124838541646,33.015148038438355,18.027756377319943,63.0317380372777,47.042533945356304,37.5,34.0,36.0,17.0,28.0,11.0,7.0,8.06225774829855,8.06225774829855,8.0,41.0,36.0,53.009433122794285,{}
442,447,22.02271554554524,117.27318534089538,10.0,15.132745950421556,32.14031735997639,34.23448553724738,18.110770276274835,65.19202405202648,50.08991914547278,39.0,32.0,40.0,18.0,29.0,11.0,7.0,8.246211251235321,8.246211251235321,8.0,43.0,33.0,53.03772242470448,{}
443,448,27.073972741361768,115.84903970253704,10.04987562112089,15.132745950421556,32.2490309931942,35.35533905932738,16.492422502470642,68.59300255857006,53.46026561849464,39.5,28.0,42.0,19.0,33.0,14.0,8.0,7.615773105863909,9.219544457292889,8.5,47.0,30.0,52.23983154643591,{}
444,449,31.064449134018133,114.58621208504974,9.055385138137416,14.317821063276352,32.55764119219941,35.6931365951495,16.492422502470642,70.71067811865476,56.43580423808985,40.5,25.0,44.0,18.5,35.5,16.5,7.5,7.280109889280518,8.54400374531753,8.0,48.0,26.0,50.48762224545735,{}
445,450,33.13608305156178,115.52056094046635,9.219544457292889,15.524174696260024,32.7566787083184,36.1386219991853,13.601470508735444,71.19691004531025,55.731499172371095,38.5,21.0,45.0,20.0,37.0,17.0,9.0,8.54400374531753,9.848857801796104,9.0,50.0,24.0,51.62363799656123,{}
446,451,32.14031735997639,116.70903992407786,7.280109889280518,15.811388300841896,32.01562118716424,34.92849839314596,15.811388300841896,70.61161377563892,54.91812087098393,38.0,15.0,40.0,12.5,41.5,21.5,3.5,8.06225774829855,8.94427190999916,8.0,53.0,24.0,51.419840528729765,{}
447,452,33.13608305156178,119.3314711214104,8.246211251235321,14.866068747318506,33.734255586866,37.10795063055895,12.529964086141668,67.91170738539859,53.150729063673246,35.5,10.0,38.0,13.0,42.0,22.0,4.0,7.615773105863909,7.211102550927978,6.5,53.0,21.0,49.47726750741192,{}
448,453,32.2490309931942,117.38824472663352,9.219544457292889,15.811388300841896,33.95585369269929,37.10795063055895,11.6619037896906,68.15423684555495,52.392747589718944,35.0,11.0,39.0,15.0,41.0,20.0,4.0,8.94427190999916,9.848857801796104,8.5,53.0,21.0,48.76474136094644,{}
449,454,31.25699921617557,118.84864324004712,9.219544457292889,16.76305461424021,32.01562118716424,35.4400902933387,14.317821063276352,71.06335201775947,54.3415126767741,37.5,15.0,45.0,17.0,39.0,17.0,5.0,8.94427190999916,9.433981132056603,7.5,53.0,18.0,49.04079934095692,{}
450,455,29.27456233660889,112.7918436767482,10.44030650891055,15.811388300841896,32.984845004941285,34.48187929913333,15.231546211727816,70.3420215802759,54.57105459856901,38.5,18.0,47.0,18.5,35.5,14.5,6.5,7.211102550927978,7.211102550927978,6.0,54.0,20.0,47.80167361086848,{}
