,video_id,frame_seq,time_seconds,m1,m3,m4,m5,m6,m7,m8,m9,m10,m11,m12,m13,m14,m15,m16,m17,e1,e2,e3,b1,b2,b3,label_measures
0,271,0,0.0,12.329202886049378,138.78033731740956,10.335245834416598,18.687172738492915,36.98760865814789,38.98836285423723,52.85530625837092,94.02758259338248,75.43259075392763,68.91488793745896,72.96870487495653,56.75343712496624,12.16145081249283,28.37671856248312,10.134542343743988,6.080725406246415,16.215267749990346,12.329202886049266,13.174905046867138,30.403627031231903,50.67271171871983,42.997221692901526,"{'others': ['m1', 'm3', 'm12', 'e1', 'e2']}"
1,271,1,0.0333666666666666,12.329202886049378,137.02261050254833,10.335245834416598,20.370178006321904,38.98836285423725,40.99168693455282,52.85530625837092,95.80225278923024,75.43259075392763,68.91488793745896,74.99561334370537,56.75343712496624,13.174905046867252,29.390172796857428,9.121088109369566,7.094179640620837,14.332407230967144,10.915236153188893,12.161450812492774,28.37671856248312,48.64580324997104,40.991686934553066,"{'others': ['m1', 'm3', 'm12', 'e1', 'e2']}"
2,271,2,0.0667333333333332,6.37374327027374,142.007228921235,12.260139971420609,22.534585439763088,38.769966742161046,41.10940885314347,52.44316582493647,93.26160818500983,70.80307934107996,67.52107895003701,72.55996543884567,56.4355286746578,12.093327573140868,28.21776433732896,6.046663786570548,6.046663786570434,14.25212322346369,12.747486540547246,12.093327573140924,28.2177643373289,52.40441948361081,43.08763592591135,"{'others': ['m1', 'm3', 'm12', 'e1', 'e2']}"
3,271,3,0.1000999999999998,2.0371606082685503,141.50569823942553,12.391564216175803,24.78312843235165,39.18556669535451,41.19902362492902,53.122649348835054,92.23636948057244,67.5035231049585,66.20771976872959,71.30062128940108,55.00333642325222,10.18580304134298,28.5202485157605,6.111481824805878,4.074321216537214,14.26012425788025,12.884134963405725,13.241543953745976,28.520248515760443,48.891854598446514,41.199023624928806,"{'others': ['m1', 'm3', 'm12', 'e1', 'e2']}"
4,271,4,0.1334666666666664,4.555229601173401,146.06597828000136,12.391564216175803,24.78312843235153,41.19902362492904,43.54951972357168,53.122649348835054,94.50317579866064,69.74114538082156,67.22630007286398,73.33778189766974,52.96617581498367,10.18580304134298,30.55740912402905,6.111481824805878,4.074321216537214,14.404900804728376,12.39156421617584,12.222963649611644,28.520248515760443,52.96617581498373,47.55799325471298,"{'others': ['m1', 'm3', 'm12', 'e1', 'e2']}"
5,271,5,0.166833333333333,6.369782088306812,146.15839424524378,12.25252048577343,28.486531502628697,40.736736069152336,42.72979725394323,52.71932742265541,99.70286025920068,71.21632875657198,67.47911565327661,72.51487055277482,54.3861529145812,11.078660778896165,35.250284296487735,7.05005685929757,5.035754899498215,12.252520485773484,10.270964999284796,11.078660778896108,28.20022743719022,52.37185095478185,42.72979725394301,"{'others': ['m1', 'm3', 'm12', 'e1', 'e2']}"
6,271,6,0.2001999999999996,14.214637490121806,149.6255186206347,14.214637490121806,28.42927498024361,40.65485724018986,44.63486710072274,50.416896579547135,107.2239795461365,78.81116005559885,71.36399258575295,72.3691192418903,56.28709274369248,14.07177318592312,42.21531955776936,14.07177318592312,6.030759936824211,12.227893524312632,12.7139582813717,13.066646529785714,28.14354637184624,52.26658611914303,41.00128346621357,"{'others': ['m1', 'm3', 'm12', 'e1', 'e2']}"
7,271,7,0.2335666666666662,10.32253106936861,144.8836277589093,10.122074490842124,22.63364663483942,38.94039806643863,41.29012427747477,50.97346467597857,93.9119067168868,71.31574369512286,65.79348419047346,74.90335123223133,56.6836171487156,15.183111736263072,27.3296011252736,7.085452143589464,9.109867041757866,12.31403508835628,10.901807864655312,11.134281939926268,28.3418085743578,48.58595755604193,45.26729326967884,"{'others': ['m1', 'm3', 'm12', 'e1', 'e2']}"
8,271,8,0.2669333333333328,14.769099333570663,147.41011335841347,10.650148987921993,25.15086988281209,42.240656885534975,44.30729800071212,50.171480402127706,100.60347953124835,75.45260964843627,67.88164689010591,77.28064415181302,58.48264962839903,17.75366149433546,32.374323901435105,7.310331203549822,11.487663319864057,12.704859636863723,12.704859636863723,12.531996348942585,31.32999087235657,56.39398357024186,44.65058048269217,"{'others': ['m1', 'm3', 'm12', 'e1', 'e2']}"
9,271,9,0.3002999999999994,16.72004520165831,143.3597629120944,10.65697959392609,23.36697353611064,42.2677484581381,42.26774845813812,48.25152731613621,98.78455427031584,75.50100212154399,66.88018080663323,77.33020905766955,58.52015820580402,19.85505367696919,30.30508192800562,7.3150197757255455,13.585036726347312,12.71300805719246,13.218356354552448,12.54003390124376,31.35008475310929,54.340146905389474,44.67921768987862,"{'others': ['m1', 'm3', 'm12', 'e1', 'e2']}"
10,271,10,0.333666666666666,18.191675746474647,132.11704033575813,8.283049198405523,24.43974318175758,36.65961477263623,38.64262694196216,50.38382130067769,101.16735715194328,76.76128001947515,67.2993062371562,80.35738058167897,60.2680354362592,20.089345145419657,30.134017718129712,8.035738058167908,16.071476116335702,14.205312181923288,12.21987159087879,12.053607087251862,28.12508320358762,46.205493834465415,40.37908400424749,"{'others': ['m1', 'm3', 'm12', 'e1', 'e2']}"
11,271,11,0.3670333333333326,16.098376854627237,131.31624857304325,8.232843732468684,22.32443200042376,36.16282363294376,38.40840509392386,49.95886670873188,96.36296530039527,74.12249342740928,65.89301071586505,79.8703160192303,59.90273701442271,19.96757900480748,25.957852706249923,3.993515800961518,15.974063203845958,12.145804139121312,12.145804139121312,11.980547402884554,27.95461060673057,49.91894751201892,42.68580848129128,"{'others': ['m1', 'm3', 'm12', 'e1', 'e2']}"
12,271,12,0.4003999999999992,14.071950894605902,128.91013064215778,8.205286873307182,24.21029974745018,36.315449621175325,38.64025500602587,47.80322703386756,94.06128189895806,69.90800177999148,62.687342983229314,79.60297521679911,59.7022314125993,21.89081818461977,23.880892565039744,1.9900743804199688,17.910669423779837,12.105149873725107,12.105149873725072,11.940446282519872,25.870966945459717,43.78163636923949,36.31544962117511,"{'others': ['m1', 'm3', 'm12', 'e1', 'e2']}"
13,271,13,0.4337666666666658,16.02783864096587,130.45336797979195,7.95203484748356,22.2266130980252,36.27775470742353,38.24011109078478,49.85900483965188,95.94073195992937,73.79771110148205,65.6042874917386,79.52034847483463,61.62827006799688,20.87409147464416,24.85010889838577,4.970021779677154,16.898074050902437,14.057344412218194,10.13689521502198,10.93404791528974,27.83212196619212,45.72420037302987,39.95848057601384,"{'others': ['m1', 'm3', 'm12', 'e1', 'e2']}"
14,271,14,0.4671333333333324,16.107410455219345,131.1010168236657,7.99151352293029,22.06728798362465,34.48872817619091,38.42995796190108,52.09829417989641,98.2216832704875,76.15560182390092,67.92786494490724,81.91301361003525,63.9321081834421,20.977722997692013,24.973479759157044,2.996817571098859,16.981966236226867,10.187220849140488,10.187220849140488,10.988331094029093,27.97029733025596,43.95332437611648,34.48872817619068,"{'others': ['m1', 'm3', 'm12', 'e1', 'e2']}"
15,271,15,0.5004999999999991,4.042157218088732,124.34151296248716,14.29118389766345,26.58313869167907,34.889226212301296,36.88122370164695,56.7343801431029,101.55794320701918,75.02531272273885,72.75882992559701,82.86422297081884,66.69559409846391,18.189707481399296,26.274021917576647,0.0,8.084314436177465,12.293741233882278,10.305519266022152,11.115932349743955,32.337257744709746,46.48480800802025,40.62317728280756,"{'others': ['m1', 'm3', 'm12', 'e1', 'e2']}"
16,271,16,0.5338666666666656,2.0614996654555853,128.6250245074158,12.539612921256149,22.770008041768627,35.28719024104138,35.287190241041365,59.92549403817548,95.3875298145031,72.62215956928199,72.15248829094861,82.45998661822699,68.02948896003721,15.461247490917572,19.584246821828856,3.092249498183492,7.2152488290948895,12.539612921256092,12.539612921256092,12.368997992734023,30.922494981835143,47.41449230548051,43.4873830834862,"{'others': ['m1', 'm3', 'm12', 'e1', 'e2']}"
17,271,17,0.5672333333333321,2.915400785715128,132.9627332074788,12.36899799273408,19.00608781436296,35.58700183298389,37.61883876376826,58.05235766482152,87.46202357145033,68.52742416065709,69.060238792765,82.45998661822699,65.96798929458151,16.491997323645478,12.368997992733966,6.184498996367097,10.30749832727838,14.577003928575088,12.53961292125611,13.399747825461873,30.922494981835086,47.41449230548051,43.48738308348597,"{'others': ['m1', 'm3', 'm12', 'e1', 'e2']}"
18,271,18,0.6005999999999987,2.915400785715128,132.962733207479,10.30749832727838,21.023254042846947,37.33534686568512,35.28719024104114,60.10252690255856,89.50327894116626,68.52742416065709,69.06023879276512,82.45998661822699,65.96798929458163,14.43049765818978,14.430497658189664,6.184498996367097,10.30749832727838,14.577003928575088,12.53961292125611,12.368997992734023,30.922494981835086,47.41449230548051,43.48738308348597,"{'others': ['m1', 'm3', 'm12', 'e1', 'e2']}"
19,271,19,0.6339666666666652,2.0520377072575684,136.19409973486262,12.48205807646518,20.926760623868745,37.44617422939552,37.4461742293955,59.65044547566843,90.87075444104784,70.04034870050151,70.79530090038475,77.97743287578612,63.61316892498337,11.2862073899164,19.49435821894656,1.0260188536287842,5.130094268143807,14.51009778052294,12.48205807646518,13.338245097173967,32.83260331612047,49.24890497418068,39.20412535030547,"{'others': ['m1', 'm3', 'm12', 'e1', 'e2']}"
20,271,20,0.6673333333333318,12.604224144886851,148.0516080978835,12.60422414488674,21.13157781463613,39.58782920992655,41.90606764892739,62.30163885100318,108.46522890932812,87.42290967047019,80.81274572237572,80.81274572237572,64.23577224086279,10.360608425945657,35.226068648215005,14.504851796323806,2.072121685189245,14.652112950409256,12.604224144886796,12.432730111134674,33.15394696302593,49.73092044453893,39.58782920992655,"{'others': ['m1', 'm3', 'm12', 'e1', 'e2']}"
21,271,21,0.7006999999999983,12.165372994384407,146.8722598501234,13.999825003281217,22.360400271741387,38.83249027480062,40.446991248082576,56.31980736812268,104.6887100257226,82.3882898489973,75.99905001781207,77.99902501828086,61.99922501453096,13.999825003281217,33.99957500796859,13.999825003281217,5.999925001406268,10.197911554087897,10.770194987673014,9.999875002343742,31.99960000749985,45.99942501078101,36.49611898315332,"{'others': ['m1', 'm3', 'm12', 'e1', 'e2']}"
22,271,22,0.7340666666666649,16.801384491125408,155.61439720246787,14.735789003402411,25.35241001475533,42.14538701188841,46.271316046450856,58.49941201612212,115.29754418799207,89.9969539080028,81.27425537743153,83.3582106435195,62.518657982639695,14.58768686261601,41.67910532175972,16.671642128703866,4.167910532176052,12.676205007377666,12.676205007377725,12.503731596527928,31.25932899131982,47.930971120023685,46.03607651522077,"{'others': ['m1', 'm3', 'm12', 'e1', 'e2']}"
23,271,23,0.7674333333333314,14.48666934348148,158.82570118786649,14.48666934348148,24.92380834574458,43.46000803044433,45.48906444696591,57.51043520438429,111.31193231150604,86.43577822035402,78.8758903977893,79.9002526107476,61.461732777498185,13.316708768458057,39.95012630537372,15.365433194374418,5.121811064791586,12.461904172872272,10.446485825722975,11.267984342541354,30.730866388749064,49.169386221998536,49.33981788111334,"{'others': ['m1', 'm3', 'm12', 'e1', 'e2']}"
24,271,24,0.800799999999998,12.676205007377666,161.55694352718407,14.7357890034023,25.09414443457077,44.20736701020703,46.271316046450856,54.54232890584397,107.0147046257396,81.9394674496506,75.02238957916762,79.19030011134356,60.434702716551726,15.62966449565988,36.4692171565398,13.545709229572026,5.2098881652199225,14.7357890034023,12.676205007377725,12.503731596527928,31.25932899131982,47.930971120023685,43.96108449776759,"{'others': ['m1', 'm3', 'm12', 'e1', 'e2']}"
25,271,25,0.8341666666666645,13.180090365480575,161.3282902019289,12.503731596527928,25.09414443457077,41.88698244832841,46.271316046450856,56.42094806828349,106.79127043477231,81.7006150525983,75.02238957916762,77.10634484525559,60.434702716551726,12.50373159652804,37.51119478958367,12.503731596527814,4.167910532176052,14.735789003402358,12.676205007377666,12.503731596527984,31.25932899131982,52.098881652199736,50.70482002951068,"{'others': ['m1', 'm3', 'm12', 'e1', 'e2']}"
26,271,26,0.867533333333331,10.463380311934428,158.85740933546788,12.48205807646518,22.665497297540615,43.53029334156874,43.53029334156897,55.55681295053681,101.07197105215845,78.40825070061088,72.84733860764226,75.92539516852861,59.5090935104684,12.312226243545297,32.83260331612041,10.260188536287616,6.156113121772705,14.364263950802696,12.48205807646518,12.312226243545185,30.7805656088629,51.30094268143819,53.70696644872643,"{'others': ['m1', 'm3', 'm12', 'e1', 'e2']}"
27,271,27,0.9008999999999976,12.978225998967282,155.0069677109724,10.260188536287728,20.62272372778819,41.49989433204313,41.49989433204336,53.51059662687918,96.989991504191,76.36779014433594,69.76928204675602,73.87335746127104,55.40501809595327,11.286207389916513,31.806584462491628,11.2862073899164,5.130094268143921,12.48205807646518,10.463380311934316,10.260188536287616,32.83260331612047,53.35298038869576,49.63217071541344,"{'others': ['m1', 'm3', 'm12', 'e1', 'e2']}"
28,271,28,0.934266666666664,12.971570716797176,156.9640456971044,10.254927073755423,22.653874346911344,41.47861303313294,43.507970846556056,53.483156195523534,98.97996963261843,76.32862845982217,69.73350410153722,75.88646034579045,57.42759161303064,13.331405195882098,31.79027392864191,11.280419781130943,9.229434366379904,12.475657231036058,10.45801465191002,11.28041978113106,30.76478122126645,49.22364995402626,43.50797084655606,"{'others': ['m1', 'm3', 'm12', 'e1', 'e2']}"
29,271,29,0.9676333333333308,10.399396852473297,154.05910174996967,10.39939685247334,20.79879370494675,41.246122919032224,43.26410606018247,51.1501369007496,92.5892302549014,71.84678985521447,66.28340935044605,73.42162266510957,55.06621699883215,13.25668187008921,27.53310849941613,9.17770283313871,9.17770283313871,12.236937110851557,12.405730423917293,11.217192351613903,30.592342777128977,46.90825892493109,40.993231982512455,"{'others': ['m1', 'm3', 'm12', 'e1', 'e2']}"
30,271,30,1.0009999999999972,14.569073180556469,155.89589086142314,14.569073180556437,26.864043577938613,43.70721954166924,45.74781774398002,53.72808715587736,109.68490048559256,82.82617408019043,75.203800223494,80.3547454442812,59.75096456113215,16.483024706519245,39.14718367798309,12.362268529889434,8.241512353259623,12.362268529889375,12.532790633849404,12.362268529889434,32.966049413038434,55.6302083845024,43.70721954166924,"{'others': ['m1', 'm3', 'm12', 'e1', 'e2']}"
31,271,31,1.0343666666666638,10.296018823034046,151.7257330274062,16.601831506526874,27.084596820731225,43.68230837395023,43.68230837395044,55.75082659187449,109.6223849794388,82.59948614834691,77.22014117275563,82.36815058427266,61.77611293820456,16.473630116854565,37.06566776292266,10.296018823034046,6.177611293820519,12.525647501599432,12.525647501599336,12.355222587640924,30.888056469102253,51.48009411517046,41.389483425684666,"{'others': ['m1', 'm3', 'm12', 'e1', 'e2']}"
32,271,32,1.0677333333333303,4.590731488048811,144.89558756601645,12.488139789644032,22.676540753096983,39.49096547385108,41.52011459161355,57.63150993882857,97.03724855955276,74.3641823206804,71.85631371608258,78.01542632031817,59.53808850761118,11.291706441098654,27.71600671906037,5.132593836863066,3.079556302117794,12.488139789644032,10.468478451804245,11.291706441098713,32.84860055592344,49.27290083388516,43.30887424059139,"{'others': ['m1', 'm3', 'm12', 'e1', 'e2']}"
33,271,33,1.1010999999999969,2.040577309971468,141.74302992459835,12.243463859828353,20.809887045077552,41.01509632098781,39.25128826483198,59.31730451971592,92.39106722967676,71.68208566535345,71.42020584899865,77.54193777891282,61.21731929914165,10.202886549856998,22.44635040968524,2.0405773099713542,2.040577309971468,14.429060534161724,12.412347201270732,13.26375251481403,30.608659649570825,46.93327812934194,36.95642689187052,"{'others': ['m1', 'm3', 'm12', 'e1', 'e2']}"
34,271,34,1.1344666666666634,2.945599145057709,146.99985898747963,12.49711878076539,23.287005930567155,39.79285317759939,40.06447990205778,58.46847358539079,96.3755747228597,73.16716488641467,71.85843298940068,79.14841894484715,60.40274077369912,11.45569221570156,26.035664126594497,5.207132825318922,3.1242796951912624,12.497118780765334,12.669500976054293,12.49711878076539,39.5742094724236,58.31988764357163,46.011729536074746,"{'others': ['m1', 'm3', 'm12', 'e1', 'e2']}"
35,271,35,1.16783333333333,6.4922747316118485,148.7283646413608,14.517167628488602,26.768334468964703,37.18209116034031,41.26554373936391,57.5217006743722,105.02646562944638,78.25817153507127,74.93587001820032,78.01542632031811,61.59112604235639,12.31822520847129,34.90163809066871,10.265187673726132,2.053037534745158,12.31822520847129,10.468478451804287,11.291706441098713,34.901638090668655,53.37897590337559,51.9787587320589,"{'others': ['m1', 'm3', 'm12', 'e1', 'e2']}"
36,271,36,1.2011999999999965,5.833823937029957,153.7547434650237,16.50054586448914,26.89259957173366,41.71286103658537,43.75367952772479,55.84191611909608,103.64277101169796,76.7596898554551,74.25245639020113,78.37759285632342,59.814478758773134,13.40669351489737,34.03237584550902,7.218988815714056,3.093852349591657,12.546112764247798,10.517075668495334,11.344125281836284,39.18879642816171,55.68934229265085,47.48388663007126,"{'others': ['m1', 'm3', 'm12', 'e1', 'e2']}"
37,271,37,1.234566666666663,6.489112999483569,150.69559134086296,16.544056905137783,26.9903420522446,43.53029334156897,43.53029334156874,55.44300577137681,105.15567071142516,78.22005987383153,74.89937631489988,77.97743287578612,61.56113121772592,14.364263950802638,34.88464102337798,8.20815082903016,4.104075414515023,12.48205807646518,12.482058076465142,12.312226243545185,30.78056560886296,49.24890497418068,43.287782856633,"{'others': ['m1', 'm3', 'm12', 'e1', 'e2']}"
38,271,38,1.2679333333333296,18.92807082407447,152.80999862464097,14.371262743216562,24.72184564844509,41.520114591613776,45.58483100443453,55.58388225268445,113.38270376548512,88.6617517144264,79.04194508769069,78.01542632031817,61.59112604235645,14.371262743216562,43.11378822964946,18.47733781270688,6.159112604235702,14.371262743216503,10.468478451804287,11.291706441098654,34.901638090668655,51.325938368630375,49.65635331614209,"{'others': ['m1', 'm3', 'm12', 'e1', 'e2']}"
