,frame_seq,m1,m3,m4,m5,m6,m7,m8,m9,m10,m11,m12,m13,m14,m15,m16,m17,e1,e2,e3,b1,b2,b3
0,0,18.0,86.05230967266364,9.0,14.035668847618199,23.021728866442675,24.020824298928627,14.142135623730951,55.08175741568164,41.048751503547585,32.0,25.0,22.0,9.5,31.5,16.5,1.5,10.04987562112089,9.219544457292887,9.0,32.0,36.0,31.064449134018133
1,1,18.0,86.05230967266364,9.0,14.035668847618199,23.021728866442675,24.020824298928627,14.142135623730951,55.08175741568164,41.048751503547585,32.0,25.0,22.0,9.5,31.5,16.5,1.5,10.04987562112089,9.219544457292887,9.0,32.0,36.0,31.064449134018133
2,2,17.0,85.05292469985967,9.0,14.0,23.021728866442675,24.020824298928627,15.132745950421556,55.036351623268054,41.048751503547585,32.5,26.0,23.0,9.5,30.5,16.5,1.5,10.0,9.219544457292887,9.0,31.0,35.0,32.01562118716424
3,3,18.0,86.05230967266364,8.06225774829855,14.0,23.021728866442675,24.020824298928627,15.033296378372908,55.036351623268054,41.048751503547585,32.0,26.0,23.0,9.5,30.5,15.5,2.5,9.055385138137417,9.219544457292887,9.0,32.0,36.0,32.01562118716424
4,4,18.027756377319946,86.02325267042627,8.0,13.0,22.02271554554524,25.019992006393608,16.0312195418814,55.036351623268054,42.04759208325728,33.0,26.0,24.0,9.0,30.0,16.0,2.0,9.055385138137417,9.055385138137417,9.0,32.0,35.0,33.015148038438355
5,5,18.0,87.00574693662483,8.0,14.0,23.0,24.0,15.033296378372908,55.00909015790027,41.012193308819754,32.0,26.0,25.0,10.5,29.5,14.5,2.5,10.0,9.055385138137417,9.0,33.0,34.0,32.0
6,6,18.027756377319946,87.0,8.0,13.0,23.0,25.0,15.0,54.00925846556311,41.012193308819754,32.0,25.0,25.0,10.0,29.0,15.0,2.0,9.055385138137417,9.055385138137417,9.0,34.0,34.0,32.0
7,7,16.0,87.00574693662483,9.0,14.035668847618199,23.0,25.0,15.0,54.00925846556311,40.0,32.0,25.0,26.0,10.5,28.5,13.5,2.5,9.055385138137417,8.06225774829855,8.5,33.0,32.0,34.0147027033899
8,8,18.027756377319946,88.02272433866155,8.0,13.0,24.0,26.0,15.0,54.00925846556311,41.012193308819754,32.0,25.0,27.0,11.0,28.0,14.0,3.0,9.055385138137417,8.06225774829855,8.0,34.0,33.0,33.015148038438355
9,9,21.0,89.02246907382428,8.06225774829855,14.035668847618199,23.0,25.019992006393608,16.0,59.033888572581766,45.0111097397076,34.5,27.0,29.0,12.0,31.0,16.0,5.0,8.06225774829855,8.06225774829855,8.5,34.0,33.0,34.0
10,10,23.021728866442675,89.08984229416954,9.0,14.035668847618199,23.021728866442675,25.019992006393608,15.033296378372908,61.07372593840988,47.042533945356304,35.5,27.0,31.0,14.0,32.0,17.0,5.0,9.055385138137417,8.0,8.0,35.0,32.0,33.06055050963308
11,11,23.0,90.0499861188218,9.055385138137417,15.033296378372908,24.020824298928627,26.019223662515376,15.0,62.03224967708329,47.01063709417264,35.5,27.0,30.0,13.5,33.5,17.5,4.5,10.04987562112089,8.0,8.5,36.0,33.0,34.058772731852805
12,12,24.020824298928627,89.08984229416954,9.055385138137417,15.033296378372908,24.020824298928627,26.019223662515376,15.033296378372908,63.12685640834652,48.093658625644196,36.0,27.0,31.0,14.0,34.0,18.0,5.0,8.06225774829855,8.0,8.5,37.0,32.0,33.06055050963308
13,13,26.019223662515376,88.20430828479978,9.055385138137417,14.035668847618199,23.08679276123039,25.079872407968907,15.033296378372908,64.1248781675256,50.08991914547278,37.0,27.0,33.0,15.0,34.0,18.0,5.0,9.219544457292887,8.0,8.0,37.0,31.0,32.14031735997639
14,14,23.021728866442675,87.28115489611719,8.0,15.033296378372908,22.090722034374522,24.08318915758459,16.0312195418814,62.07253821135398,47.042533945356304,35.5,27.0,34.0,14.5,31.5,14.5,5.5,9.055385138137417,9.0,9.0,39.0,32.0,31.25699921617557
15,15,19.0,87.36704184073076,8.06225774829855,15.033296378372908,22.090722034374522,24.08318915758459,15.132745950421556,57.14017850864661,42.1070065428546,32.5,25.0,33.0,14.0,28.0,11.0,5.0,10.198039027185569,9.0,9.5,39.0,30.0,33.13608305156178
16,16,18.027756377319946,87.46427842267951,9.055385138137417,14.142135623730951,23.08679276123039,25.317977802344327,14.035668847618199,55.226805085936306,41.10960958218893,32.0,23.0,32.0,13.5,27.5,10.5,3.5,10.198039027185569,9.0,9.5,41.0,31.0,33.24154027718932
17,17,18.027756377319946,85.70880934886448,8.06225774829855,15.132745950421556,22.20360331117452,24.186773244895647,15.132745950421556,56.32051136131489,41.19465984809196,32.0,21.0,32.0,11.5,29.5,11.5,2.5,11.180339887498949,10.0,10.0,42.0,30.0,34.23448553724738
18,18,15.033296378372908,85.84287972802403,9.055385138137417,15.132745950421556,22.20360331117452,24.331050121192877,15.297058540778355,54.45181356024793,39.319206502675,31.5,20.0,32.0,11.0,28.0,10.0,2.0,11.180339887498949,10.04987562112089,10.0,42.0,29.0,34.36568055487916
19,19,15.132745950421556,88.11923740024082,8.06225774829855,14.142135623730951,23.345235059857504,24.331050121192877,16.278820596099706,53.600373133029585,39.45883931389772,31.5,17.0,31.0,8.0,29.0,12.0,1.0,10.198039027185569,9.055385138137417,9.5,43.0,28.0,32.38826948140329
20,20,15.132745950421556,87.13208364316786,9.055385138137417,15.297058540778355,23.345235059857504,25.495097567963924,14.317821063276353,53.75872022286245,38.47076812334269,30.5,16.0,30.0,9.0,30.0,12.0,1.0,10.44030650891055,10.04987562112089,10.0,44.0,28.0,33.37663853655727
21,21,17.11724276862369,85.32877591996736,8.06225774829855,16.278820596099706,21.37755832643195,25.317977802344327,16.278820596099706,57.706152185014034,41.43669871020132,32.5,17.0,32.0,8.5,32.5,13.5,0.5,10.44030650891055,10.04987562112089,9.5,45.0,27.0,34.52535300326414
22,22,26.1725046566048,86.49277426467485,7.280109889280518,15.132745950421556,22.360679774997898,24.331050121192877,15.297058540778355,63.788713735268246,48.662100242385755,35.0,16.0,32.0,9.0,39.0,21.0,0.0,10.44030650891055,10.04987562112089,10.0,44.0,27.0,33.54101966249684
23,23,25.179356624028344,84.34453153583817,8.06225774829855,16.1245154965971,22.561028345356956,24.515301344262525,14.560219778561036,63.788713735268246,47.67598976424087,34.5,16.0,31.0,9.5,39.5,19.5,0.5,11.180339887498949,10.04987562112089,10.0,44.0,27.0,33.54101966249684
24,24,24.186773244895647,85.32877591996736,8.06225774829855,16.1245154965971,21.37755832643195,24.515301344262525,15.524174696260024,63.788713735268246,47.67598976424087,35.0,17.0,32.0,9.5,38.5,19.5,0.5,11.40175425099138,11.0,11.0,45.0,28.0,33.37663853655727
25,25,22.20360331117452,83.3606621854697,7.0710678118654755,16.1245154965971,22.360679774997898,24.331050121192877,15.297058540778355,60.67124524847005,44.553338819890925,33.0,16.0,31.0,8.5,36.5,16.5,0.5,10.44030650891055,9.0,9.5,45.0,28.0,32.55764119219941
26,26,12.165525060596439,78.08969202141856,8.06225774829855,17.11724276862369,19.235384061671343,21.37755832643195,17.11724276862369,54.45181356024793,37.33630940518894,31.0,17.0,30.0,6.5,30.5,10.5,2.5,11.40175425099138,10.0,10.5,44.0,28.0,33.37663853655727
27,27,2.23606797749979,72.83543093852057,9.055385138137417,16.1245154965971,18.24828759089466,19.235384061671343,20.09975124224178,47.38143096192854,31.25699921617557,30.0,18.0,29.0,3.5,23.5,4.5,6.5,6.324555320336759,6.082762530298219,6.0,44.0,29.0,34.36568055487916
28,28,2.23606797749979,69.72087205421343,9.055385138137417,17.11724276862369,17.26267650163207,19.235384061671343,19.1049731745428,47.38143096192854,30.265491900843113,29.0,19.0,29.0,5.0,23.0,3.0,5.0,3.1622776601683795,3.1622776601683795,3.0,44.0,30.0,33.24154027718932
29,29,6.0,67.36467917239716,8.246211251235321,17.11724276862369,16.1245154965971,18.24828759089466,18.0,49.16299421312742,32.0624390837628,29.0,22.0,29.0,7.5,23.5,4.5,1.5,3.1622776601683795,4.47213595499958,4.0,45.0,32.0,35.22782990761707
30,30,6.082762530298219,63.387695966961914,9.055385138137417,18.110770276274835,15.132745950421556,17.11724276862369,18.027756377319946,51.24451190127583,33.13608305156178,30.0,24.0,31.0,9.5,23.5,4.5,0.5,8.06225774829855,7.0710678118654755,6.5,44.0,32.0,35.22782990761707
31,31,3.0,64.38167441127949,11.045361017187261,18.110770276274835,15.033296378372908,17.11724276862369,18.027756377319946,50.15974481593781,32.0624390837628,30.5,26.0,33.0,11.5,20.5,1.5,0.5,10.198039027185569,9.055385138137417,9.0,43.0,34.0,34.058772731852805
32,32,3.0,67.1863081289633,11.0,18.027756377319946,16.0312195418814,18.110770276274835,19.026297590440446,51.03920062069938,33.015148038438355,31.5,27.0,32.0,10.5,21.5,2.5,0.5,10.04987562112089,10.0,10.0,42.0,35.0,37.05401462729781
33,33,9.0,66.06814663663572,9.055385138137417,18.0,16.0312195418814,18.110770276274835,15.0,51.0098029794274,33.015148038438355,28.5,27.0,30.0,13.5,22.5,3.5,3.5,10.198039027185569,10.0,10.0,41.0,39.0,36.0
34,34,10.04987562112089,67.02984409947557,8.0,18.0,18.027756377319946,20.09975124224178,15.033296378372908,51.0,33.0,28.0,27.0,29.0,13.0,23.0,3.0,5.0,11.045361017187261,10.04987562112089,10.0,41.0,37.0,38.01315561749642
35,35,11.0,67.00746227100382,9.0,17.0,17.0,20.024984394500787,14.035668847618199,51.0098029794274,34.0147027033899,28.5,28.0,29.0,14.5,22.5,3.5,5.5,11.045361017187261,10.04987562112089,10.0,39.0,35.0,37.05401462729781
36,36,9.0,66.007575322837,9.0,19.0,17.029386365926403,19.0,16.0312195418814,53.009433122794285,34.0147027033899,29.5,29.0,28.0,12.5,24.5,4.5,3.5,11.180339887498949,11.045361017187261,11.0,36.0,32.0,36.124783736376884
37,37,13.038404810405298,65.03076195155643,9.0,18.0,17.0,19.0,16.0,56.00892785976178,38.01315561749642,31.5,31.0,29.0,14.0,26.0,7.0,5.0,12.041594578792296,10.04987562112089,10.5,38.0,37.0,37.013511046643494
38,38,15.0,67.02984409947557,8.06225774829855,17.029386365926403,17.0,19.0,16.0,56.0357029044876,39.01281840626232,31.5,31.0,29.0,14.0,26.0,8.0,6.0,12.0,11.045361017187261,11.0,37.0,41.0,37.12142238654117
39,39,14.035668847618199,69.02897942168927,8.0,17.029386365926403,19.026297590440446,21.0,15.132745950421556,54.147945482723536,37.12142238654117,30.0,30.0,28.0,14.0,25.0,7.0,7.0,11.045361017187261,10.04987562112089,10.0,34.0,33.0,37.013511046643494
40,40,18.027756377319946,72.11102550927978,6.0,16.0312195418814,20.09975124224178,22.0,14.142135623730951,54.147945482723536,38.118237105091836,29.0,29.0,25.0,13.0,27.0,10.0,8.0,11.045361017187261,10.198039027185569,10.0,34.0,34.0,36.013886210738214
41,41,19.026297590440446,73.17103251970687,7.0710678118654755,15.033296378372908,20.024984394500787,22.0,13.152946437965905,54.230987451824994,39.20459156782532,29.5,30.0,25.0,14.5,26.5,10.5,8.5,11.045361017187261,10.04987562112089,10.5,33.0,37.0,37.013511046643494
42,42,18.027756377319946,71.25307010929424,6.0,16.0312195418814,20.024984394500787,22.0,13.152946437965905,53.150729063673246,37.12142238654117,28.0,30.0,24.0,14.0,26.0,10.0,9.0,11.045361017187261,10.04987562112089,10.0,33.0,34.0,37.0
43,43,15.033296378372908,70.25667228100119,7.0,16.0312195418814,19.026297590440446,21.02379604162864,14.142135623730951,52.15361924162119,36.124783736376884,28.5,29.0,23.0,12.0,26.0,9.0,6.0,10.04987562112089,10.04987562112089,10.0,33.0,35.0,36.013886210738214
44,44,10.04987562112089,67.1863081289633,7.0,17.029386365926403,18.027756377319946,19.026297590440446,16.278820596099706,50.24937810560445,33.24154027718932,28.0,29.0,24.0,10.5,23.5,6.5,4.5,7.0,6.082762530298219,6.5,30.0,33.0,33.0
45,45,6.0,65.27633568147036,9.055385138137417,18.027756377319946,17.11724276862369,19.026297590440446,18.24828759089466,51.24451190127583,33.24154027718932,30.0,31.0,25.0,10.0,23.0,5.0,2.0,8.0,7.0710678118654755,7.0,31.0,34.0,34.0
46,46,4.0,64.28063471995279,11.045361017187261,18.110770276274835,16.1245154965971,18.027756377319946,20.223748416156685,53.33854141237835,35.22782990761707,33.0,33.0,27.0,10.0,23.0,4.0,1.0,10.0,10.198039027185569,10.0,33.0,43.0,36.6742416417845
47,47,3.1622776601683795,57.42821606144492,11.045361017187261,18.027756377319946,15.132745950421556,18.027756377319946,20.223748416156685,52.3450093132096,34.36568055487916,32.5,35.0,28.0,11.5,20.5,1.5,2.5,11.0,10.198039027185569,10.5,33.0,37.0,35.12833614050059
48,48,2.0,58.54912467321779,12.041594578792296,19.1049731745428,15.132745950421556,17.029386365926403,20.09975124224178,53.23532661682466,34.132096331752024,33.0,35.0,27.0,11.0,22.0,3.0,1.0,11.0,11.180339887498949,11.5,32.0,44.0,36.6742416417845
49,49,3.1622776601683795,63.387695966961914,11.045361017187261,19.026297590440446,15.132745950421556,17.029386365926403,20.09975124224178,53.23532661682466,34.23448553724738,32.5,33.0,26.0,9.5,23.5,4.5,0.5,12.0,10.198039027185569,10.5,31.0,44.0,35.6931365951495
50,50,10.04987562112089,66.37017402418047,10.04987562112089,16.0312195418814,17.029386365926403,19.026297590440446,16.1245154965971,52.23983154643591,36.22154055254967,31.0,31.0,24.0,11.5,24.5,7.5,2.5,12.0,11.180339887498949,11.5,30.0,45.0,33.24154027718932
51,51,17.029386365926403,73.33484846919642,7.0710678118654755,16.0312195418814,20.09975124224178,22.02271554554524,15.132745950421556,55.226805085936306,39.20459156782532,30.5,28.0,21.0,9.5,30.5,13.5,3.5,11.0,10.198039027185569,10.5,31.0,46.0,32.01562118716424
52,52,19.026297590440446,76.23647421018367,8.06225774829855,16.0312195418814,20.09975124224178,23.021728866442675,13.341664064126334,56.32051136131489,40.311288741492746,30.5,26.0,20.0,10.0,33.0,17.0,3.0,11.0,11.40175425099138,11.0,32.0,47.0,32.7566787083184
53,53,20.09975124224178,80.39900496896712,8.06225774829855,15.033296378372908,20.09975124224178,23.021728866442675,14.142135623730951,57.3149195236284,42.2965719651132,32.0,26.0,18.0,8.0,35.0,19.0,2.0,10.0,10.198039027185569,10.5,30.0,46.0,33.95585369269929
54,54,19.026297590440446,82.29823813423954,8.06225774829855,14.035668847618199,22.090722034374522,23.08679276123039,14.317821063276353,55.326304774492215,41.30375285612676,31.5,25.0,18.0,7.5,33.5,18.5,1.5,11.0,10.198039027185569,10.0,31.0,45.0,32.7566787083184
55,55,18.110770276274835,84.48076704197234,8.0,14.142135623730951,22.20360331117452,24.020824298928627,14.142135623730951,54.3323108288245,40.19950248448356,31.0,25.0,16.0,6.5,33.5,18.5,0.5,11.045361017187261,11.180339887498949,11.0,31.0,45.0,33.734255586866
56,56,17.029386365926403,84.48076704197234,8.06225774829855,14.035668847618199,22.20360331117452,24.08318915758459,14.142135623730951,53.23532661682466,39.20459156782532,30.5,25.0,16.0,6.5,32.5,18.5,0.5,11.0,10.198039027185569,10.0,32.0,46.0,32.7566787083184
57,57,16.1245154965971,85.58621384311844,8.06225774829855,15.033296378372908,23.194827009486403,25.179356624028344,15.297058540778355,54.45181356024793,39.45883931389772,31.0,26.0,16.0,6.0,33.0,18.0,1.0,12.041594578792296,10.198039027185569,10.5,31.0,36.0,35.05709628591621
58,58,17.029386365926403,83.48652585896721,7.0710678118654755,16.1245154965971,23.194827009486403,25.079872407968907,15.132745950421556,55.326304774492215,39.20459156782532,30.5,26.0,17.0,6.5,33.5,17.5,1.5,11.0,11.180339887498949,11.0,22.0,30.0,33.13608305156178
59,59,18.027756377319946,76.53103945458993,6.082762530298219,16.0312195418814,21.095023109728988,22.20360331117452,15.297058540778355,55.326304774492215,39.319206502675,30.0,28.0,19.0,8.5,31.5,15.5,3.5,11.0,11.180339887498949,11.0,23.0,33.0,33.13608305156178
60,60,9.055385138137417,70.45565981523414,9.055385138137417,17.11724276862369,18.110770276274835,21.213203435596427,16.278820596099706,51.478150704935004,34.36568055487916,29.5,31.0,23.0,11.0,24.0,7.0,4.0,12.0,10.198039027185569,10.5,23.0,32.0,33.015148038438355
61,61,2.23606797749979,64.93843238021688,10.04987562112089,18.027756377319946,16.278820596099706,17.26267650163207,19.235384061671343,49.36598018878993,31.400636936215164,30.0,34.0,23.0,9.5,20.5,2.5,1.5,12.0,11.40175425099138,11.0,24.0,35.0,30.14962686336267
62,62,1.4142135623730951,61.0,11.045361017187261,19.1049731745428,16.278820596099706,17.46424919657298,19.1049731745428,50.35871324805669,31.25699921617557,30.5,36.0,25.0,11.5,19.5,0.5,2.5,13.038404810405298,11.40175425099138,11.5,21.0,34.0,30.265491900843113
63,63,1.0,59.033888572581766,11.045361017187261,19.1049731745428,16.278820596099706,17.26267650163207,20.223748416156685,50.48762224545735,31.400636936215164,31.0,37.0,26.0,11.5,18.5,0.5,2.5,13.0,11.180339887498949,11.5,22.0,34.0,32.2490309931942
64,64,2.23606797749979,60.41522986797286,11.045361017187261,18.110770276274835,16.492422502470642,17.72004514666935,20.223748416156685,51.478150704935004,33.37663853655727,32.0,39.0,26.0,12.5,18.5,1.5,4.5,11.045361017187261,11.40175425099138,11.5,20.0,35.0,31.400636936215164
65,65,6.324555320336759,62.96824596572466,11.045361017187261,18.110770276274835,16.278820596099706,18.439088914585774,18.24828759089466,53.600373133029585,35.510561809129406,32.0,35.0,24.0,11.5,23.5,6.5,2.5,12.0,12.36931687685298,11.5,20.0,35.0,31.400636936215164
66,66,12.041594578792296,66.09841147864296,8.06225774829855,17.11724276862369,17.26267650163207,19.4164878389476,16.278820596099706,53.46026561849464,36.345563690772494,30.0,34.0,22.0,12.0,25.0,9.0,6.0,13.0,12.165525060596439,12.5,22.0,36.0,30.265491900843113
67,67,10.0,65.11528238439882,7.0710678118654755,16.1245154965971,16.278820596099706,19.4164878389476,16.278820596099706,49.36598018878993,33.24154027718932,28.0,33.0,21.0,11.0,22.0,7.0,6.0,12.0,10.44030650891055,10.5,18.0,32.0,30.265491900843113
68,68,6.082762530298219,63.953107821277925,7.0710678118654755,16.1245154965971,16.1245154965971,18.439088914585774,16.1245154965971,45.39823785126467,29.274562336608895,26.0,32.0,21.0,10.5,18.5,3.5,4.5,12.0,11.180339887498949,11.5,20.0,32.0,31.144823004794873
69,69,6.082762530298219,62.80127387243033,7.0710678118654755,16.0312195418814,16.278820596099706,18.439088914585774,16.278820596099706,45.39823785126467,29.427877939124322,26.0,30.0,20.0,9.0,20.0,4.0,4.0,12.041594578792296,11.180339887498949,11.5,22.0,32.0,29.068883707497267
70,70,6.082762530298219,61.814237842102365,8.06225774829855,17.029386365926403,16.1245154965971,18.24828759089466,16.278820596099706,47.38143096192854,30.4138126514911,27.0,30.0,20.0,9.0,22.0,5.0,3.0,12.0,11.180339887498949,11.5,22.0,31.0,29.068883707497267
71,71,2.23606797749979,61.66036003787198,10.04987562112089,16.0312195418814,15.132745950421556,17.46424919657298,18.110770276274835,46.2709412050371,30.265491900843113,29.0,31.0,22.0,8.5,19.5,3.5,0.5,12.0,11.180339887498949,11.5,22.0,31.0,29.068883707497267
72,72,1.4142135623730951,60.530983801686226,10.0,17.029386365926403,15.132745950421556,16.278820596099706,18.24828759089466,46.2709412050371,29.274562336608895,28.5,30.0,22.0,8.0,20.0,3.0,0.0,12.041594578792296,11.180339887498949,11.0,22.0,29.0,29.068883707497267
73,73,3.0,60.40695324215582,9.0,17.029386365926403,15.132745950421556,17.26267650163207,19.235384061671343,48.16637831516918,31.144823004794873,29.5,30.0,23.0,7.5,21.5,4.5,0.5,12.0,12.165525060596439,12.0,23.0,30.0,29.068883707497267
74,74,2.23606797749979,60.40695324215582,8.0,17.029386365926403,15.132745950421556,17.26267650163207,19.026297590440446,46.09772228646444,29.068883707497267,28.0,29.0,22.0,6.5,20.5,4.5,0.5,12.041594578792296,12.165525060596439,12.0,24.0,28.0,29.017236257093817
75,75,2.0,62.20128616033595,9.0,16.0312195418814,15.033296378372908,17.26267650163207,17.029386365926403,44.04543109109048,28.0178514522438,27.0,27.0,22.0,7.5,19.5,3.5,0.5,11.045361017187261,11.045361017187261,11.0,25.0,28.0,30.01666203960727
76,76,3.0,65.06919393998976,9.0,17.0,17.029386365926403,18.110770276274835,16.0312195418814,45.0111097397076,28.0178514522438,26.5,24.0,21.0,6.5,22.5,5.5,0.5,11.180339887498949,11.045361017187261,11.0,27.0,27.0,31.016124838541646
77,77,7.0710678118654755,71.0,8.06225774829855,17.0,20.0,21.0,16.0312195418814,48.010415536631214,31.016124838541646,27.5,22.0,22.0,6.0,26.0,8.0,1.0,11.045361017187261,11.045361017187261,11.0,25.0,25.0,31.016124838541646
78,78,15.0,76.00657866263946,7.0,15.0,21.0,24.0,14.0,51.0,36.0,28.5,20.0,21.0,6.5,30.5,13.5,0.5,11.045361017187261,9.055385138137417,9.5,25.0,22.0,31.016124838541646
79,79,17.0,77.0,7.0,16.0,21.0,24.0,15.0,55.0,39.0,30.5,23.0,23.0,8.0,32.0,15.0,1.0,8.06225774829855,8.0,8.0,24.0,22.0,28.0
80,80,17.029386365926403,76.02631123499285,9.0,17.0,22.0,23.021728866442675,16.1245154965971,59.00847396772772,42.01190307520001,33.5,24.0,26.0,9.0,34.0,15.0,1.0,7.0710678118654755,6.0,6.0,26.0,24.0,31.016124838541646
81,81,16.0,74.02702209328699,8.0,15.0,20.0,22.0,18.110770276274835,57.0350769263968,42.04759208325728,34.0,25.0,27.0,8.0,31.0,14.0,0.0,2.0,3.0,2.5,25.0,25.0,26.0
82,82,14.035668847618199,71.0,8.0,13.0,18.0,19.026297590440446,21.02379604162864,56.0357029044876,43.04648650006177,36.0,28.0,28.0,7.0,28.0,13.0,0.0,3.1622776601683795,3.0,2.5,24.0,27.0,24.08318915758459
83,83,10.04987562112089,68.0294054067798,5.0990195135927845,9.0,16.0312195418814,17.0,24.020824298928627,48.093658625644196,39.11521443121589,34.0,28.0,26.0,3.0,21.0,11.0,1.0,5.0,4.0,3.5,25.0,30.0,23.194827009486403
84,84,4.123105625617661,66.06814663663572,5.0990195135927845,9.0,15.033296378372908,16.0,25.019992006393608,43.104524124504614,34.132096331752024,32.0,29.0,26.0,2.5,15.5,5.5,1.5,3.1622776601683795,4.0,3.5,22.0,28.0,22.20360331117452
85,85,2.23606797749979,64.19501538281614,6.082762530298219,8.06225774829855,14.035668847618199,15.033296378372908,25.019992006393608,41.19465984809196,33.13608305156178,32.0,29.0,24.0,1.5,14.5,5.5,2.5,3.1622776601683795,3.1622776601683795,2.5,22.0,28.0,23.194827009486403
86,86,3.1622776601683795,62.20128616033595,5.0990195135927845,10.04987562112089,14.035668847618199,15.033296378372908,24.020824298928627,42.190046219457976,32.14031735997639,30.5,28.0,23.0,1.5,16.5,6.5,2.5,4.123105625617661,5.0,4.0,22.0,29.0,22.20360331117452
87,87,4.123105625617661,61.40032573203501,6.082762530298219,11.045361017187261,14.035668847618199,15.033296378372908,23.194827009486403,44.40720662234904,33.37663853655727,31.0,30.0,23.0,3.5,17.5,5.5,1.5,4.47213595499958,4.123105625617661,3.5,20.0,30.0,21.37755832643195
88,88,7.0710678118654755,55.326304774492215,7.0710678118654755,13.038404810405298,12.041594578792296,14.035668847618199,21.02379604162864,48.16637831516918,35.12833614050059,31.5,31.0,25.0,7.0,20.0,6.0,1.0,3.1622776601683795,4.123105625617661,3.0,21.0,30.0,23.345235059857504
89,89,9.219544457292887,53.23532661682466,8.06225774829855,15.033296378372908,11.045361017187261,13.0,21.02379604162864,53.23532661682466,38.2099463490856,33.5,32.0,27.0,8.5,23.5,7.5,1.5,4.123105625617661,4.123105625617661,3.5,21.0,31.0,23.345235059857504
90,90,11.045361017187261,51.088159097779204,7.0710678118654755,14.142135623730951,10.0,13.038404810405298,21.0,53.150729063673246,39.05124837953327,33.5,32.0,29.0,9.5,22.5,6.5,2.5,5.0990195135927845,5.0990195135927845,5.0,21.0,32.0,22.561028345356956
91,91,9.055385138137417,50.00999900019995,8.06225774829855,15.033296378372908,11.0,13.0,22.0,54.08326913195984,39.05124837953327,34.5,32.0,31.0,9.5,22.5,5.5,1.5,7.0710678118654755,7.0710678118654755,7.0,22.0,32.0,23.53720459187964
92,92,7.0,51.0,8.06225774829855,17.11724276862369,11.0,12.041594578792296,22.02271554554524,54.037024344425184,37.0,33.5,31.0,31.0,9.0,23.0,4.0,1.0,9.055385138137417,10.04987562112089,10.0,24.0,32.0,23.194827009486403
93,93,7.0710678118654755,50.0,8.06225774829855,15.033296378372908,11.045361017187261,12.041594578792296,23.0,53.08483775994799,38.05259518088089,34.5,32.0,32.0,9.0,21.0,4.0,1.0,10.0,9.055385138137417,9.5,26.0,34.0,25.179356624028344
94,94,6.082762530298219,50.0,10.04987562112089,16.0,11.0,12.041594578792296,21.0,53.03772242470448,37.05401462729781,34.0,32.0,32.0,11.0,21.0,3.0,1.0,12.0,12.041594578792296,12.0,30.0,35.0,29.154759474226502
95,95,5.0,51.0,9.055385138137417,18.027756377319946,10.0,12.041594578792296,22.0,54.037024344425184,36.013886210738214,33.5,31.0,31.0,9.0,23.0,3.0,0.0,11.045361017187261,11.045361017187261,11.0,34.0,34.0,29.017236257093817
96,96,4.0,51.0,10.04987562112089,17.029386365926403,12.0,13.038404810405298,23.0,54.037024344425184,37.013511046643494,35.0,32.0,32.0,9.0,22.0,3.0,0.0,11.045361017187261,11.045361017187261,10.5,39.0,33.0,33.06055050963308
97,97,3.0,49.0,8.06225774829855,16.0,13.038404810405298,14.035668847618199,24.0,51.0098029794274,35.014282800023196,33.5,32.0,32.0,8.0,19.0,1.0,0.0,11.0,10.04987562112089,10.0,35.0,33.0,34.0147027033899
98,98,4.123105625617661,59.00847396772772,9.0,17.0,14.035668847618199,16.0312195418814,22.02271554554524,52.03844732503075,35.05709628591621,33.0,29.0,30.0,7.5,22.5,3.5,1.5,12.165525060596439,11.0,11.0,37.0,37.0,33.015148038438355
99,99,11.0,66.03029607687671,8.0,16.0,16.0312195418814,18.110770276274835,17.029386365926403,52.009614495783374,36.013886210738214,30.5,25.0,27.0,9.0,26.0,9.0,1.0,12.165525060596439,11.0,11.5,38.0,39.0,33.06055050963308
100,100,15.0,72.06247289678588,8.0,15.033296378372908,19.026297590440446,21.095023109728988,15.033296378372908,53.0,38.01315561749642,30.5,22.0,25.0,8.5,29.5,12.5,0.5,11.045361017187261,10.04987562112089,10.5,37.0,37.0,34.058772731852805
101,101,16.0,79.05694150420949,8.0,15.033296378372908,21.02379604162864,23.08679276123039,14.0,53.009433122794285,38.0,30.0,19.0,22.0,6.5,32.5,15.5,1.5,10.04987562112089,10.04987562112089,10.5,37.0,36.0,33.015148038438355
102,102,18.0,82.02438661763951,9.055385138137417,15.0,21.02379604162864,24.020824298928627,12.041594578792296,54.0,39.0,30.0,18.0,20.0,7.0,35.0,18.0,2.0,11.045361017187261,11.045361017187261,10.5,37.0,37.0,35.014282800023196
103,103,20.0,86.02325267042627,7.0,15.033296378372908,23.021728866442675,25.079872407968907,14.035668847618199,56.0,41.012193308819754,31.0,19.0,21.0,6.0,36.0,19.0,1.0,10.198039027185569,10.04987562112089,10.5,37.0,35.0,36.013886210738214
104,104,20.0,88.02272433866155,8.06225774829855,14.0,23.0,25.019992006393608,13.038404810405298,55.0,41.0,31.0,19.0,21.0,7.0,35.0,19.0,0.0,10.198039027185569,10.04987562112089,10.5,37.0,34.0,36.0
105,105,19.026297590440446,87.0,9.0,15.0,23.0,25.0,14.0,57.0087712549569,42.01190307520001,32.5,22.0,22.0,8.0,35.0,18.0,0.0,10.04987562112089,10.04987562112089,10.0,37.0,34.0,35.0
106,106,18.027756377319946,87.0,9.0,16.0,22.0,25.0,14.0,57.0087712549569,41.012193308819754,32.0,22.0,22.0,8.0,35.0,18.0,0.0,10.04987562112089,10.198039027185569,10.5,37.0,35.0,35.0
107,107,20.024984394500787,85.0235261559999,8.0,14.0,22.0,24.0,14.035668847618199,56.0357029044876,42.04759208325728,32.0,21.0,23.0,8.0,34.0,18.0,1.0,11.045361017187261,10.198039027185569,10.0,37.0,34.0,34.0
108,108,20.024984394500787,85.05292469985967,8.0,15.033296378372908,22.02271554554524,25.0,14.035668847618199,57.07889277132134,42.04759208325728,32.0,21.0,24.0,8.5,34.5,17.5,0.5,10.198039027185569,10.04987562112089,10.5,38.0,34.0,33.015148038438355
109,109,23.021728866442675,84.02380615040002,8.0,15.033296378372908,22.02271554554524,24.0,14.035668847618199,60.07495318350236,45.044422518220834,33.5,21.0,23.0,8.0,38.0,21.0,0.0,11.045361017187261,11.045361017187261,11.0,38.0,33.0,33.015148038438355
110,110,22.090722034374522,86.09297300012354,9.0,15.0,22.0,24.020824298928627,14.142135623730951,60.13318551349163,45.17742799230607,34.0,20.0,24.0,8.0,38.0,22.0,0.0,10.198039027185569,10.04987562112089,10.5,40.0,33.0,34.058772731852805
111,111,23.021728866442675,86.09297300012354,8.06225774829855,15.033296378372908,22.02271554554524,25.019992006393608,14.142135623730951,60.207972893961475,45.17742799230607,33.5,18.0,22.0,6.0,40.0,24.0,2.0,11.180339887498949,11.045361017187261,11.0,40.0,34.0,33.015148038438355
112,112,22.02271554554524,88.20430828479978,8.06225774829855,14.035668847618199,23.021728866442675,25.019992006393608,14.142135623730951,58.215118311311535,44.181444068749045,33.0,16.0,22.0,5.0,39.0,23.0,3.0,11.180339887498949,10.0,10.5,40.0,33.0,33.06055050963308
113,113,19.026297590440446,86.14522621712709,8.06225774829855,14.035668847618199,23.021728866442675,25.019992006393608,14.035668847618199,55.14526271584895,41.10960958218893,31.5,15.0,20.0,3.5,37.5,21.5,4.5,11.180339887498949,10.0,10.5,40.0,33.0,33.06055050963308
114,114,18.027756377319946,86.14522621712709,8.06225774829855,14.035668847618199,22.02271554554524,24.020824298928627,14.035668847618199,54.147945482723536,40.11234224026316,31.0,16.0,21.0,4.5,35.5,19.5,2.5,11.180339887498949,10.0,10.0,40.0,33.0,33.06055050963308
115,115,18.027756377319946,85.14693182963201,7.0,13.038404810405298,22.02271554554524,24.0,15.033296378372908,53.08483775994799,40.049968789001575,31.0,16.0,21.0,3.5,34.5,19.5,3.5,11.180339887498949,11.045361017187261,11.0,39.0,33.0,32.01562118716424
116,116,17.029386365926403,85.14693182963201,8.06225774829855,14.035668847618199,22.02271554554524,24.020824298928627,14.035668847618199,53.150729063673246,39.11521443121589,30.5,16.0,21.0,4.5,34.5,18.5,3.5,11.045361017187261,10.04987562112089,10.0,38.0,33.0,33.0
117,117,17.029386365926403,86.02325267042627,8.0,14.0,23.021728866442675,25.019992006393608,15.033296378372908,54.037024344425184,40.049968789001575,31.5,18.0,20.0,4.0,35.0,19.0,3.0,11.180339887498949,11.045361017187261,10.5,37.0,32.0,35.05709628591621
118,118,22.02271554554524,87.05170877128145,8.0,15.0,23.021728866442675,25.0,14.0,59.00847396772772,44.01136216933077,33.0,20.0,23.0,7.5,37.5,21.5,0.5,12.041594578792296,10.0,10.0,35.0,26.0,33.24154027718932
119,119,23.021728866442675,83.0,7.0,14.0,22.0,24.020824298928627,14.035668847618199,58.0,44.0,32.5,23.0,23.0,9.0,35.0,20.0,3.0,11.045361017187261,10.04987562112089,10.5,28.0,26.0,31.016124838541646
120,120,24.0,77.10382610480494,6.0,13.038404810405298,21.02379604162864,23.08679276123039,13.038404810405298,56.0357029044876,43.01162633521314,31.0,26.0,22.0,11.0,32.0,18.0,6.0,11.045361017187261,10.04987562112089,10.5,25.0,25.0,30.0
121,121,21.02379604162864,74.24284477308234,5.0,15.033296378372908,20.024984394500787,22.02271554554524,14.142135623730951,55.14526271584895,40.11234224026316,29.5,28.0,22.0,11.0,30.0,15.0,7.0,11.045361017187261,10.04987562112089,10.0,23.0,28.0,30.066592756745816
122,122,19.026297590440446,71.449282711585,5.0990195135927845,15.033296378372908,20.024984394500787,22.02271554554524,14.142135623730951,53.23532661682466,38.2099463490856,28.5,29.0,21.0,11.0,28.0,13.0,7.0,12.0,11.180339887498949,11.5,20.0,29.0,32.14031735997639
123,123,17.029386365926403,70.57619995437555,5.0990195135927845,15.033296378372908,19.026297590440446,21.095023109728988,14.317821063276353,51.35172830587107,36.345563690772494,27.5,28.0,19.0,9.5,27.5,12.5,5.5,11.0,11.180339887498949,11.0,24.0,33.0,32.14031735997639
124,124,15.033296378372908,69.72087205421343,5.0990195135927845,15.132745950421556,18.110770276274835,20.09975124224178,14.142135623730951,49.36598018878993,34.23448553724738,26.5,28.0,18.0,9.0,26.0,11.0,5.0,11.0,10.198039027185569,10.5,19.0,33.0,30.4138126514911
125,125,8.06225774829855,66.91038783328041,8.06225774829855,16.1245154965971,16.278820596099706,18.24828759089466,15.297058540778355,47.51841748206689,31.400636936215164,27.0,29.0,18.0,8.5,23.5,7.5,2.5,11.0,11.40175425099138,11.5,17.0,33.0,30.4138126514911
126,126,2.23606797749979,66.09841147864296,10.04987562112089,16.1245154965971,17.26267650163207,19.235384061671343,18.24828759089466,46.52956049652737,30.4138126514911,29.0,30.0,18.0,6.0,22.0,6.0,1.0,12.0,10.44030650891055,10.5,19.0,33.0,30.4138126514911
127,127,1.4142135623730951,64.93843238021688,10.04987562112089,17.11724276862369,17.26267650163207,18.24828759089466,18.24828759089466,46.52956049652737,29.427877939124322,28.5,29.0,18.0,5.5,22.5,6.5,2.5,11.0,10.44030650891055,10.0,26.0,38.0,32.2490309931942
128,128,2.23606797749979,63.953107821277925,10.04987562112089,16.1245154965971,16.278820596099706,18.24828759089466,18.439088914585774,46.69047011971501,30.59411708155671,29.0,29.0,18.0,5.5,22.5,6.5,2.5,12.0,10.44030650891055,10.5,28.0,39.0,35.22782990761707
129,129,11.045361017187261,67.89698078707183,8.06225774829855,16.1245154965971,17.11724276862369,20.223748416156685,15.524174696260024,50.635955604688654,34.52535300326414,28.5,28.0,17.0,7.5,27.5,12.5,1.5,11.045361017187261,10.44030650891055,10.5,28.0,39.0,35.22782990761707
130,130,17.029386365926403,68.06614430096654,6.082762530298219,15.132745950421556,18.24828759089466,20.223748416156685,14.560219778561036,52.61178575186362,37.48332962798263,28.5,28.0,16.0,8.0,30.0,15.0,4.0,11.0,10.44030650891055,10.5,28.0,36.0,35.12833614050059
131,131,17.11724276862369,70.21395872616783,6.082762530298219,14.142135623730951,18.24828759089466,20.223748416156685,12.649110640673518,49.8196748283246,35.6931365951495,26.5,27.0,14.0,8.5,28.5,14.5,4.5,12.0,10.198039027185569,10.5,29.0,39.0,36.345563690772494
132,132,15.033296378372908,70.03570517957252,6.082762530298219,15.132745950421556,18.24828759089466,20.223748416156685,13.601470508735444,49.64876634922564,34.52535300326414,26.5,27.0,15.0,8.0,28.0,14.0,4.0,11.0,10.198039027185569,10.5,29.0,37.0,34.058772731852805
133,133,13.152946437965905,68.8839603971781,6.082762530298219,15.132745950421556,18.24828759089466,19.235384061671343,14.317821063276353,48.662100242385755,33.54101966249684,26.5,27.0,16.0,7.5,26.5,11.5,3.5,12.0,10.44030650891055,10.5,29.0,37.0,36.05551275463989
134,134,11.180339887498949,67.89698078707183,7.0710678118654755,16.0312195418814,17.11724276862369,19.1049731745428,14.317821063276353,48.507731342539614,32.55764119219941,26.5,27.0,16.0,7.5,26.5,10.5,1.5,11.0,11.40175425099138,10.5,31.0,42.0,36.345563690772494
135,135,11.045361017187261,66.75327707311455,7.0710678118654755,16.1245154965971,17.11724276862369,19.1049731745428,14.317821063276353,48.507731342539614,32.38826948140329,26.5,26.0,16.0,7.0,27.0,11.0,1.0,12.0,11.180339887498949,11.0,30.0,40.0,34.36568055487916
136,136,7.0710678118654755,65.62011886609167,9.0,16.1245154965971,16.1245154965971,18.24828759089466,15.297058540778355,47.38143096192854,31.25699921617557,27.5,26.0,17.0,6.5,25.5,9.5,0.5,12.0,11.180339887498949,11.0,30.0,42.0,35.35533905932738
137,137,4.123105625617661,65.76473218982953,9.055385138137417,17.029386365926403,17.11724276862369,19.1049731745428,17.26267650163207,47.38143096192854,30.4138126514911,28.0,28.0,18.0,6.0,24.0,8.0,2.0,11.045361017187261,11.40175425099138,11.5,31.0,43.0,35.510561809129406
138,138,3.0,64.6297145282261,10.04987562112089,16.1245154965971,16.278820596099706,18.110770276274835,17.26267650163207,46.389654018972806,30.265491900843113,28.5,28.0,19.0,6.5,22.5,6.5,1.5,12.0,10.198039027185569,10.5,30.0,42.0,35.510561809129406
139,139,2.23606797749979,63.50590523722971,10.04987562112089,17.029386365926403,16.278820596099706,18.110770276274835,18.24828759089466,47.38143096192854,30.4138126514911,29.0,28.0,20.0,6.0,23.0,6.0,2.0,11.0,10.198039027185569,10.5,31.0,42.0,34.52535300326414
140,140,2.0,63.50590523722971,10.04987562112089,16.1245154965971,16.1245154965971,18.110770276274835,18.24828759089466,46.389654018972806,30.265491900843113,29.0,28.0,20.0,6.0,22.0,6.0,2.0,12.0,11.180339887498949,11.5,30.0,42.0,33.37663853655727
141,141,5.0990195135927845,65.62011886609167,11.0,17.11724276862369,17.26267650163207,19.235384061671343,18.24828759089466,51.35172830587107,34.23448553724738,31.5,30.0,21.0,7.5,25.5,8.5,1.5,11.0,11.180339887498949,11.5,31.0,41.0,34.52535300326414
142,142,16.0,67.36467917239716,10.04987562112089,16.0312195418814,18.110770276274835,21.095023109728988,16.278820596099706,58.215118311311535,42.190046219457976,34.0,31.0,24.0,11.5,30.5,14.5,3.5,12.0,11.40175425099138,11.5,29.0,39.0,34.52535300326414
143,143,18.027756377319946,72.44308110509934,8.06225774829855,16.0312195418814,20.223748416156685,23.08679276123039,15.132745950421556,57.21887800367987,41.19465984809196,32.0,30.0,22.0,11.0,31.0,14.0,5.0,12.0,10.44030650891055,10.5,31.0,37.0,33.24154027718932
144,144,14.035668847618199,74.33034373659252,9.0,17.029386365926403,20.09975124224178,22.090722034374522,14.317821063276353,54.230987451824994,37.21558813185679,30.0,28.0,21.0,10.5,29.5,12.5,3.5,12.041594578792296,10.198039027185569,10.5,29.0,34.0,33.06055050963308
145,145,16.0312195418814,75.23961722390672,8.0,14.035668847618199,21.02379604162864,22.02271554554524,14.142135623730951,52.15361924162119,38.118237105091836,30.0,27.0,21.0,10.0,28.0,13.0,3.0,12.0,11.045361017187261,11.0,30.0,32.0,34.0
146,146,15.033296378372908,74.10802925459562,8.0,14.035668847618199,20.024984394500787,22.02271554554524,15.132745950421556,52.15361924162119,38.118237105091836,30.5,28.0,24.0,11.0,26.0,11.0,4.0,11.045361017187261,11.045361017187261,11.0,33.0,36.0,33.06055050963308
147,147,16.0,74.06078584514209,8.0,14.035668847618199,20.0,22.0,15.132745950421556,53.08483775994799,39.05124837953327,31.0,28.0,25.0,11.5,26.5,11.5,3.5,11.045361017187261,10.04987562112089,10.5,35.0,34.0,34.0147027033899
148,148,15.0,74.00675644831355,8.0,15.0,20.0,22.02271554554524,15.033296378372908,53.009433122794285,38.01315561749642,30.5,26.0,25.0,10.5,27.5,11.5,2.5,11.045361017187261,10.04987562112089,10.5,35.0,36.0,33.06055050963308
149,149,15.0,73.00684899377592,9.0,15.033296378372908,20.024984394500787,22.02271554554524,14.0,53.009433122794285,38.0,30.5,26.0,27.0,12.5,26.5,9.5,3.5,12.041594578792296,11.045361017187261,11.0,36.0,34.0,33.0
150,150,15.0,72.02777242147643,9.0,16.0312195418814,20.024984394500787,22.02271554554524,14.0,54.00925846556311,38.0,30.5,26.0,28.0,13.0,27.0,10.0,4.0,12.041594578792296,11.0,11.0,38.0,34.0,33.0
151,151,13.0,73.06161783043132,9.055385138137417,15.0,19.026297590440446,22.090722034374522,15.0,52.009614495783374,37.013511046643494,30.5,26.0,29.0,12.5,24.5,7.5,3.5,12.165525060596439,12.0,11.5,38.0,34.0,34.0
152,152,11.0,71.17583859709698,9.055385138137417,16.0,18.027756377319946,20.09975124224178,14.0,50.00999900019995,34.0147027033899,28.5,24.0,29.0,12.5,23.5,5.5,2.5,12.165525060596439,11.0,11.5,40.0,33.0,33.015148038438355
153,153,12.0,70.178344238091,9.055385138137417,16.0312195418814,18.027756377319946,19.235384061671343,16.0312195418814,53.08483775994799,37.05401462729781,31.0,26.0,31.0,12.5,24.5,6.5,3.5,12.165525060596439,11.0,11.5,41.0,34.0,34.0147027033899
154,154,11.045361017187261,70.25667228100119,8.0,16.0312195418814,16.1245154965971,19.1049731745428,17.029386365926403,52.08646657242167,36.05551275463989,30.5,26.0,32.0,12.0,23.0,6.0,3.0,13.152946437965905,11.0,11.5,41.0,34.0,33.015148038438355
155,155,6.082762530298219,67.36467917239716,9.055385138137417,17.029386365926403,17.11724276862369,18.110770276274835,18.027756377319946,50.15974481593781,33.13608305156178,30.0,25.0,32.0,10.5,21.5,3.5,0.5,12.165525060596439,11.0,11.0,43.0,32.0,33.13608305156178
156,156,5.0,67.47592163134935,10.04987562112089,17.11724276862369,17.029386365926403,19.1049731745428,18.027756377319946,50.15974481593781,33.06055050963308,30.5,24.0,32.0,10.0,22.0,3.0,0.0,11.180339887498949,10.04987562112089,11.0,40.0,27.0,32.38826948140329
157,157,5.0990195135927845,65.62011886609167,10.04987562112089,17.029386365926403,17.11724276862369,19.1049731745428,19.026297590440446,51.15662224971465,34.132096331752024,31.5,24.0,33.0,9.5,22.5,3.5,0.5,13.341664064126334,11.0,11.5,42.0,26.0,32.55764119219941
158,158,1.0,65.49045732013177,11.045361017187261,18.110770276274835,15.132745950421556,17.11724276862369,20.024984394500787,50.15974481593781,32.0624390837628,31.5,25.0,33.0,9.0,21.0,1.0,2.0,12.165525060596439,11.045361017187261,11.0,43.0,29.0,32.2490309931942
159,159,1.4142135623730951,66.61080993352356,10.0,16.0312195418814,16.1245154965971,18.110770276274835,19.1049731745428,46.17358552246078,30.14962686336267,29.5,23.0,32.0,8.5,18.5,0.5,1.5,12.165525060596439,12.0,11.5,40.0,25.0,32.55764119219941
160,160,7.0,66.27216610312357,7.0710678118654755,16.0312195418814,16.1245154965971,18.110770276274835,17.029386365926403,47.095647357266465,31.064449134018133,27.5,24.0,30.0,10.0,20.0,2.0,2.0,13.152946437965905,12.041594578792296,12.0,37.0,24.0,31.25699921617557
161,161,12.0,67.1863081289633,5.0,15.033296378372908,18.110770276274835,19.1049731745428,17.029386365926403,49.040799340956916,34.0147027033899,28.0,24.0,29.0,9.5,22.5,5.5,3.5,13.152946437965905,12.0,11.5,34.0,25.0,31.144823004794873
162,162,14.0,69.1158447825099,5.0,15.033296378372908,18.110770276274835,19.1049731745428,17.029386365926403,51.03920062069938,36.013886210738214,29.0,25.0,29.0,10.0,24.0,7.0,4.0,13.038404810405298,12.0,12.0,33.0,25.0,32.2490309931942
163,163,14.0,68.06614430096654,6.0,15.0,18.027756377319946,19.1049731745428,17.0,52.0,37.0,30.0,26.0,29.0,10.5,24.5,7.5,4.5,12.041594578792296,11.045361017187261,11.5,30.0,26.0,33.06055050963308
164,164,11.0,68.0294054067798,6.0,16.0312195418814,17.029386365926403,19.026297590440446,18.0,51.0098029794274,35.0,29.5,26.0,28.0,9.0,24.0,7.0,3.0,12.165525060596439,11.045361017187261,11.5,29.0,26.0,33.0
165,165,2.0,66.007575322837,9.0,17.0,16.0,18.027756377319946,21.0,49.0,32.0,31.0,26.0,27.0,5.5,22.5,4.5,2.5,12.041594578792296,12.041594578792296,12.0,27.0,27.0,32.01562118716424
166,166,1.4142135623730951,65.00769185258002,10.0,16.0,16.0,17.0,21.0,48.010415536631214,32.01562118716424,31.5,26.0,27.0,5.5,21.5,3.5,3.5,12.041594578792296,11.0,11.5,32.0,30.0,33.015148038438355
167,167,3.0,63.00793600809346,9.055385138137417,17.0,15.0,17.029386365926403,21.02379604162864,50.039984012787215,33.06055050963308,31.5,27.0,26.0,5.5,23.5,5.5,2.5,12.165525060596439,12.165525060596439,12.5,26.0,30.0,31.144823004794873
168,168,11.045361017187261,66.06814663663572,7.0710678118654755,17.0,17.029386365926403,19.0,19.1049731745428,54.147945482723536,37.21558813185679,31.5,29.0,26.0,8.5,26.5,8.5,2.5,12.041594578792296,12.165525060596439,12.0,29.0,31.0,33.015148038438355
169,169,17.029386365926403,69.06518659932803,6.082762530298219,16.0312195418814,18.0,21.02379604162864,16.1245154965971,55.226805085936306,39.20459156782532,30.5,28.0,25.0,10.5,28.5,11.5,4.5,12.041594578792296,12.165525060596439,12.0,30.0,34.0,34.0147027033899
170,170,16.0312195418814,67.06713054842886,6.082762530298219,16.0312195418814,18.0,20.024984394500787,15.132745950421556,53.23532661682466,37.21558813185679,29.0,28.0,25.0,11.5,26.5,9.5,5.5,12.041594578792296,12.165525060596439,12.0,32.0,35.0,32.01562118716424
171,171,17.029386365926403,67.02984409947557,5.0990195135927845,15.033296378372908,18.0,20.0,14.142135623730951,51.24451190127583,36.22154055254967,27.5,26.0,24.0,11.0,26.0,10.0,6.0,11.0,12.165525060596439,12.0,33.0,34.0,32.0
172,172,15.0,63.0317380372777,5.0990195135927845,15.033296378372908,16.0,17.029386365926403,16.0,51.03920062069938,36.013886210738214,28.5,27.0,25.0,10.0,25.0,8.0,5.0,12.041594578792296,11.180339887498949,12.0,34.0,35.0,33.015148038438355
173,173,7.0710678118654755,60.07495318350236,6.0,16.0312195418814,15.033296378372908,16.0,20.024984394500787,49.09175083453431,33.06055050963308,29.5,28.0,25.0,6.5,22.5,5.5,1.5,12.041594578792296,11.045361017187261,11.5,31.0,33.0,31.0
174,174,1.0,61.032778078668514,10.0,16.0,15.0,17.0,21.095023109728988,47.095647357266465,31.144823004794873,31.0,28.0,26.0,6.0,20.0,3.0,3.0,13.038404810405298,12.165525060596439,12.5,33.0,32.0,34.0
175,175,1.0,59.0,10.0,17.0,15.0,17.029386365926403,21.02379604162864,49.01020301937138,32.01562118716424,31.5,30.0,30.0,9.0,19.0,0.0,0.0,13.038404810405298,12.041594578792296,12.5,33.0,33.0,31.016124838541646
176,176,3.0,63.00793600809346,9.0,17.0,16.0312195418814,18.0,19.1049731745428,48.041648597857254,31.064449134018133,29.5,27.0,26.0,7.5,21.5,3.5,0.5,13.038404810405298,12.041594578792296,12.0,32.0,29.0,32.01562118716424
177,177,8.0,66.0,9.0,17.0,18.0,20.0,17.029386365926403,51.0098029794274,34.0147027033899,30.0,26.0,26.0,9.0,25.0,6.0,0.0,12.165525060596439,11.045361017187261,11.5,37.0,34.0,35.0
178,178,14.0,74.00675644831355,8.0,16.0312195418814,20.0,22.02271554554524,15.033296378372908,53.0,37.013511046643494,30.0,24.0,25.0,9.5,28.5,10.5,1.5,11.180339887498949,11.045361017187261,11.5,37.0,29.0,35.12833614050059
179,179,15.0,77.05841939723393,8.0,16.0312195418814,20.0,22.02271554554524,15.0,54.00925846556311,38.0,30.5,22.0,25.0,8.5,30.5,13.5,0.5,11.045361017187261,11.045361017187261,11.0,39.0,33.0,36.0
180,180,16.0312195418814,81.15417426109393,8.0,15.033296378372908,21.02379604162864,24.0,15.033296378372908,54.08326913195984,39.05124837953327,31.0,20.0,25.0,7.5,31.5,14.5,0.5,11.180339887498949,11.0,12.0,32.0,23.0,32.2490309931942
181,181,15.0,80.15609770940699,9.055385138137417,16.0312195418814,22.02271554554524,23.021728866442675,15.033296378372908,55.08175741568164,39.05124837953327,31.5,20.0,25.0,7.5,32.5,15.5,1.5,11.180339887498949,11.045361017187261,11.0,40.0,31.0,34.132096331752024
182,182,15.033296378372908,80.22468448052632,8.06225774829855,16.0312195418814,21.02379604162864,23.021728866442675,15.033296378372908,54.147945482723536,38.118237105091836,30.5,19.0,25.0,7.0,32.0,15.0,1.0,11.180339887498949,11.0,11.5,39.0,28.0,34.23448553724738
183,183,17.029386365926403,78.23042886243178,8.06225774829855,15.033296378372908,20.09975124224178,23.021728866442675,15.132745950421556,55.226805085936306,40.19950248448356,31.5,19.0,25.0,7.0,33.0,16.0,1.0,11.180339887498949,11.0,11.0,40.0,28.0,34.23448553724738
184,184,20.024984394500787,78.31347265956222,7.0710678118654755,15.033296378372908,20.09975124224178,23.021728866442675,14.317821063276353,56.32051136131489,41.30375285612676,31.0,19.0,26.0,8.5,33.5,16.5,1.5,11.180339887498949,10.0,10.5,39.0,25.0,33.734255586866
185,185,21.02379604162864,74.24284477308234,6.082762530298219,13.038404810405298,18.110770276274835,20.0,14.142135623730951,54.230987451824994,41.19465984809196,30.5,20.0,26.0,9.0,31.0,16.0,3.0,11.40175425099138,11.045361017187261,11.0,44.0,32.0,33.13608305156178
186,186,19.026297590440446,71.17583859709698,6.082762530298219,14.035668847618199,17.11724276862369,20.024984394500787,13.038404810405298,52.15361924162119,38.118237105091836,28.5,20.0,25.0,9.5,29.5,14.5,2.5,11.40175425099138,11.0,11.5,44.0,33.0,33.13608305156178
187,187,18.110770276274835,69.18092222571191,6.082762530298219,13.038404810405298,18.110770276274835,19.1049731745428,12.165525060596439,49.36598018878993,36.345563690772494,27.0,19.0,24.0,9.5,27.5,12.5,2.5,11.180339887498949,11.0,11.5,44.0,34.0,31.144823004794873
188,188,18.027756377319946,70.178344238091,6.082762530298219,14.035668847618199,17.11724276862369,20.024984394500787,11.180339887498949,49.25444142409901,35.22782990761707,26.0,18.0,23.0,9.5,28.5,13.5,2.5,12.165525060596439,11.0,11.0,43.0,32.0,32.14031735997639
189,189,18.027756377319946,69.18092222571191,5.385164807134504,14.035668847618199,17.11724276862369,20.024984394500787,11.045361017187261,48.25971404805462,34.23448553724738,25.0,18.0,23.0,9.5,27.5,12.5,3.5,11.180339887498949,10.0,10.5,44.0,30.0,33.24154027718932
190,190,17.029386365926403,70.178344238091,6.082762530298219,14.142135623730951,17.11724276862369,20.09975124224178,11.180339887498949,48.373546489791295,34.23448553724738,25.5,18.0,23.0,9.5,27.5,12.5,3.5,11.40175425099138,11.0,11.5,43.0,33.0,31.064449134018133
191,191,17.029386365926403,70.178344238091,6.082762530298219,15.033296378372908,18.110770276274835,20.024984394500787,11.180339887498949,49.25444142409901,34.23448553724738,25.5,19.0,24.0,10.5,27.5,11.5,3.5,11.180339887498949,11.0,11.0,42.0,30.0,32.14031735997639
192,192,13.038404810405298,70.178344238091,8.06225774829855,15.132745950421556,17.029386365926403,20.024984394500787,12.165525060596439,48.373546489791295,33.24154027718932,26.5,20.0,25.0,10.5,25.5,9.5,2.5,11.180339887498949,12.041594578792296,12.0,43.0,34.0,32.0624390837628
193,193,9.055385138137417,66.12110101926616,9.0,17.029386365926403,17.029386365926403,18.0,14.035668847618199,49.09175083453431,32.0624390837628,27.5,23.0,27.0,11.0,24.0,6.0,2.0,13.152946437965905,12.0,12.5,41.0,33.0,33.06055050963308
194,194,5.0,63.071388124885914,12.041594578792296,18.027756377319946,14.0,17.0,16.0,51.03920062069938,33.015148038438355,30.5,27.0,30.0,12.5,22.5,3.5,0.5,13.152946437965905,12.0,12.0,41.0,34.0,35.12833614050059
195,195,4.123105625617661,59.00847396772772,12.0,19.0,15.0,17.029386365926403,19.0,54.00925846556311,35.014282800023196,33.0,31.0,32.0,12.5,22.5,3.5,0.5,13.152946437965905,12.041594578792296,12.0,40.0,34.0,36.013886210738214
196,196,5.0,57.0,11.0,18.0,14.0,16.0,21.0,55.0,37.0,34.5,34.0,34.0,13.0,21.0,2.0,2.0,13.038404810405298,12.041594578792296,12.5,38.0,37.0,34.0147027033899
197,197,5.0990195135927845,57.0087712549569,12.0,18.0,13.0,15.0,20.024984394500787,55.0,37.0,34.5,34.0,35.0,14.5,20.5,0.5,2.5,13.152946437965905,13.038404810405298,12.5,36.0,38.0,33.13608305156178
198,198,4.0,55.00909015790027,12.041594578792296,18.0,14.0,15.0,21.02379604162864,55.0,37.0,35.0,36.0,35.0,14.5,19.5,0.5,2.5,13.152946437965905,12.041594578792296,12.5,34.0,40.0,33.13608305156178
199,199,5.0,59.0,11.045361017187261,17.0,15.0,17.0,20.0,53.009433122794285,36.013886210738214,33.5,33.0,33.0,13.0,20.0,1.0,2.0,13.038404810405298,12.165525060596439,12.5,32.0,41.0,32.55764119219941
200,200,12.0,62.03224967708329,9.0,16.0312195418814,15.033296378372908,17.0,17.029386365926403,54.037024344425184,38.01315561749642,32.0,32.0,30.0,14.0,23.0,6.0,6.0,13.0,12.165525060596439,12.5,33.0,42.0,30.265491900843113
201,201,18.0,68.11754546370561,8.06225774829855,15.033296378372908,17.029386365926403,19.0,16.0312195418814,57.07889277132134,42.04759208325728,33.0,32.0,28.0,14.0,27.0,11.0,6.0,13.038404810405298,13.152946437965905,12.5,32.0,42.0,29.427877939124322
202,202,18.027756377319946,71.11258679024411,8.06225774829855,15.033296378372908,18.110770276274835,21.0,16.1245154965971,57.21887800367987,42.190046219457976,33.0,30.0,26.0,12.0,29.0,13.0,5.0,13.038404810405298,12.36931687685298,12.5,31.0,43.0,31.575306807693888
203,203,16.0312195418814,73.24616030891995,9.055385138137417,16.1245154965971,18.110770276274835,20.024984394500787,15.297058540778355,56.43580423808985,40.311288741492746,32.0,30.0,24.0,12.0,29.0,12.0,5.0,12.0,12.36931687685298,12.0,30.0,43.0,30.59411708155671
204,204,17.11724276862369,73.33484846919642,8.06225774829855,16.1245154965971,18.110770276274835,21.02379604162864,15.297058540778355,56.568542494923804,40.44749683231337,31.5,28.0,21.0,9.5,31.5,14.5,2.5,12.0,11.180339887498949,11.0,29.0,44.0,29.614185789921695
205,205,16.278820596099706,72.56031973468694,8.06225774829855,16.1245154965971,17.11724276862369,20.024984394500787,15.297058540778355,55.731499172371095,39.6232255123179,31.0,28.0,19.0,8.5,31.5,15.5,2.5,13.0,12.36931687685298,12.0,29.0,45.0,29.832867780352597
206,206,15.132745950421556,73.55270219373317,8.06225774829855,15.132745950421556,17.11724276862369,20.09975124224178,15.524174696260024,53.75872022286245,38.63935817272331,30.5,28.0,19.0,8.5,29.5,13.5,2.5,12.0,12.36931687685298,11.5,28.0,47.0,29.832867780352597
207,207,11.180339887498949,72.56031973468694,8.246211251235321,16.278820596099706,17.11724276862369,20.024984394500787,15.524174696260024,51.19570294468082,34.92849839314596,28.5,26.0,17.0,6.5,28.5,11.5,0.5,12.041594578792296,12.36931687685298,12.0,26.0,45.0,29.832867780352597
208,208,9.219544457292887,69.72087205421343,8.06225774829855,16.278820596099706,16.278820596099706,18.110770276274835,16.76305461424021,50.21951811795888,33.95585369269929,28.5,27.0,17.0,6.0,27.0,11.0,0.0,12.041594578792296,12.36931687685298,12.0,26.0,46.0,29.120439557122072
209,209,7.0710678118654755,67.60177512462228,8.246211251235321,16.278820596099706,16.1245154965971,17.029386365926403,18.24828759089466,49.8196748283246,33.54101966249684,29.5,27.0,18.0,4.5,26.5,9.5,1.5,12.041594578792296,12.36931687685298,12.0,27.0,45.0,30.805843601498726
210,210,5.385164807134504,66.37017402418047,9.055385138137417,16.1245154965971,16.1245154965971,18.0,18.24828759089466,48.662100242385755,32.55764119219941,29.5,27.0,20.0,5.5,24.5,7.5,1.5,12.0,12.165525060596439,12.0,27.0,45.0,29.832867780352597
211,211,4.47213595499958,66.37017402418047,10.04987562112089,16.1245154965971,16.0312195418814,18.0,18.110770276274835,48.507731342539614,32.38826948140329,30.0,27.0,20.0,5.5,24.5,7.5,3.5,13.0,12.36931687685298,12.5,28.0,44.0,29.832867780352597
212,212,1.4142135623730951,67.36467917239716,11.045361017187261,16.1245154965971,17.11724276862369,19.0,19.235384061671343,47.51841748206689,31.400636936215164,30.5,27.0,20.0,4.5,23.5,6.5,3.5,13.0,12.36931687685298,12.5,28.0,45.0,30.59411708155671
213,213,1.4142135623730951,67.47592163134935,11.045361017187261,17.11724276862369,16.1245154965971,18.027756377319946,18.110770276274835,47.38143096192854,30.265491900843113,29.5,27.0,19.0,5.0,24.0,6.0,4.0,13.0,12.36931687685298,12.5,28.0,44.0,29.614185789921695
214,214,2.23606797749979,66.37017402418047,11.180339887498949,17.11724276862369,16.1245154965971,18.027756377319946,17.11724276862369,47.51841748206689,30.4138126514911,29.0,27.0,20.0,6.5,23.5,5.5,2.5,13.038404810405298,12.36931687685298,12.5,29.0,45.0,31.78049716414141
215,215,4.123105625617661,70.34912934784623,10.198039027185569,18.110770276274835,18.110770276274835,20.024984394500787,17.26267650163207,49.64876634922564,31.575306807693888,29.0,26.0,19.0,5.5,26.5,8.5,2.5,13.038404810405298,11.40175425099138,12.0,29.0,44.0,30.59411708155671
216,216,5.0990195135927845,72.44308110509934,10.04987562112089,17.11724276862369,18.110770276274835,20.0,16.492422502470642,48.662100242385755,31.575306807693888,28.5,26.0,18.0,6.0,26.0,9.0,2.0,13.038404810405298,11.40175425099138,11.5,29.0,43.0,30.59411708155671
217,217,3.605551275463989,71.34423592694787,11.045361017187261,17.029386365926403,17.11724276862369,19.026297590440446,18.24828759089466,49.49747468305833,32.55764119219941,30.5,27.0,20.0,5.5,25.5,7.5,3.5,12.0,12.36931687685298,12.0,30.0,45.0,30.59411708155671
218,218,2.8284271247461903,71.34423592694787,11.045361017187261,16.0312195418814,17.029386365926403,19.0,18.24828759089466,47.51841748206689,31.575306807693888,30.0,27.0,20.0,5.5,23.5,6.5,4.5,12.041594578792296,12.36931687685298,12.5,30.0,44.0,32.7566787083184
219,219,1.0,71.449282711585,11.045361017187261,16.1245154965971,18.110770276274835,20.024984394500787,19.4164878389476,46.69047011971501,30.59411708155671,30.0,28.0,20.0,5.0,22.0,5.0,4.0,12.0,10.198039027185569,11.0,31.0,37.0,35.510561809129406
220,220,1.0,70.34912934784623,10.04987562112089,17.11724276862369,17.11724276862369,19.026297590440446,17.46424919657298,44.721359549995796,27.65863337187866,27.0,26.0,19.0,5.5,21.5,4.5,2.5,8.0,7.280109889280518,7.0,30.0,35.0,33.015148038438355
221,221,1.0,70.25667228100119,11.045361017187261,17.029386365926403,18.027756377319946,20.024984394500787,17.46424919657298,45.5411901469428,28.635642126552707,28.0,26.0,20.0,6.0,22.0,4.0,3.0,9.0,8.06225774829855,8.0,29.0,34.0,33.06055050963308
222,222,1.0,70.25667228100119,11.045361017187261,18.027756377319946,19.026297590440446,21.02379604162864,17.26267650163207,46.389654018972806,28.442925306655784,28.0,28.0,22.0,8.0,21.0,3.0,2.0,11.0,11.045361017187261,11.0,22.0,33.0,31.400636936215164
223,223,1.4142135623730951,70.57619995437555,11.0,18.110770276274835,19.1049731745428,21.095023109728988,18.439088914585774,48.507731342539614,30.4138126514911,29.5,31.0,22.0,8.5,21.5,2.5,0.5,11.0,11.40175425099138,11.0,21.0,33.0,29.427877939124322
224,224,8.06225774829855,68.73136110975832,10.04987562112089,16.1245154965971,19.235384061671343,20.223748416156685,17.26267650163207,51.478150704935004,35.35533905932738,31.0,33.0,23.0,11.0,23.0,7.0,4.0,6.082762530298219,6.082762530298219,6.0,20.0,31.0,28.284271247461902
225,225,11.045361017187261,71.84705978674423,9.055385138137417,18.027756377319946,20.223748416156685,21.213203435596427,17.26267650163207,55.326304774492215,37.33630940518894,31.5,36.0,25.0,13.5,24.5,7.5,5.5,4.123105625617661,4.123105625617661,3.5,22.0,34.0,29.274562336608895
226,226,14.035668847618199,72.00694410957877,9.055385138137417,18.027756377319946,20.223748416156685,22.20360331117452,18.439088914585774,59.413803110051795,41.43669871020132,34.0,39.0,27.0,15.0,26.0,9.0,8.0,5.0990195135927845,5.385164807134504,5.0,19.0,32.0,29.154759474226502
227,227,19.026297590440446,71.84705978674423,9.055385138137417,15.132745950421556,20.223748416156685,22.360679774997898,18.439088914585774,61.5223536610881,46.389654018972806,36.5,41.0,30.0,17.5,25.5,10.5,10.5,8.246211251235321,8.246211251235321,8.0,18.0,34.0,31.144823004794873
228,228,19.026297590440446,70.8590149522275,9.055385138137417,15.132745950421556,19.235384061671343,21.37755832643195,18.439088914585774,61.5223536610881,46.389654018972806,36.5,41.0,30.0,17.5,25.5,11.5,10.5,11.045361017187261,10.198039027185569,10.0,19.0,34.0,30.265491900843113
229,229,19.026297590440446,69.05070600652827,9.055385138137417,17.11724276862369,19.4164878389476,20.615528128088304,17.46424919657298,62.51399843235114,45.39823785126467,35.5,41.0,29.0,18.0,27.0,11.0,11.0,11.045361017187261,10.198039027185569,10.5,19.0,33.0,29.274562336608895
230,230,17.029386365926403,69.87131027825369,9.055385138137417,16.1245154965971,19.235384061671343,21.37755832643195,17.46424919657298,59.53990258641679,43.41658669218482,34.5,39.0,28.0,16.5,25.5,10.5,9.5,12.041594578792296,11.180339887498949,11.5,19.0,34.0,30.14962686336267
231,231,13.038404810405298,67.7421582177598,9.055385138137417,15.132745950421556,18.110770276274835,21.213203435596427,17.46424919657298,54.589376255824725,39.45883931389772,32.5,37.0,27.0,15.0,22.0,7.0,7.0,12.041594578792296,12.36931687685298,12.0,19.0,32.0,29.154759474226502
232,232,8.06225774829855,69.58448102845921,10.0,17.11724276862369,19.1049731745428,21.213203435596427,16.278820596099706,51.35172830587107,34.23448553724738,30.0,33.0,24.0,12.5,22.5,5.5,4.5,12.041594578792296,12.165525060596439,12.0,20.0,30.0,29.068883707497267
233,233,7.0710678118654755,69.35416353759881,9.0,16.0312195418814,18.110770276274835,20.223748416156685,17.11724276862369,49.16299421312742,33.13608305156178,29.5,31.0,24.0,10.5,21.5,5.5,2.5,12.0,11.180339887498949,11.0,21.0,29.0,29.068883707497267
234,234,5.0990195135927845,72.17340230306452,9.0,16.0312195418814,18.027756377319946,20.09975124224178,18.027756377319946,48.093658625644196,32.0624390837628,29.5,29.0,24.0,8.5,21.5,5.5,0.5,12.0,12.165525060596439,12.0,23.0,28.0,30.01666203960727
235,235,6.0,71.06335201775947,8.0,16.0312195418814,19.026297590440446,19.1049731745428,18.027756377319946,48.041648597857254,32.01562118716424,29.0,28.0,25.0,8.5,21.5,5.5,1.5,12.041594578792296,11.045361017187261,11.0,25.0,27.0,30.01666203960727
236,236,6.0,70.02856560004639,9.0,16.0,18.027756377319946,20.024984394500787,17.0,48.0,32.0,29.0,26.0,24.0,8.0,23.0,7.0,0.0,13.038404810405298,12.041594578792296,12.0,26.0,25.0,29.017236257093817
237,237,7.0710678118654755,70.0,8.0,15.0,19.0,20.024984394500787,17.029386365926403,47.042533945356304,32.0624390837628,28.5,25.0,25.0,8.0,22.0,6.0,1.0,13.038404810405298,12.041594578792296,12.5,23.0,21.0,30.066592756745816
238,238,8.0,68.0294054067798,8.06225774829855,17.029386365926403,18.027756377319946,20.0,17.029386365926403,50.08991914547278,33.06055050963308,29.0,24.0,26.0,8.0,25.0,8.0,0.0,12.041594578792296,12.0,12.0,27.0,21.0,30.066592756745816
239,239,3.0,65.12296062065974,9.055385138137417,17.029386365926403,17.029386365926403,19.0,18.027756377319946,47.095647357266465,30.066592756745816,28.5,23.0,27.0,7.0,22.0,4.0,2.0,13.152946437965905,11.0,11.5,28.0,22.0,30.066592756745816
240,240,1.0,65.12296062065974,8.06225774829855,16.0312195418814,15.033296378372908,17.029386365926403,19.026297590440446,44.10215414239989,28.071337695236398,27.5,22.0,26.0,5.0,20.0,3.0,3.0,12.165525060596439,12.0,12.0,30.0,22.0,29.068883707497267
241,241,3.0,63.198101237299845,7.0,16.0312195418814,15.033296378372908,17.029386365926403,19.1049731745428,45.09988913511872,29.068883707497267,27.5,22.0,27.0,5.5,20.5,2.5,1.5,12.165525060596439,11.045361017187261,12.0,29.0,21.0,29.154759474226502
242,242,8.06225774829855,64.19501538281614,6.0,15.033296378372908,14.035668847618199,16.0312195418814,18.110770276274835,47.16990566028302,32.14031735997639,28.0,23.0,28.0,7.5,21.5,5.5,1.5,12.165525060596439,11.0,11.5,30.0,21.0,28.160255680657446
243,243,4.0,60.207972893961475,7.0710678118654755,16.0312195418814,14.035668847618199,16.0,20.024984394500787,47.095647357266465,31.064449134018133,29.0,24.0,29.0,6.5,20.5,3.5,0.5,12.165525060596439,12.0,12.0,30.0,20.0,28.071337695236398
244,244,2.0,61.29437168288782,8.06225774829855,16.0312195418814,14.035668847618199,16.0312195418814,20.09975124224178,46.17358552246078,30.14962686336267,29.0,23.0,29.0,6.0,20.0,3.0,2.0,12.165525060596439,12.0,12.0,30.0,20.0,27.073972741361768
245,245,4.0,61.29437168288782,8.06225774829855,17.11724276862369,14.142135623730951,16.0312195418814,20.09975124224178,49.25444142409901,32.14031735997639,30.0,24.0,30.0,7.0,22.0,4.0,1.0,12.36931687685298,11.0,11.0,30.0,21.0,29.154759474226502
246,246,14.035668847618199,62.20128616033595,6.082762530298219,16.0312195418814,15.132745950421556,18.027756377319946,17.11724276862369,53.23532661682466,37.21558813185679,30.0,25.0,30.0,10.5,25.5,8.5,3.5,12.165525060596439,11.0,11.0,30.0,20.0,29.154759474226502
247,247,12.041594578792296,61.29437168288782,6.082762530298219,17.029386365926403,16.1245154965971,18.110770276274835,15.033296378372908,50.15974481593781,33.13608305156178,27.0,25.0,31.0,13.0,22.0,3.0,6.0,12.36931687685298,11.0,12.0,31.0,20.0,29.154759474226502
248,248,12.041594578792296,61.29437168288782,6.082762530298219,17.11724276862369,16.1245154965971,18.027756377319946,15.033296378372908,50.24937810560445,33.13608305156178,27.0,25.0,31.0,13.0,22.0,3.0,6.0,13.152946437965905,12.0,12.0,30.0,20.0,28.160255680657446
249,249,11.045361017187261,61.204574992397426,5.0990195135927845,17.029386365926403,16.1245154965971,17.029386365926403,16.0,49.09175083453431,32.0624390837628,26.5,25.0,30.0,11.5,21.5,3.5,5.5,12.165525060596439,11.0,11.0,33.0,23.0,28.160255680657446
250,250,10.0,60.207972893961475,6.082762530298219,16.0312195418814,15.132745950421556,17.029386365926403,15.033296378372908,47.095647357266465,31.064449134018133,26.0,24.0,29.0,11.5,20.5,3.5,4.5,12.165525060596439,12.0,12.0,32.0,22.0,29.068883707497267
251,251,10.04987562112089,61.07372593840988,7.0710678118654755,15.0,16.0312195418814,17.029386365926403,14.0,46.04345773288535,31.064449134018133,26.0,25.0,28.0,12.5,19.5,2.5,5.5,13.038404810405298,12.0,12.5,29.0,22.0,29.068883707497267
252,252,8.06225774829855,65.06919393998976,7.0710678118654755,16.0,17.029386365926403,19.026297590440446,15.0,46.04345773288535,30.066592756745816,26.0,25.0,28.0,11.5,19.5,2.5,4.5,13.038404810405298,12.0,12.5,28.0,22.0,29.017236257093817
253,253,8.06225774829855,64.07027391856539,7.0,16.0,17.029386365926403,18.027756377319946,15.0,46.010868281309364,30.01666203960727,26.0,25.0,28.0,11.5,19.5,2.5,4.5,13.152946437965905,12.0,12.0,26.0,21.0,29.017236257093817
254,254,10.04987562112089,66.03029607687671,7.0,16.0,17.029386365926403,18.027756377319946,14.035668847618199,47.042533945356304,31.064449134018133,26.0,27.0,29.0,14.0,19.0,2.0,7.0,12.041594578792296,12.041594578792296,12.0,27.0,23.0,29.017236257093817
255,255,12.0,66.007575322837,7.0710678118654755,15.0,17.029386365926403,19.026297590440446,13.0,47.01063709417264,32.01562118716424,26.0,27.0,28.0,14.5,19.5,3.5,7.5,13.038404810405298,13.038404810405298,13.0,28.0,23.0,29.017236257093817
256,256,13.0,66.007575322837,6.0,16.0312195418814,17.0,19.0,13.0,48.010415536631214,32.0,25.5,27.0,28.0,14.5,20.5,4.5,8.5,13.038404810405298,12.0,12.5,28.0,26.0,29.0
257,257,13.038404810405298,65.0,7.0,16.0,17.0,19.0,13.038404810405298,49.0,33.0,26.5,28.0,28.0,15.0,21.0,4.0,8.0,12.041594578792296,11.045361017187261,11.5,26.0,26.0,29.017236257093817
258,258,11.0,65.00769185258002,7.0,16.0,17.0,19.0,14.0,48.0,32.0,26.5,29.0,28.0,14.5,19.5,2.5,7.5,14.035668847618199,13.038404810405298,13.0,25.0,27.0,29.068883707497267
259,259,7.0710678118654755,63.0317380372777,9.0,17.0,16.0312195418814,18.027756377319946,16.0,49.01020301937138,32.01562118716424,28.5,30.0,28.0,13.0,20.0,2.0,5.0,13.0,12.041594578792296,12.5,25.0,28.0,28.071337695236398
260,260,3.0,65.06919393998976,10.04987562112089,19.026297590440446,17.029386365926403,18.027756377319946,17.0,49.040799340956916,30.01666203960727,28.5,30.0,27.0,11.5,20.5,0.5,2.5,13.0,12.041594578792296,12.0,24.0,28.0,29.154759474226502
261,261,3.1622776601683795,65.03076195155643,10.0,19.0,16.0,19.0,17.0,49.01020301937138,30.01666203960727,28.5,30.0,28.0,12.0,20.0,1.0,2.0,13.0,13.152946437965905,12.5,25.0,30.0,28.160255680657446
262,262,3.0,66.007575322837,11.0,18.027756377319946,17.029386365926403,19.0,16.0312195418814,48.041648597857254,30.01666203960727,28.5,29.0,28.0,12.5,19.5,0.5,2.5,13.0,13.038404810405298,12.5,24.0,28.0,30.066592756745816
263,263,3.0,63.0317380372777,11.0,19.026297590440446,17.029386365926403,18.027756377319946,16.0,49.01020301937138,30.0,28.5,31.0,29.0,14.0,19.0,1.0,4.0,13.038404810405298,13.152946437965905,13.5,25.0,28.0,30.066592756745816
264,264,4.0,67.02984409947557,11.0,17.029386365926403,17.0,19.026297590440446,16.0312195418814,48.041648597857254,31.016124838541646,29.0,30.0,28.0,13.0,19.0,1.0,3.0,13.0,13.038404810405298,13.0,24.0,27.0,29.017236257093817
265,265,4.0,68.0294054067798,11.0,19.0,18.0,20.0,16.0,50.0,31.0,29.0,31.0,29.0,14.0,20.0,0.0,4.0,13.038404810405298,12.041594578792296,12.5,26.0,28.0,30.0
266,266,5.0990195135927845,67.0,11.0,18.027756377319946,18.0,19.0,16.0312195418814,50.00999900019995,32.0,29.5,30.0,30.0,14.0,20.0,1.0,4.0,12.041594578792296,12.041594578792296,12.5,26.0,28.0,30.01666203960727
267,267,6.0,68.00735254367721,10.0,18.0,18.027756377319946,19.026297590440446,16.0,50.0,32.0,29.0,31.0,30.0,14.5,19.5,0.5,4.5,12.041594578792296,12.041594578792296,12.5,29.0,28.0,31.0
268,268,6.082762530298219,68.0294054067798,10.0,19.026297590440446,17.029386365926403,19.026297590440446,15.0,50.0,31.016124838541646,28.0,29.0,31.0,15.0,20.0,0.0,5.0,13.038404810405298,12.041594578792296,13.0,29.0,27.0,30.0
269,269,8.0,68.00735254367721,9.0,17.029386365926403,17.0,19.026297590440446,16.0,50.00999900019995,33.0,29.0,30.0,31.0,14.5,19.5,0.5,5.5,12.041594578792296,12.041594578792296,12.0,28.0,26.0,28.0
270,270,9.055385138137417,68.00735254367721,9.0,18.027756377319946,17.0,20.09975124224178,16.0312195418814,52.009614495783374,34.0,29.5,30.0,31.0,14.5,21.5,2.5,5.5,8.06225774829855,7.0,7.0,27.0,25.0,28.0
271,271,13.0,68.0294054067798,8.0,17.029386365926403,18.0,19.026297590440446,16.0,54.00925846556311,37.0,30.5,30.0,32.0,15.0,23.0,4.0,7.0,7.0,7.0710678118654755,7.0,27.0,26.0,28.0
272,272,9.0,69.00724599634447,9.0,17.0,18.027756377319946,20.024984394500787,16.0,51.0,34.0,29.5,30.0,31.0,14.5,20.5,2.5,5.5,9.055385138137417,9.0,9.0,28.0,27.0,31.016124838541646
273,273,8.0,68.00735254367721,9.0,18.0,17.029386365926403,19.026297590440446,16.0312195418814,51.0098029794274,33.015148038438355,29.0,30.0,31.0,14.5,20.5,1.5,5.5,11.0,10.04987562112089,10.0,26.0,27.0,29.017236257093817
274,274,8.0,69.0,9.0,18.0,18.0,20.024984394500787,16.0312195418814,51.0098029794274,33.015148038438355,29.0,30.0,30.0,14.0,21.0,2.0,6.0,11.0,11.045361017187261,11.5,28.0,29.0,31.0
275,275,8.0,70.02856560004639,10.04987562112089,17.0,17.029386365926403,19.0,16.0312195418814,51.03920062069938,34.058772731852805,30.0,32.0,30.0,15.0,20.0,2.0,6.0,12.041594578792296,11.0,11.5,32.0,32.0,33.015148038438355
276,276,4.0,67.00746227100382,11.0,18.027756377319946,17.0,19.0,19.026297590440446,52.03844732503075,34.0147027033899,32.0,31.0,30.0,11.5,21.5,2.5,1.5,13.038404810405298,12.041594578792296,12.5,27.0,30.0,32.0
277,277,2.23606797749979,64.00781202322104,12.0,18.0,16.0,18.0,20.09975124224178,52.08646657242167,34.132096331752024,33.0,33.0,32.0,12.5,19.5,0.5,1.5,12.0,12.041594578792296,12.0,30.0,32.0,33.0
278,278,1.0,65.12296062065974,12.041594578792296,18.0,16.0,18.0,22.090722034374522,53.08483775994799,35.12833614050059,34.5,35.0,31.0,11.0,20.0,1.0,0.0,12.041594578792296,12.041594578792296,12.5,35.0,34.0,35.014282800023196
279,279,2.23606797749979,66.06814663663572,13.0,19.0,16.0,18.0,20.09975124224178,54.08326913195984,35.12833614050059,34.0,33.0,30.0,11.5,22.5,2.5,0.5,12.041594578792296,11.180339887498949,11.5,35.0,35.0,35.0
280,280,6.082762530298219,69.06518659932803,11.0,18.0,18.027756377319946,20.0,20.09975124224178,55.08175741568164,37.12142238654117,34.0,33.0,30.0,11.5,23.5,4.5,1.5,12.041594578792296,12.165525060596439,12.5,34.0,34.0,34.0147027033899
281,281,11.0,72.06247289678588,9.0,17.029386365926403,19.0,21.0,18.110770276274835,55.08175741568164,38.05259518088089,32.5,32.0,29.0,12.5,24.5,6.5,3.5,12.041594578792296,11.045361017187261,11.5,34.0,32.0,37.013511046643494
282,282,10.04987562112089,76.10519036176179,9.0,18.0,20.024984394500787,22.02271554554524,17.11724276862369,54.08326913195984,36.124783736376884,31.0,30.0,26.0,11.0,26.0,7.0,3.0,13.038404810405298,12.041594578792296,12.0,34.0,32.0,36.013886210738214
283,283,11.0,79.05694150420949,9.055385138137417,17.0,21.02379604162864,22.02271554554524,17.029386365926403,54.037024344425184,37.05401462729781,31.5,29.0,26.0,10.5,26.5,8.5,2.5,13.038404810405298,11.045361017187261,11.5,34.0,31.0,36.05551275463989
284,284,12.0,80.02499609497022,9.0,17.029386365926403,20.0,23.0,17.029386365926403,55.036351623268054,38.01315561749642,32.0,29.0,27.0,11.0,27.0,10.0,2.0,13.038404810405298,12.041594578792296,12.0,35.0,32.0,37.013511046643494
285,285,9.055385138137417,79.02531240052139,10.0,17.0,21.0,23.021728866442675,17.11724276862369,53.08483775994799,36.124783736376884,31.5,28.0,26.0,10.0,26.0,8.0,1.0,12.041594578792296,12.041594578792296,12.0,34.0,30.0,35.05709628591621
286,286,9.055385138137417,79.00632886041473,9.0,17.0,20.0,23.0,18.027756377319946,53.03772242470448,36.05551275463989,31.5,28.0,27.0,9.5,25.5,8.5,1.5,12.165525060596439,11.045361017187261,11.5,36.0,31.0,35.014282800023196
287,287,12.041594578792296,79.00632886041473,8.0,17.0,21.02379604162864,22.0,17.029386365926403,54.037024344425184,37.05401462729781,31.0,27.0,26.0,9.5,27.5,9.5,2.5,12.041594578792296,11.045361017187261,11.5,32.0,29.0,36.124783736376884
288,288,17.0,79.00632886041473,7.0,16.0312195418814,21.02379604162864,23.0,18.110770276274835,58.077534382926416,42.04759208325728,33.5,28.0,27.0,9.5,30.5,13.5,4.5,6.0,5.0,5.5,29.0,29.0,32.01562118716424
289,289,18.027756377319946,78.02563681252464,6.0,15.0,21.02379604162864,22.0,17.11724276862369,56.08029957123981,41.10960958218893,32.0,28.0,26.0,10.0,29.0,13.0,5.0,4.0,4.0,3.5,26.0,27.0,29.0
290,290,17.0,75.05997601918082,6.0,14.035668847618199,20.0,21.0,16.1245154965971,53.08483775994799,39.05124837953327,30.5,28.0,25.0,10.5,26.5,10.5,5.5,3.0,4.0,3.5,32.0,30.0,33.06055050963308
291,291,15.033296378372908,73.00684899377592,6.0,16.0,20.0,21.0,16.1245154965971,53.08483775994799,37.12142238654117,29.5,27.0,26.0,10.5,26.5,9.5,5.5,5.0,6.0,6.0,32.0,30.0,35.05709628591621
292,292,15.033296378372908,70.00714249274856,5.0,15.0,19.0,21.0,16.1245154965971,51.088159097779204,36.124783736376884,28.5,27.0,26.0,10.5,24.5,8.5,5.5,9.055385138137417,8.06225774829855,8.0,35.0,31.0,34.0147027033899
293,293,14.0,71.02816342831905,6.0,15.033296378372908,18.0,20.0,16.0312195418814,51.03920062069938,36.013886210738214,29.0,28.0,26.0,11.0,24.0,8.0,5.0,11.045361017187261,10.04987562112089,9.5,36.0,33.0,35.0
294,294,13.0,70.02856560004639,7.0,16.0312195418814,19.0,21.02379604162864,15.033296378372908,51.03920062069938,35.014282800023196,28.5,28.0,26.0,12.0,24.0,7.0,5.0,11.045361017187261,11.045361017187261,10.5,36.0,34.0,35.014282800023196
295,295,13.0,71.02816342831905,7.0,16.0312195418814,19.026297590440446,21.0,15.033296378372908,51.03920062069938,35.014282800023196,28.5,28.0,26.0,12.0,24.0,7.0,6.0,11.045361017187261,10.198039027185569,10.5,36.0,36.0,35.014282800023196
296,296,12.0,70.02856560004639,7.0710678118654755,16.0,18.0,20.0,16.0312195418814,51.03920062069938,35.05709628591621,29.0,28.0,26.0,11.0,24.0,7.0,4.0,12.041594578792296,10.198039027185569,10.5,35.0,35.0,35.014282800023196
297,297,10.0,70.02856560004639,8.0,16.0312195418814,18.027756377319946,20.0,16.0312195418814,50.039984012787215,34.0147027033899,29.0,27.0,25.0,10.0,24.0,7.0,3.0,11.045361017187261,11.045361017187261,11.0,35.0,36.0,34.058772731852805
298,298,9.0,71.02816342831905,9.0,17.029386365926403,18.0,21.02379604162864,16.0312195418814,51.03920062069938,34.0147027033899,29.5,27.0,25.0,10.0,25.0,7.0,1.0,12.165525060596439,11.045361017187261,11.0,36.0,33.0,35.014282800023196
299,299,7.0710678118654755,70.00714249274856,10.0,18.0,18.0,20.0,17.029386365926403,52.03844732503075,34.058772731852805,30.5,27.0,26.0,9.5,25.5,6.5,0.5,12.041594578792296,12.041594578792296,12.0,37.0,37.0,35.05709628591621
300,300,7.0710678118654755,69.00724599634447,11.0,18.0,18.027756377319946,20.0,19.1049731745428,55.08175741568164,37.12142238654117,33.5,30.0,29.0,10.5,25.5,6.5,1.5,12.041594578792296,12.041594578792296,12.0,37.0,37.0,34.0147027033899
301,301,12.0,69.00724599634447,11.0,17.029386365926403,18.027756377319946,21.0,20.09975124224178,60.07495318350236,43.04648650006177,37.0,33.0,32.0,12.5,27.5,8.5,2.5,13.038404810405298,12.041594578792296,12.0,37.0,35.0,36.0
302,302,14.035668847618199,67.00746227100382,11.0,17.0,18.0,20.0,21.095023109728988,63.071388124885914,46.09772228646444,39.0,35.0,34.0,13.5,28.5,9.5,3.5,12.041594578792296,11.0,11.5,34.0,33.0,34.058772731852805
303,303,16.0,67.00746227100382,9.0,15.0,18.027756377319946,19.026297590440446,22.02271554554524,62.00806399170998,47.01063709417264,39.0,35.0,34.0,12.5,27.5,11.5,4.5,11.045361017187261,10.04987562112089,10.5,26.0,28.0,30.0
304,304,16.0,65.03076195155643,7.0,14.0,17.029386365926403,20.024984394500787,24.020824298928627,61.00819617067857,47.01063709417264,39.0,36.0,34.0,11.0,26.0,11.0,5.0,6.0,6.082762530298219,6.0,28.0,30.0,30.0
305,305,11.0,64.00781202322104,7.0,13.038404810405298,16.0,17.029386365926403,25.0,56.00892785976178,43.0,37.5,34.0,33.0,8.5,22.5,8.5,2.5,5.0,5.0990195135927845,5.0,27.0,27.0,27.018512172212592
306,306,3.1622776601683795,56.0,5.0990195135927845,7.0710678118654755,15.033296378372908,15.033296378372908,10.0,25.019992006393608,18.0,16.5,16.0,16.0,6.0,9.0,1.0,1.0,6.0,6.082762530298219,6.0,29.0,25.0,27.0
307,307,1.0,65.0,7.0,11.0,14.0,15.0,27.0,46.0,35.0,34.5,31.0,31.0,4.0,15.0,3.0,2.0,7.0,7.0,7.5,33.0,30.0,28.071337695236398
308,308,2.23606797749979,69.00724599634447,8.0,13.038404810405298,14.0,16.0312195418814,26.0,49.0,36.013886210738214,35.0,31.0,30.0,4.5,18.5,5.5,2.5,9.055385138137417,8.0,8.0,39.0,35.0,33.06055050963308
309,309,10.04987562112089,68.00735254367721,12.0,17.0,16.0,18.027756377319946,18.027756377319946,57.0350769263968,40.049968789001575,35.0,31.0,30.0,12.5,26.5,9.5,0.5,9.055385138137417,9.055385138137417,9.0,41.0,37.0,31.0
310,310,15.0,76.00657866263946,10.04987562112089,18.0,20.0,22.02271554554524,14.035668847618199,57.0350769263968,39.05124837953327,31.5,26.0,25.0,11.5,31.5,13.5,1.5,9.055385138137417,10.04987562112089,9.5,29.0,26.0,31.064449134018133
311,311,17.029386365926403,80.02499609497022,10.0,16.0,21.02379604162864,23.021728866442675,14.035668847618199,57.0350769263968,41.048751503547585,32.5,25.0,23.0,10.0,33.0,17.0,1.0,9.0,8.06225774829855,8.0,31.0,25.0,32.2490309931942
312,312,16.0,86.02325267042627,10.0,16.0,21.0,23.08679276123039,13.0,55.0,39.0,31.0,22.0,20.0,8.0,34.0,18.0,1.0,9.055385138137417,9.219544457292887,9.0,32.0,31.0,32.0624390837628
313,313,16.0,90.0222194794152,9.0,15.0,23.021728866442675,25.019992006393608,14.0,54.0,39.0,31.0,21.0,19.0,6.0,34.0,19.0,2.0,7.0710678118654755,8.06225774829855,8.0,36.0,34.0,36.013886210738214
314,314,13.0,90.0499861188218,9.0,16.0,24.020824298928627,25.079872407968907,15.033296378372908,53.009433122794285,37.013511046643494,30.5,21.0,18.0,4.5,33.5,16.5,2.5,4.123105625617661,5.0990195135927845,4.5,29.0,28.0,34.0
315,315,18.0,90.00555538409837,8.0,16.0,24.020824298928627,26.019223662515376,15.132745950421556,57.0350769263968,41.048751503547585,32.0,19.0,18.0,3.5,38.5,20.5,2.5,2.23606797749979,3.0,2.5,24.0,23.0,30.01666203960727
316,316,19.0,87.0,7.0,16.0,23.021728866442675,25.0,14.142135623730951,56.0357029044876,40.049968789001575,30.5,19.0,19.0,5.0,37.0,19.0,1.0,2.0,1.0,1.5,27.0,26.0,30.01666203960727
317,317,15.0,78.02563681252464,8.0,15.0,19.0,21.02379604162864,14.035668847618199,52.009614495783374,37.013511046643494,29.5,20.0,22.0,7.0,31.0,14.0,1.0,3.0,3.0,2.5,37.0,40.0,33.06055050963308
318,318,7.0,69.06518659932803,8.0,15.0,17.029386365926403,19.1049731745428,14.035668847618199,44.01136216933077,29.017236257093817,25.5,19.0,22.0,6.5,23.5,6.5,1.5,3.1622776601683795,3.0,2.5,37.0,37.0,30.066592756745816
319,319,9.055385138137417,67.26812023536856,9.0,15.0,16.0312195418814,18.24828759089466,12.0,45.0111097397076,30.01666203960727,25.5,18.0,24.0,9.0,24.0,7.0,0.0,3.1622776601683795,3.1622776601683795,2.5,36.0,34.0,30.01666203960727
320,320,13.0,64.4980619863884,9.0,16.0312195418814,15.297058540778355,16.278820596099706,12.0,50.00999900019995,34.0,27.5,19.0,27.0,11.0,27.0,9.0,1.0,3.0,4.123105625617661,3.5,38.0,33.0,29.017236257093817
321,321,17.0,64.77653896280658,8.0,13.038404810405298,16.492422502470642,17.46424919657298,11.0,49.01020301937138,36.0,27.5,18.0,28.0,12.0,26.0,9.0,2.0,3.0,4.123105625617661,3.5,36.0,30.0,26.076809620810597
322,322,17.029386365926403,63.34824385884742,8.0,13.152946437965905,15.524174696260024,17.72004514666935,12.041594578792296,50.039984012787215,37.0,28.5,18.0,31.0,12.5,25.5,8.5,3.5,4.123105625617661,5.385164807134504,4.0,40.0,29.0,24.331050121192877
323,323,18.110770276274835,64.76109943476871,6.0,13.038404810405298,16.76305461424021,17.08800749063506,12.0,49.09175083453431,36.05551275463989,27.0,17.0,32.0,12.5,24.5,6.5,3.5,4.47213595499958,6.324555320336759,5.5,40.0,26.0,23.53720459187964
324,324,20.09975124224178,61.032778078668514,5.0990195135927845,13.152946437965905,15.231546211727817,17.46424919657298,12.041594578792296,50.15974481593781,37.05401462729781,27.0,14.0,33.0,11.5,26.5,8.5,3.5,3.605551275463989,5.385164807134504,3.5,41.0,18.0,24.041630560342615
325,325,18.110770276274835,62.96824596572466,6.082762530298219,13.341664064126334,14.7648230602334,17.0,11.045361017187261,48.507731342539614,35.22782990761707,26.0,13.0,35.0,13.0,24.0,6.0,4.0,3.605551275463989,5.385164807134504,3.5,44.0,22.0,27.202941017470888
326,326,2.23606797749979,67.08203932499369,5.0990195135927845,13.152946437965905,15.524174696260024,17.46424919657298,18.027756377319946,37.48332962798263,24.331050121192877,23.5,12.0,24.0,0.0,19.0,3.0,6.0,8.246211251235321,8.06225774829855,8.0,31.0,21.0,23.53720459187964
327,327,10.44030650891055,68.41052550594829,7.0710678118654755,12.36931687685298,17.72004514666935,18.681541692269406,14.866068747318506,44.64302857109943,32.28002478313795,26.0,10.0,28.0,5.0,24.0,8.0,4.0,3.605551275463989,4.47213595499958,4.5,36.0,18.0,24.73863375370596
328,328,17.26267650163207,68.4470598345904,5.385164807134504,13.601470508735444,17.88854381999832,19.72308292331602,12.165525060596439,48.27007354458868,34.713109915419565,25.5,9.0,38.0,11.5,23.5,5.5,1.5,3.605551275463989,3.605551275463989,1.5,48.0,19.0,30.364452901377952
329,329,14.560219778561036,66.2117814289874,5.385164807134504,13.0,17.0,19.72308292331602,13.601470508735444,46.486557196677836,33.52610922848042,25.0,9.0,37.0,10.0,21.0,3.0,1.0,5.0,5.656854249492381,3.0,50.0,18.0,32.57299494980466
330,330,9.486832980505138,66.30987860040162,6.708203932499369,14.866068747318506,16.55294535724685,18.35755975068582,15.811388300841896,46.8187996428785,31.953090617340916,25.5,10.0,36.0,8.0,21.0,3.0,1.0,5.0,5.656854249492381,3.5,51.0,18.0,32.89376840679705
331,331,3.605551275463989,63.324560795950255,9.219544457292887,16.492422502470642,16.15549442140351,17.46424919657298,16.76305461424021,45.221676218380054,28.792360097775937,26.0,11.0,34.0,6.5,20.5,0.5,4.5,5.656854249492381,5.656854249492381,4.0,49.0,17.0,34.785054261852174
332,332,2.23606797749979,62.625873247404705,10.198039027185569,17.72004514666935,15.811388300841896,18.027756377319946,16.76305461424021,46.17358552246078,28.460498941515414,26.5,11.0,32.0,5.5,22.5,1.5,6.5,4.47213595499958,5.0,2.5,50.0,17.0,34.785054261852174
333,333,3.605551275463989,63.56886030125127,10.198039027185569,18.439088914585774,16.492422502470642,18.681541692269406,16.76305461424021,48.08326112068523,29.732137494637012,27.0,11.0,32.0,5.5,24.5,3.5,6.5,5.0,5.0,4.0,49.0,18.0,33.52610922848042
334,334,9.486832980505138,64.5600495662759,9.486832980505138,16.492422502470642,17.72004514666935,19.6468827043885,14.866068747318506,50.28916384272063,33.83784863137726,27.5,12.0,30.0,7.0,27.0,8.0,4.0,3.1622776601683795,3.605551275463989,2.0,50.0,19.0,32.89376840679705
335,335,15.524174696260024,65.0,7.280109889280518,16.492422502470642,17.72004514666935,20.396078054371138,14.7648230602334,53.75872022286245,37.33630940518894,27.5,13.0,29.0,8.0,30.0,12.0,1.0,3.605551275463989,4.242640687119285,3.0,49.0,21.0,30.364452901377952
336,336,18.439088914585774,69.63476143421474,6.324555320336759,14.560219778561036,18.439088914585774,20.396078054371138,15.264337522473747,54.08326913195984,39.56008088970496,28.0,12.0,27.0,6.5,31.5,14.5,1.5,4.242640687119285,5.0,4.0,48.0,22.0,31.622776601683793
337,337,17.46424919657298,71.58910531638176,6.324555320336759,15.524174696260024,18.439088914585774,20.223748416156685,15.620499351813308,53.85164807134504,38.48376280978771,26.5,10.0,25.0,5.5,32.5,15.5,1.5,3.605551275463989,4.242640687119285,3.5,49.0,24.0,27.202941017470888
338,338,14.317821063276353,70.21395872616783,6.324555320336759,14.560219778561036,16.278820596099706,19.1049731745428,15.0,49.39635614091387,34.92849839314596,25.0,9.0,22.0,3.5,30.5,15.5,3.5,4.242640687119285,4.47213595499958,4.0,47.0,25.0,27.892651361962706
339,339,13.341664064126334,62.96824596572466,6.324555320336759,13.601470508735444,14.142135623730951,16.0312195418814,13.892443989449804,46.8187996428785,33.24154027718932,24.5,11.0,22.0,4.5,27.5,12.5,2.5,6.708203932499369,6.324555320336759,6.5,45.0,24.0,23.769728648009426
340,340,16.1245154965971,59.413803110051795,5.385164807134504,14.560219778561036,12.041594578792296,15.0,13.038404810405298,48.38388161361178,33.83784863137726,24.0,12.0,19.0,4.5,30.5,16.5,0.5,8.246211251235321,8.246211251235321,8.0,47.0,29.0,22.360679774997898
341,341,15.132745950421556,56.22277118748239,5.0990195135927845,14.317821063276353,10.0,13.038404810405298,13.416407864998739,47.53945729601885,33.24154027718932,24.5,16.0,21.0,6.5,27.5,13.5,1.5,10.198039027185569,11.0,11.0,43.0,29.0,21.095023109728988
342,342,13.038404810405298,59.00847396772772,6.324555320336759,14.142135623730951,12.041594578792296,15.033296378372908,14.560219778561036,47.853944456021594,33.734255586866,26.5,20.0,21.0,6.5,26.5,13.5,1.5,10.198039027185569,10.0,10.0,42.0,31.0,24.08318915758459
343,343,10.04987562112089,59.00847396772772,7.0710678118654755,16.1245154965971,12.0,14.035668847618199,15.132745950421556,48.373546489791295,32.2490309931942,27.0,23.0,24.0,8.5,24.5,9.5,1.5,10.04987562112089,11.045361017187261,10.5,42.0,33.0,28.0178514522438
344,344,10.0,61.00819617067857,8.06225774829855,15.033296378372908,14.035668847618199,17.11724276862369,15.297058540778355,48.25971404805462,33.24154027718932,28.0,25.0,24.0,9.5,23.5,8.5,2.5,10.04987562112089,9.0,9.5,39.0,34.0,30.0
345,345,12.0,63.0317380372777,8.06225774829855,15.0,17.11724276862369,19.1049731745428,15.033296378372908,50.039984012787215,35.05709628591621,29.0,26.0,24.0,10.0,25.0,11.0,4.0,10.04987562112089,10.0,10.0,39.0,35.0,31.016124838541646
346,346,15.0,67.06713054842886,8.0,15.0,17.029386365926403,20.09975124224178,15.0,53.0,38.0,30.5,27.0,24.0,10.5,27.5,12.5,3.5,11.045361017187261,11.180339887498949,11.0,38.0,37.0,32.01562118716424
347,347,16.0,67.11929677819934,9.0,16.0,17.029386365926403,20.09975124224178,14.0,55.0,39.0,31.0,28.0,24.0,12.0,29.0,13.0,4.0,11.180339887498949,11.045361017187261,11.0,37.0,36.0,34.0147027033899
348,348,17.029386365926403,66.03029607687671,9.0,17.029386365926403,18.0,21.02379604162864,15.0,58.034472514187634,41.012193308819754,32.5,29.0,27.0,13.0,30.0,13.0,4.0,11.045361017187261,12.165525060596439,11.5,39.0,38.0,35.014282800023196
349,349,18.027756377319946,67.0,9.055385138137417,17.0,18.0,20.024984394500787,16.0,60.03332407921454,43.04648650006177,34.0,30.0,30.0,14.0,30.0,13.0,5.0,11.045361017187261,11.045361017187261,11.5,38.0,37.0,33.0
350,350,17.0,68.0,9.055385138137417,16.0312195418814,18.0,22.02271554554524,15.0,57.0350769263968,41.012193308819754,32.5,29.0,29.0,14.0,28.0,11.0,5.0,11.180339887498949,11.045361017187261,11.5,39.0,35.0,33.0
351,351,12.041594578792296,71.02816342831905,8.0,17.0,18.0,21.0,16.0,53.009433122794285,36.013886210738214,30.0,25.0,27.0,10.0,27.0,9.0,2.0,11.045361017187261,10.04987562112089,10.5,38.0,34.0,32.0624390837628
352,352,12.041594578792296,76.02631123499285,8.0,17.029386365926403,19.026297590440446,21.0,15.033296378372908,52.08646657242167,35.05709628591621,29.0,23.0,25.0,9.0,28.0,10.0,1.0,10.198039027185569,10.04987562112089,10.0,38.0,33.0,33.015148038438355
353,353,13.152946437965905,77.10382610480494,8.0,17.029386365926403,20.024984394500787,22.0,15.132745950421556,53.23532661682466,36.22154055254967,29.5,21.0,25.0,8.0,30.0,12.0,0.0,10.198039027185569,11.045361017187261,11.0,39.0,33.0,33.06055050963308
354,354,16.1245154965971,80.09993757800315,8.0,16.0,21.02379604162864,23.0,14.035668847618199,54.08326913195984,38.118237105091836,30.0,20.0,24.0,8.0,32.0,15.0,0.0,11.180339887498949,11.045361017187261,11.0,39.0,33.0,32.0624390837628
355,355,20.09975124224178,81.09870529176159,8.0,16.0,20.024984394500787,23.0,14.035668847618199,58.077534382926416,42.1070065428546,32.0,20.0,24.0,8.0,36.0,18.0,0.0,10.198039027185569,11.045361017187261,11.0,39.0,32.0,32.0624390837628
356,356,20.024984394500787,83.15046602394962,8.06225774829855,16.0312195418814,22.02271554554524,24.020824298928627,14.142135623730951,58.215118311311535,42.190046219457976,32.0,20.0,25.0,8.5,35.5,18.5,0.5,11.180339887498949,11.045361017187261,11.0,38.0,32.0,32.01562118716424
357,357,19.026297590440446,83.15046602394962,8.06225774829855,16.0312195418814,22.02271554554524,25.0,14.035668847618199,57.14017850864661,41.10960958218893,31.5,19.0,24.0,7.5,35.5,17.5,0.5,11.180339887498949,11.045361017187261,11.0,38.0,32.0,32.0624390837628
358,358,17.11724276862369,83.09632964216891,8.0,16.0,20.024984394500787,23.0,14.035668847618199,55.08175741568164,39.11521443121589,30.5,19.0,23.0,7.0,34.0,17.0,1.0,11.180339887498949,10.04987562112089,10.5,39.0,32.0,32.0624390837628
359,359,15.132745950421556,84.09518416651456,8.0,15.0,22.02271554554524,25.0,16.0312195418814,54.08326913195984,39.11521443121589,31.5,20.0,24.0,6.0,32.0,15.0,1.0,11.180339887498949,11.045361017187261,11.0,39.0,33.0,32.0624390837628
360,360,14.035668847618199,82.09750300709517,8.06225774829855,16.0,21.0,23.021728866442675,15.0,53.03772242470448,37.05401462729781,30.0,19.0,23.0,6.0,32.0,14.0,1.0,11.180339887498949,11.045361017187261,11.0,38.0,33.0,31.016124838541646
361,361,14.035668847618199,81.09870529176159,9.0,15.033296378372908,21.02379604162864,23.0,14.0,52.03844732503075,37.013511046643494,30.0,19.0,23.0,7.0,31.0,14.0,2.0,11.180339887498949,10.04987562112089,10.5,38.0,33.0,32.0624390837628
362,362,10.04987562112089,80.05623023850174,9.0,17.0,21.02379604162864,23.0,15.0,51.0098029794274,34.0147027033899,29.0,19.0,22.0,5.5,30.5,12.5,3.5,11.180339887498949,11.045361017187261,11.5,37.0,32.0,32.0
363,363,4.0,75.05997601918082,11.0,17.029386365926403,18.027756377319946,20.024984394500787,16.0,48.010415536631214,31.0,29.0,20.0,23.0,5.5,26.5,7.5,5.5,9.055385138137417,8.0,8.5,39.0,35.0,32.0
364,364,1.0,75.05997601918082,12.0,17.0,19.0,20.024984394500787,17.029386365926403,46.0,29.0,29.0,21.0,24.0,5.5,23.5,4.5,5.5,3.1622776601683795,4.0,3.5,38.0,31.0,34.0147027033899
365,365,0.0,72.0,11.0,17.0,18.0,19.0,18.0,46.0,29.0,29.0,24.0,24.0,6.0,22.0,3.0,4.0,4.123105625617661,5.0,5.0,38.0,29.0,36.124783736376884
366,366,1.0,72.00694410957877,11.045361017187261,18.0,19.0,21.0,17.029386365926403,46.010868281309364,28.0178514522438,28.0,25.0,24.0,7.5,21.5,2.5,3.5,7.0,7.0,7.0,36.0,28.0,35.35533905932738
367,367,0.0,69.02897942168927,11.045361017187261,17.0,18.027756377319946,19.026297590440446,18.110770276274835,46.010868281309364,29.017236257093817,29.0,26.0,24.0,7.0,21.0,3.0,3.0,9.055385138137417,9.0,9.0,38.0,29.0,35.22782990761707
368,368,1.0,70.11419257183242,12.0,20.0,18.027756377319946,19.026297590440446,16.0312195418814,48.041648597857254,28.071337695236398,28.0,27.0,23.0,9.0,23.0,3.0,2.0,11.045361017187261,10.04987562112089,10.0,27.0,29.0,33.015148038438355
369,369,6.082762530298219,68.3593446428504,9.0,17.0,19.026297590440446,20.09975124224178,17.11724276862369,49.09175083453431,32.14031735997639,29.0,31.0,24.0,10.5,21.5,3.5,2.5,11.0,10.198039027185569,10.0,26.0,29.0,32.0
370,370,15.0,69.35416353759881,8.0,16.1245154965971,19.1049731745428,21.095023109728988,17.11724276862369,56.142675390472796,40.049968789001575,32.5,34.0,27.0,13.5,25.5,9.5,6.5,12.0,10.198039027185569,10.5,23.0,30.0,32.14031735997639
371,371,18.027756377319946,70.45565981523414,7.0710678118654755,16.0312195418814,20.09975124224178,21.213203435596427,17.11724276862369,58.215118311311535,42.190046219457976,33.0,36.0,28.0,15.0,26.0,10.0,9.0,11.0,11.180339887498949,11.0,21.0,31.0,31.144823004794873
372,372,22.02271554554524,70.71067811865476,7.0710678118654755,16.1245154965971,20.09975124224178,22.20360331117452,17.26267650163207,62.39390995922599,46.2709412050371,35.0,38.0,28.0,16.0,29.0,13.0,10.0,11.045361017187261,11.180339887498949,11.0,19.0,32.0,34.132096331752024
373,373,26.019223662515376,71.02112361825881,7.0710678118654755,14.317821063276353,20.223748416156685,22.20360331117452,16.278820596099706,63.50590523722971,49.25444142409901,36.0,40.0,28.0,18.0,29.0,15.0,12.0,12.041594578792296,10.44030650891055,10.5,16.0,34.0,31.400636936215164
374,374,26.019223662515376,68.24954212300622,7.280109889280518,14.317821063276353,19.235384061671343,21.213203435596427,17.26267650163207,64.6297145282261,50.35871324805669,37.0,41.0,28.0,17.5,29.5,15.5,12.5,12.041594578792296,11.40175425099138,11.0,13.0,33.0,34.52535300326414
375,375,27.073972741361768,68.24954212300622,8.246211251235321,14.317821063276353,20.615528128088304,21.37755832643195,16.492422502470642,65.92419889539804,51.62363799656123,37.5,42.0,29.0,19.5,29.5,16.5,14.5,12.165525060596439,11.40175425099138,11.5,16.0,36.0,32.55764119219941
376,376,29.068883707497267,68.4470598345904,7.0710678118654755,13.341664064126334,19.4164878389476,21.37755832643195,16.76305461424021,65.92419889539804,52.61178575186362,37.5,42.0,28.0,19.0,30.0,18.0,15.0,11.180339887498949,10.770329614269007,11.0,15.0,36.0,32.7566787083184
377,377,31.144823004794873,66.49060083951716,6.324555320336759,15.297058540778355,19.6468827043885,21.213203435596427,17.46424919657298,70.03570517957252,54.74486277268398,38.5,41.0,27.0,17.0,35.0,21.0,14.0,5.385164807134504,5.830951894845301,5.0,16.0,38.0,29.832867780352597
378,378,31.144823004794873,66.70832032063167,6.324555320336759,14.317821063276353,18.439088914585774,21.37755832643195,16.492422502470642,68.06614430096654,53.75872022286245,37.5,41.0,26.0,17.5,33.5,19.5,13.5,4.47213595499958,5.0,3.5,16.0,37.0,24.73863375370596
379,379,30.066592756745816,66.70832032063167,6.324555320336759,14.560219778561036,18.439088914585774,21.37755832643195,16.76305461424021,67.26812023536856,52.773099207835045,37.0,40.0,25.0,16.5,33.5,20.5,12.5,4.47213595499958,4.47213595499958,3.5,16.0,39.0,27.892651361962706
380,380,29.068883707497267,66.70832032063167,6.324555320336759,13.341664064126334,18.439088914585774,20.396078054371138,16.76305461424021,65.11528238439882,51.78802950489621,36.5,39.0,24.0,15.5,32.5,19.5,11.5,6.324555320336759,6.708203932499369,6.0,15.0,38.0,28.861739379323623
381,381,26.076809620810597,67.68308503607086,6.324555320336759,14.560219778561036,19.6468827043885,21.37755832643195,17.72004514666935,64.32728814430156,49.8196748283246,36.0,39.0,24.0,14.5,31.5,17.5,11.5,8.246211251235321,8.54400374531753,7.5,22.0,39.0,33.24154027718932
382,382,23.194827009486403,68.65857557508748,7.0710678118654755,14.317821063276353,19.4164878389476,22.360679774997898,17.08800749063506,61.39218191268331,47.07440918375928,34.5,37.0,22.0,13.5,30.5,16.5,9.5,10.04987562112089,9.486832980505138,9.5,24.0,39.0,34.132096331752024
383,383,20.09975124224178,67.91170738539859,6.324555320336759,15.297058540778355,19.6468827043885,22.360679774997898,16.76305461424021,58.249463516842795,42.95346318982906,32.0,36.0,20.0,12.0,29.0,15.0,9.0,11.045361017187261,10.44030650891055,10.5,17.0,38.0,29.832867780352597
384,384,16.1245154965971,67.91170738539859,7.280109889280518,14.560219778561036,18.681541692269406,19.4164878389476,15.524174696260024,53.36665625650534,38.8329756778952,30.0,35.0,19.0,12.0,25.0,11.0,8.0,12.041594578792296,11.704699910719626,11.0,26.0,41.0,34.132096331752024
385,385,11.180339887498949,66.70832032063167,6.082762530298219,14.317821063276353,17.46424919657298,18.681541692269406,16.492422502470642,48.05205510693585,33.734255586866,27.5,33.0,18.0,9.5,21.5,8.5,5.5,12.041594578792296,10.44030650891055,10.5,24.0,38.0,33.13608305156178
386,386,9.055385138137417,68.65857557508748,7.280109889280518,16.278820596099706,17.46424919657298,18.439088914585774,15.524174696260024,48.05205510693585,31.78049716414141,26.5,32.0,17.0,9.5,22.5,7.5,4.5,12.041594578792296,10.770329614269007,10.5,25.0,40.0,36.22154055254967
387,387,9.219544457292887,65.73431371817918,7.0710678118654755,15.297058540778355,16.492422502470642,19.4164878389476,15.811388300841896,47.29693436154187,32.01562118716424,26.5,32.0,17.0,9.5,21.5,7.5,4.5,11.045361017187261,11.704699910719626,11.0,27.0,40.0,34.132096331752024
388,388,9.055385138137417,64.53681120105021,7.0710678118654755,15.297058540778355,17.46424919657298,18.439088914585774,15.524174696260024,46.87216658103186,31.575306807693888,26.5,32.0,18.0,10.0,21.0,7.0,5.0,12.041594578792296,11.40175425099138,11.0,26.0,38.0,35.12833614050059
389,389,8.06225774829855,65.5133574166368,7.280109889280518,15.297058540778355,17.46424919657298,19.4164878389476,16.492422502470642,47.07440918375928,31.78049716414141,27.0,32.0,18.0,9.0,21.0,7.0,4.0,11.045361017187261,10.44030650891055,10.5,27.0,40.0,34.132096331752024
390,390,8.246211251235321,66.49060083951716,7.0710678118654755,15.132745950421556,17.26267650163207,19.4164878389476,16.492422502470642,46.87216658103186,31.78049716414141,27.0,32.0,18.0,9.0,21.0,6.0,4.0,13.0,12.649110640673518,12.0,25.0,38.0,33.13608305156178
391,391,7.0710678118654755,66.2872536767062,7.0710678118654755,16.278820596099706,17.26267650163207,19.235384061671343,15.524174696260024,45.89117562233506,29.614185789921695,25.5,30.0,17.0,8.5,21.5,6.5,3.5,12.0,12.649110640673518,12.0,27.0,38.0,34.132096331752024
392,392,6.082762530298219,68.24954212300622,7.0710678118654755,16.1245154965971,18.24828759089466,19.4164878389476,15.297058540778355,44.553338819890925,28.442925306655784,25.0,30.0,17.0,8.5,20.5,6.5,3.5,12.041594578792296,11.40175425099138,11.0,27.0,37.0,34.058772731852805
393,393,8.246211251235321,70.03570517957252,7.0710678118654755,16.1245154965971,17.46424919657298,19.4164878389476,14.317821063276353,45.70557952810576,29.614185789921695,25.0,30.0,18.0,10.0,21.0,6.0,5.0,11.045361017187261,11.180339887498949,11.0,28.0,45.0,34.713109915419565
394,394,9.055385138137417,70.03570517957252,7.280109889280518,16.1245154965971,18.24828759089466,19.235384061671343,14.317821063276353,46.69047011971501,30.59411708155671,25.5,30.0,18.0,10.0,22.0,7.0,5.0,12.041594578792296,11.40175425099138,11.5,28.0,40.0,34.36568055487916
395,395,11.180339887498949,69.87131027825369,6.082762530298219,15.132745950421556,17.26267650163207,20.223748416156685,15.297058540778355,47.67598976424087,32.55764119219941,26.5,31.0,20.0,10.5,21.5,7.5,6.5,11.045361017187261,11.40175425099138,11.5,26.0,36.0,33.06055050963308
396,396,11.045361017187261,68.73136110975832,7.0710678118654755,15.132745950421556,18.24828759089466,19.235384061671343,14.317821063276353,47.51841748206689,32.38826948140329,26.5,31.0,21.0,12.0,21.0,7.0,7.0,12.041594578792296,11.180339887498949,11.0,27.0,36.0,32.0624390837628
397,397,13.038404810405298,65.62011886609167,7.0,15.132745950421556,17.11724276862369,19.1049731745428,13.341664064126334,48.373546489791295,33.24154027718932,26.5,31.0,22.0,13.5,21.5,6.5,8.5,12.0,12.165525060596439,12.0,27.0,35.0,31.016124838541646
398,398,13.038404810405298,64.4980619863884,7.0710678118654755,15.033296378372908,17.029386365926403,19.1049731745428,13.152946437965905,48.25971404805462,33.24154027718932,26.5,30.0,22.0,13.0,22.0,7.0,7.0,12.041594578792296,12.36931687685298,12.0,29.0,36.0,32.0624390837628
399,399,11.0,64.28063471995279,7.0710678118654755,16.0312195418814,17.029386365926403,18.027756377319946,14.035668847618199,48.093658625644196,32.0624390837628,26.5,31.0,25.0,14.0,20.0,4.0,8.0,12.0,11.045361017187261,11.5,27.0,34.0,31.016124838541646
400,400,9.055385138137417,64.19501538281614,8.0,17.0,16.0312195418814,18.027756377319946,15.132745950421556,49.09175083453431,32.14031735997639,27.5,30.0,25.0,12.5,21.5,4.5,5.5,13.0,11.045361017187261,11.5,30.0,35.0,33.015148038438355
401,401,4.123105625617661,60.13318551349163,10.0,17.0,15.033296378372908,17.029386365926403,16.0312195418814,47.042533945356304,30.066592756745816,28.0,31.0,27.0,13.0,18.0,0.0,4.0,13.0,11.180339887498949,11.5,32.0,32.0,31.064449134018133
402,402,4.0,62.12889826803627,10.04987562112089,17.0,16.0312195418814,18.0,16.0312195418814,47.042533945356304,30.066592756745816,28.0,31.0,27.0,13.0,18.0,0.0,3.0,12.0,11.180339887498949,11.0,34.0,34.0,34.0147027033899
403,403,4.0,63.0317380372777,9.0,18.0,16.0,18.0,17.029386365926403,48.010415536631214,30.01666203960727,28.0,30.0,28.0,12.0,19.0,1.0,3.0,12.0,12.041594578792296,12.0,28.0,30.0,30.01666203960727
404,404,4.0,65.03076195155643,10.0,17.0,17.0,18.0,16.0,47.0,30.0,28.0,30.0,28.0,13.0,18.0,0.0,3.0,12.041594578792296,11.045361017187261,11.5,30.0,30.0,30.01666203960727
405,405,5.0,64.03124237432849,10.0,17.0,16.0,18.0,16.0,48.0,31.0,28.5,31.0,29.0,14.0,18.0,0.0,5.0,12.041594578792296,12.041594578792296,12.0,32.0,30.0,30.066592756745816
406,406,6.0,66.007575322837,10.0,17.0,17.0,19.0,15.033296378372908,48.010415536631214,31.016124838541646,28.0,30.0,29.0,14.5,18.5,0.5,5.5,13.0,12.041594578792296,12.0,27.0,28.0,31.0
407,407,8.0,68.00735254367721,9.055385138137417,18.0,18.027756377319946,20.024984394500787,14.035668847618199,49.0,31.0,27.0,30.0,29.0,15.5,19.5,1.5,6.5,12.0,11.045361017187261,12.0,29.0,28.0,30.01666203960727
408,408,13.0,67.0,8.0,16.0,18.0,20.0,12.041594578792296,49.01020301937138,33.015148038438355,26.5,28.0,28.0,16.0,21.0,4.0,8.0,13.038404810405298,11.045361017187261,11.5,28.0,27.0,30.0
409,409,14.0,69.00724599634447,8.0,17.0,19.026297590440446,20.024984394500787,12.0,51.0,34.0,27.0,29.0,30.0,17.5,21.5,3.5,8.5,12.0,12.041594578792296,12.0,28.0,26.0,30.01666203960727
410,410,16.0312195418814,68.0294054067798,8.0,16.0,18.027756377319946,20.0,12.0,52.009614495783374,36.013886210738214,28.0,29.0,31.0,18.0,22.0,5.0,9.0,13.038404810405298,12.041594578792296,12.5,29.0,26.0,30.01666203960727
411,411,13.0,69.02897942168927,8.0,17.029386365926403,19.026297590440446,21.095023109728988,13.0,51.0098029794274,34.0,27.5,29.0,31.0,17.0,21.0,3.0,9.0,12.041594578792296,12.041594578792296,12.0,28.0,25.0,30.01666203960727
412,412,17.029386365926403,68.06614430096654,8.0,16.0,19.026297590440446,21.02379604162864,13.0,54.00925846556311,38.01315561749642,29.5,29.0,32.0,17.5,23.5,5.5,9.5,12.041594578792296,12.0,11.5,30.0,24.0,33.06055050963308
413,413,17.0,70.06425622241343,8.06225774829855,17.029386365926403,19.026297590440446,21.095023109728988,15.033296378372908,57.0087712549569,40.0,31.5,32.0,35.0,18.5,23.5,5.5,10.5,13.038404810405298,12.041594578792296,12.0,30.0,25.0,30.01666203960727
414,414,20.0,69.18092222571191,8.06225774829855,17.0,18.027756377319946,20.024984394500787,15.0,60.00833275470999,43.01162633521314,33.0,32.0,37.0,19.5,25.5,7.5,10.5,12.041594578792296,12.0,12.0,39.0,31.0,34.23448553724738
415,415,20.024984394500787,68.18357573492314,8.06225774829855,17.029386365926403,18.027756377319946,20.024984394500787,16.0,61.07372593840988,44.04543109109048,34.0,31.0,36.0,17.5,27.5,9.5,9.5,12.041594578792296,12.0,12.5,34.0,27.0,31.144823004794873
416,416,16.0,66.12110101926616,8.0,16.0312195418814,17.029386365926403,19.1049731745428,16.0,56.00892785976178,40.0,32.0,30.0,34.0,16.0,24.0,7.0,7.0,12.041594578792296,12.0,12.0,40.0,33.0,33.06055050963308
417,417,11.0,66.06814663663572,8.0,17.029386365926403,17.029386365926403,19.026297590440446,17.029386365926403,53.03772242470448,36.013886210738214,30.5,29.0,32.0,13.5,22.5,4.5,5.5,12.165525060596439,12.0,12.5,38.0,30.0,32.2490309931942
418,418,7.0,66.12110101926616,9.0,18.027756377319946,18.027756377319946,18.027756377319946,16.0,50.00999900019995,32.0,28.5,28.0,32.0,14.0,20.0,1.0,5.0,12.165525060596439,11.0,11.0,35.0,26.0,31.25699921617557
419,419,7.0,66.12110101926616,9.055385138137417,17.029386365926403,17.029386365926403,19.026297590440446,17.029386365926403,50.00999900019995,33.0,29.5,28.0,32.0,13.0,20.0,1.0,4.0,12.165525060596439,11.0,11.0,34.0,26.0,30.14962686336267
420,420,6.0,66.06814663663572,10.0,18.027756377319946,16.0312195418814,17.029386365926403,18.0,52.009614495783374,34.0,31.0,29.0,32.0,12.5,21.5,1.5,2.5,13.038404810405298,12.0,12.5,34.0,29.0,31.064449134018133
421,421,3.0,65.06919393998976,10.04987562112089,18.0,16.0312195418814,17.11724276862369,21.0,52.009614495783374,34.0147027033899,32.5,30.0,33.0,10.5,20.5,0.5,0.5,12.041594578792296,12.0,12.0,36.0,28.0,32.2490309931942
422,422,3.0,64.03124237432849,10.0,17.0,16.0312195418814,17.029386365926403,21.0,51.0,34.0,32.5,30.0,32.0,10.0,20.0,1.0,0.0,13.038404810405298,12.0,12.5,36.0,29.0,33.24154027718932
423,423,1.0,64.07027391856539,10.0,17.029386365926403,16.0312195418814,17.029386365926403,23.021728866442675,51.03920062069938,34.0147027033899,33.5,30.0,33.0,8.5,19.5,1.5,0.5,13.038404810405298,12.0,12.5,33.0,28.0,32.0624390837628
424,424,2.0,65.03076195155643,11.0,18.027756377319946,16.0,17.0,22.02271554554524,53.0,35.014282800023196,34.0,31.0,33.0,10.0,21.0,2.0,0.0,12.041594578792296,12.0,12.5,33.0,28.0,33.06055050963308
425,425,7.0,65.03076195155643,9.0,18.0,16.0,18.0,21.0,55.0,37.0,33.5,30.0,32.0,10.0,24.0,5.0,2.0,13.038404810405298,12.0,12.5,30.0,25.0,32.0624390837628
426,426,9.0,65.03076195155643,10.0,17.0,17.029386365926403,18.0,19.026297590440446,55.00909015790027,38.01315561749642,33.5,30.0,32.0,12.0,24.0,6.0,3.0,14.142135623730951,12.0,12.5,31.0,27.0,31.144823004794873
427,427,9.0,67.06713054842886,10.0,18.027756377319946,17.029386365926403,18.027756377319946,19.0,56.00892785976178,38.0,33.5,30.0,33.0,12.5,24.5,4.5,2.5,12.165525060596439,12.0,12.5,35.0,28.0,32.2490309931942
428,428,8.0,68.06614430096654,10.04987562112089,18.0,17.029386365926403,19.026297590440446,17.0,53.009433122794285,35.014282800023196,31.0,28.0,31.0,12.5,23.5,4.5,2.5,12.165525060596439,12.0,12.5,38.0,30.0,33.13608305156178
429,429,9.0,68.06614430096654,8.06225774829855,16.0,18.0,19.026297590440446,17.029386365926403,50.039984012787215,34.058772731852805,29.5,27.0,30.0,11.5,21.5,3.5,3.5,13.152946437965905,12.0,12.0,41.0,33.0,34.23448553724738
430,430,8.0,72.17340230306452,8.0,17.029386365926403,18.027756377319946,20.09975124224178,16.1245154965971,49.09175083453431,32.0624390837628,28.0,24.0,29.0,10.5,22.5,3.5,2.5,13.152946437965905,11.0,11.5,33.0,25.0,32.14031735997639
431,431,7.0,74.24284477308234,9.055385138137417,19.026297590440446,19.026297590440446,21.02379604162864,16.0312195418814,51.088159097779204,32.0624390837628,28.5,24.0,30.0,11.0,24.0,4.0,2.0,12.165525060596439,12.041594578792296,12.5,39.0,27.0,33.37663853655727
432,432,12.041594578792296,75.32595834106593,9.0,16.0312195418814,19.1049731745428,22.090722034374522,16.1245154965971,53.150729063673246,37.12142238654117,31.0,24.0,31.0,11.5,25.5,8.5,2.5,12.36931687685298,12.0,12.0,41.0,28.0,34.36568055487916
433,433,13.038404810405298,76.32168761236873,9.0,16.1245154965971,20.09975124224178,22.090722034374522,16.1245154965971,54.230987451824994,38.118237105091836,31.5,24.0,31.0,11.5,26.5,8.5,2.5,12.165525060596439,11.045361017187261,11.0,42.0,29.0,34.36568055487916
434,434,13.0,75.32595834106593,8.06225774829855,16.1245154965971,20.09975124224178,22.02271554554524,16.1245154965971,53.23532661682466,37.12142238654117,30.5,24.0,31.0,11.5,25.5,7.5,2.5,12.36931687685298,12.041594578792296,12.0,45.0,31.0,34.23448553724738
435,435,12.041594578792296,74.33034373659252,8.06225774829855,17.029386365926403,19.1049731745428,21.095023109728988,16.0312195418814,53.150729063673246,36.124783736376884,30.0,25.0,32.0,12.5,24.5,6.5,3.5,12.36931687685298,12.041594578792296,12.0,43.0,29.0,35.510561809129406
436,436,13.038404810405298,73.55270219373317,7.0,17.029386365926403,19.1049731745428,21.213203435596427,16.1245154965971,53.150729063673246,36.124783736376884,29.5,24.0,33.0,12.5,24.5,5.5,4.5,12.165525060596439,11.045361017187261,11.5,40.0,26.0,33.54101966249684
437,437,15.033296378372908,71.56814934033156,7.0710678118654755,15.033296378372908,18.24828759089466,21.213203435596427,15.132745950421556,52.23983154643591,37.21558813185679,29.5,24.0,33.0,13.5,23.5,6.5,5.5,11.40175425099138,11.045361017187261,11.5,43.0,29.0,34.36568055487916
438,438,16.0312195418814,69.72087205421343,6.082762530298219,15.132745950421556,19.235384061671343,21.213203435596427,15.132745950421556,52.3450093132096,37.21558813185679,29.0,24.0,34.0,14.0,23.0,6.0,6.0,13.152946437965905,12.041594578792296,12.5,42.0,27.0,33.24154027718932
439,439,17.029386365926403,68.73136110975832,7.280109889280518,15.132745950421556,18.24828759089466,20.396078054371138,13.152946437965905,52.46903848937962,37.33630940518894,28.5,23.0,33.0,15.0,24.0,6.0,7.0,13.341664064126334,11.045361017187261,11.5,44.0,29.0,33.37663853655727
440,440,17.029386365926403,67.89698078707183,7.0710678118654755,15.132745950421556,17.26267650163207,20.223748416156685,13.152946437965905,52.3450093132096,37.21558813185679,28.5,22.0,33.0,14.5,24.5,6.5,6.5,12.165525060596439,12.041594578792296,12.0,44.0,30.0,35.22782990761707
441,441,18.027756377319946,68.8839603971781,6.082762530298219,14.142135623730951,18.24828759089466,20.396078054371138,14.142135623730951,52.3450093132096,38.2099463490856,29.0,22.0,33.0,13.5,24.5,7.5,6.5,12.36931687685298,11.045361017187261,11.5,43.0,30.0,33.13608305156178
442,442,18.027756377319946,68.8839603971781,6.082762530298219,15.132745950421556,19.235384061671343,21.37755832643195,13.152946437965905,52.3450093132096,37.21558813185679,28.0,22.0,33.0,14.5,24.5,6.5,7.5,11.40175425099138,12.0,11.5,43.0,26.0,32.38826948140329
443,443,18.027756377319946,67.7421582177598,6.082762530298219,14.142135623730951,19.235384061671343,20.223748416156685,14.142135623730951,52.3450093132096,38.2099463490856,29.0,23.0,33.0,14.0,24.0,7.0,7.0,12.36931687685298,11.0,11.5,43.0,29.0,33.13608305156178
444,444,15.033296378372908,65.76473218982953,6.082762530298219,15.132745950421556,18.24828759089466,19.4164878389476,14.142135623730951,50.35871324805669,35.22782990761707,27.5,22.0,32.0,13.0,23.0,6.0,6.0,12.165525060596439,11.0,12.0,43.0,30.0,33.13608305156178
445,445,11.045361017187261,62.80127387243033,6.082762530298219,15.132745950421556,17.26267650163207,19.4164878389476,15.132745950421556,47.38143096192854,32.2490309931942,26.5,22.0,32.0,12.0,20.0,3.0,5.0,12.165525060596439,11.0,11.0,43.0,29.0,34.23448553724738
446,446,6.0,62.64982043070834,8.06225774829855,16.1245154965971,16.278820596099706,17.46424919657298,16.278820596099706,46.389654018972806,30.265491900843113,27.0,22.0,31.0,10.5,19.5,1.5,1.5,12.36931687685298,11.0,11.5,43.0,31.0,33.24154027718932
447,447,1.4142135623730951,64.4980619863884,10.04987562112089,17.029386365926403,16.1245154965971,17.26267650163207,18.027756377319946,46.17358552246078,29.154759474226502,28.5,22.0,30.0,8.0,20.0,0.0,2.0,11.40175425099138,11.045361017187261,11.5,44.0,32.0,33.13608305156178
448,448,1.4142135623730951,64.4980619863884,10.04987562112089,17.11724276862369,17.11724276862369,18.24828759089466,18.027756377319946,46.2709412050371,29.154759474226502,28.5,21.0,29.0,7.0,21.0,1.0,3.0,11.40175425099138,10.04987562112089,11.0,43.0,30.0,34.23448553724738
449,449,4.0,65.49045732013177,10.04987562112089,17.029386365926403,16.1245154965971,19.1049731745428,18.027756377319946,49.09175083453431,32.0624390837628,30.0,22.0,30.0,8.0,23.0,3.0,2.0,12.36931687685298,11.045361017187261,11.5,44.0,33.0,34.058772731852805
450,450,10.0,70.25667228100119,9.055385138137417,16.1245154965971,18.027756377319946,20.09975124224178,16.0312195418814,51.15662224971465,35.05709628591621,30.0,23.0,29.0,10.0,25.0,7.0,1.0,11.40175425099138,11.045361017187261,11.5,43.0,32.0,33.13608305156178
451,451,12.041594578792296,72.3394774656273,8.0,16.0312195418814,19.1049731745428,21.213203435596427,16.1245154965971,52.15361924162119,36.124783736376884,30.0,22.0,29.0,9.5,26.5,8.5,0.5,12.165525060596439,12.0,12.0,42.0,31.0,33.24154027718932
452,452,11.045361017187261,71.34423592694787,8.06225774829855,16.0312195418814,19.1049731745428,21.213203435596427,16.0312195418814,51.15662224971465,35.12833614050059,29.5,22.0,29.0,9.5,25.5,7.5,0.5,12.165525060596439,12.0,12.0,40.0,28.0,33.24154027718932
453,453,10.04987562112089,72.3394774656273,8.0,16.0312195418814,19.1049731745428,21.213203435596427,17.029386365926403,51.088159097779204,35.05709628591621,30.0,22.0,29.0,8.5,25.5,6.5,0.5,8.06225774829855,7.0,7.5,29.0,21.0,30.14962686336267
454,454,11.045361017187261,72.17340230306452,8.0,16.0,20.09975124224178,22.090722034374522,17.029386365926403,52.03844732503075,36.05551275463989,30.5,24.0,29.0,9.5,25.5,7.5,1.5,5.0990195135927845,5.0,5.0,28.0,21.0,27.073972741361768
455,455,12.041594578792296,69.06518659932803,6.0,17.0,19.026297590440446,21.02379604162864,17.0,52.009614495783374,35.014282800023196,29.0,26.0,29.0,10.5,24.5,5.5,4.5,7.0,6.0,6.5,27.0,22.0,29.068883707497267
456,456,11.0,64.03124237432849,7.0,17.0,16.0312195418814,19.026297590440446,16.0312195418814,51.0098029794274,34.0147027033899,28.5,28.0,30.0,13.0,22.0,3.0,6.0,10.04987562112089,10.0,10.0,25.0,24.0,31.0
457,457,6.0,61.0,9.0,17.0,17.0,19.0,18.027756377319946,50.00999900019995,33.015148038438355,30.0,30.0,30.0,12.0,20.0,2.0,4.0,12.0,12.041594578792296,12.0,26.0,27.0,29.017236257093817
458,458,2.0,59.033888572581766,11.0,19.026297590440446,16.0,17.0,18.027756377319946,50.039984012787215,31.016124838541646,30.0,30.0,28.0,11.0,21.0,1.0,1.0,12.0,12.041594578792296,12.0,26.0,29.0,29.017236257093817
459,459,3.0,60.03332407921454,10.04987562112089,19.026297590440446,16.0312195418814,18.0,18.110770276274835,50.15974481593781,31.144823004794873,29.5,30.0,28.0,11.0,21.0,1.0,2.0,13.0,12.165525060596439,12.5,25.0,30.0,30.14962686336267
460,460,4.0,62.12889826803627,10.04987562112089,18.110770276274835,16.0312195418814,18.027756377319946,18.110770276274835,50.24937810560445,32.14031735997639,30.0,31.0,27.0,11.0,21.0,2.0,2.0,13.038404810405298,13.038404810405298,13.0,23.0,32.0,30.265491900843113
461,461,6.082762530298219,63.28506932918696,9.0,18.027756377319946,17.11724276862369,18.027756377319946,17.11724276862369,50.15974481593781,32.14031735997639,29.0,32.0,26.0,12.0,21.0,3.0,5.0,14.035668847618199,13.152946437965905,13.5,21.0,32.0,29.274562336608895
462,462,9.055385138137417,65.37583651472461,8.246211251235321,17.029386365926403,18.110770276274835,19.0,16.1245154965971,50.35871324805669,33.37663853655727,28.5,32.0,25.0,12.5,21.5,4.5,5.5,12.0,12.36931687685298,12.5,26.0,35.0,32.2490309931942
463,463,10.04987562112089,64.28063471995279,7.0710678118654755,17.11724276862369,17.11724276862369,18.027756377319946,16.1245154965971,50.35871324805669,33.24154027718932,28.0,31.0,25.0,12.0,22.0,5.0,6.0,13.038404810405298,13.152946437965905,13.0,26.0,35.0,32.2490309931942
464,464,10.04987562112089,64.28063471995279,7.0710678118654755,16.0312195418814,17.11724276862369,19.0,17.11724276862369,50.24937810560445,34.23448553724738,29.0,32.0,26.0,12.0,21.0,4.0,6.0,12.0,12.165525060596439,12.5,23.0,33.0,32.2490309931942
465,465,4.123105625617661,61.29437168288782,9.055385138137417,17.11724276862369,16.1245154965971,18.027756377319946,18.027756377319946,48.25971404805462,31.144823004794873,29.0,32.0,26.0,11.0,19.0,2.0,4.0,13.038404810405298,12.165525060596439,12.5,31.0,37.0,34.0147027033899
466,466,2.0,61.1310068623117,11.045361017187261,17.029386365926403,16.0312195418814,17.0,19.026297590440446,49.09175083453431,32.0624390837628,31.0,33.0,29.0,12.0,18.0,0.0,2.0,13.0,13.152946437965905,13.0,32.0,37.0,36.22154055254967
467,467,4.123105625617661,65.19202405202648,11.045361017187261,18.027756377319946,16.1245154965971,18.027756377319946,18.027756377319946,51.15662224971465,33.13608305156178,31.0,31.0,26.0,10.5,22.5,3.5,1.5,14.035668847618199,13.152946437965905,13.0,33.0,37.0,35.12833614050059
468,468,10.04987562112089,69.18092222571191,10.0,16.0312195418814,18.027756377319946,19.026297590440446,17.029386365926403,53.08483775994799,37.05401462729781,32.0,30.0,25.0,10.5,25.5,8.5,1.5,14.0,12.165525060596439,12.5,33.0,45.0,32.7566787083184
469,469,11.045361017187261,75.05997601918082,9.0,18.027756377319946,21.02379604162864,22.02271554554524,17.029386365926403,55.08175741568164,37.05401462729781,31.5,28.0,25.0,9.5,28.5,9.5,1.5,13.038404810405298,12.0,12.5,26.0,28.0,34.0147027033899
470,470,10.0,77.02596964660685,9.055385138137417,16.0312195418814,20.024984394500787,22.02271554554524,18.027756377319946,53.08483775994799,37.05401462729781,32.0,28.0,26.0,9.0,26.0,9.0,1.0,13.038404810405298,12.041594578792296,12.5,23.0,27.0,29.017236257093817
471,471,8.06225774829855,77.00649323271382,10.0,17.0,20.0,22.0,17.029386365926403,52.03844732503075,35.05709628591621,31.0,27.0,26.0,9.5,25.5,7.5,0.5,14.035668847618199,13.038404810405298,13.0,34.0,34.0,34.0147027033899
472,472,8.0,76.00657866263946,10.0,18.0,20.0,22.0,18.027756377319946,54.00925846556311,36.013886210738214,32.0,28.0,29.0,10.5,25.5,6.5,0.5,14.035668847618199,13.0,13.0,36.0,33.0,36.013886210738214
473,473,12.0,74.02702209328699,11.0,18.0,19.0,21.02379604162864,18.0,59.0,41.0,35.0,29.0,31.0,12.0,29.0,10.0,2.0,14.035668847618199,12.0,13.0,37.0,32.0,34.0
474,474,12.0,72.02777242147643,10.0,17.0,18.0,20.0,19.026297590440446,58.008620049092706,41.012193308819754,35.0,29.0,31.0,11.0,28.0,10.0,1.0,14.142135623730951,12.041594578792296,13.0,39.0,34.0,35.014282800023196
475,475,2.0,72.02777242147643,11.0,17.029386365926403,18.0,19.0,21.0,51.0098029794274,34.0,33.0,27.0,29.0,7.0,23.0,5.0,3.0,13.038404810405298,13.0,13.0,36.0,30.0,33.06055050963308
476,476,1.0,70.00714249274856,10.0,17.0,16.0,18.027756377319946,21.0,49.0,32.0,31.5,27.0,28.0,6.5,21.5,3.5,2.5,13.152946437965905,12.041594578792296,12.5,30.0,25.0,31.064449134018133
477,477,2.0,69.00724599634447,10.0,18.0,16.0,18.027756377319946,20.0,50.0,32.0,31.0,27.0,28.0,7.5,22.5,3.5,1.5,14.142135623730951,13.0,13.0,39.0,32.0,33.13608305156178
478,478,11.045361017187261,69.02897942168927,7.0,16.0,17.029386365926403,18.027756377319946,17.0,51.0098029794274,35.014282800023196,29.5,27.0,29.0,11.0,23.0,6.0,4.0,12.165525060596439,12.041594578792296,12.5,40.0,33.0,33.13608305156178
479,479,14.0,68.00735254367721,7.0710678118654755,16.0,16.0,18.027756377319946,14.0,51.0098029794274,35.014282800023196,28.0,27.0,28.0,13.5,23.5,6.5,6.5,14.142135623730951,12.041594578792296,12.5,40.0,32.0,33.13608305156178
480,480,14.0,68.0294054067798,7.0,16.0312195418814,17.0,19.026297590440446,13.0,50.00999900019995,34.0,27.0,26.0,28.0,14.0,23.0,6.0,7.0,13.152946437965905,12.041594578792296,12.5,40.0,34.0,34.058772731852805
481,481,14.035668847618199,69.00724599634447,7.0710678118654755,16.0312195418814,17.0,19.0,14.0,51.0098029794274,35.0,28.0,27.0,28.0,13.5,23.5,6.5,6.5,13.152946437965905,13.0,13.0,39.0,34.0,34.058772731852805
482,482,13.0,69.0,8.0,16.0,17.0,19.0,14.0,51.0,35.0,28.5,27.0,27.0,13.0,24.0,7.0,6.0,13.152946437965905,13.038404810405298,13.0,39.0,35.0,33.015148038438355
483,483,8.0,70.00714249274856,10.0,18.0,17.0,18.0,15.0,51.0,33.0,29.0,27.0,28.0,12.5,23.5,4.5,3.5,13.038404810405298,13.038404810405298,13.0,38.0,32.0,33.06055050963308
484,484,1.0,70.00714249274856,11.0,17.0,18.0,20.0,19.026297590440446,48.010415536631214,31.016124838541646,30.5,27.0,26.0,7.5,21.5,2.5,2.5,14.035668847618199,13.038404810405298,13.0,37.0,34.0,33.015148038438355
485,485,1.0,70.00714249274856,11.0,17.0,18.027756377319946,19.0,20.024984394500787,49.01020301937138,32.01562118716424,31.5,29.0,28.0,8.5,20.5,2.5,1.5,14.035668847618199,13.152946437965905,13.0,35.0,38.0,35.014282800023196
486,486,6.0,68.0294054067798,11.0,19.026297590440446,17.0,19.0,19.026297590440446,55.036351623268054,36.013886210738214,33.0,31.0,29.0,11.0,25.0,5.0,0.0,13.038404810405298,13.038404810405298,13.0,34.0,37.0,36.05551275463989
487,487,15.033296378372908,69.02897942168927,10.0,18.0,17.0,19.026297590440446,17.029386365926403,60.03332407921454,42.04759208325728,34.5,33.0,31.0,15.0,28.0,9.0,5.0,13.038404810405298,13.152946437965905,13.0,34.0,39.0,33.13608305156178
488,488,21.02379604162864,68.00735254367721,9.0,16.0312195418814,18.0,20.024984394500787,17.029386365926403,63.071388124885914,47.042533945356304,36.5,34.0,33.0,16.5,29.5,12.5,7.5,13.038404810405298,13.152946437965905,13.0,34.0,42.0,31.400636936215164
489,489,20.024984394500787,69.02897942168927,8.0,16.0312195418814,17.029386365926403,20.024984394500787,16.0312195418814,60.07495318350236,44.04543109109048,34.0,32.0,30.0,15.0,29.0,12.0,7.0,14.035668847618199,13.038404810405298,13.0,33.0,40.0,32.2490309931942
490,490,14.035668847618199,65.00769185258002,7.0,15.033296378372908,16.0,18.0,16.0312195418814,52.08646657242167,37.05401462729781,30.0,29.0,28.0,12.5,23.5,7.5,5.5,13.038404810405298,12.041594578792296,12.5,33.0,40.0,31.400636936215164
491,491,9.0,63.00793600809346,8.06225774829855,15.033296378372908,15.033296378372908,17.029386365926403,16.0,48.041648597857254,33.015148038438355,28.5,29.0,28.0,12.5,19.5,3.5,5.5,13.038404810405298,13.038404810405298,13.0,34.0,37.0,33.13608305156178
492,492,4.123105625617661,63.0,8.0,15.0,15.033296378372908,17.11724276862369,17.0,44.01136216933077,29.017236257093817,27.0,27.0,27.0,10.0,17.0,1.0,2.0,12.041594578792296,13.038404810405298,13.0,33.0,39.0,30.4138126514911
493,493,4.0,62.0,8.0,16.0312195418814,15.0,17.029386365926403,17.0,45.0111097397076,29.0,27.0,29.0,29.0,12.0,16.0,1.0,4.0,13.038404810405298,12.0,12.5,34.0,37.0,33.24154027718932
494,494,4.0,62.00806399170998,9.0,16.0,16.0312195418814,17.11724276862369,17.0,46.0,30.0,28.0,28.0,29.0,11.5,17.5,0.5,2.5,13.038404810405298,12.041594578792296,12.0,34.0,38.0,31.144823004794873
495,495,4.123105625617661,60.0,10.0,16.0,15.0,17.029386365926403,17.029386365926403,47.0,31.0,29.0,29.0,29.0,12.0,18.0,1.0,2.0,13.038404810405298,12.041594578792296,12.5,34.0,38.0,30.14962686336267
496,496,4.0,60.00833275470999,10.0,17.029386365926403,15.033296378372908,17.0,18.027756377319946,49.040799340956916,32.01562118716424,30.0,30.0,29.0,11.5,19.5,1.5,2.5,13.038404810405298,13.038404810405298,13.0,34.0,37.0,33.13608305156178
497,497,9.055385138137417,61.00819617067857,10.0,17.0,15.033296378372908,17.029386365926403,18.0,54.00925846556311,37.013511046643494,32.5,30.0,29.0,11.5,24.5,6.5,2.5,13.038404810405298,12.041594578792296,12.0,34.0,36.0,31.064449134018133
498,498,14.0,63.00793600809346,8.0,15.033296378372908,15.033296378372908,18.027756377319946,17.029386365926403,54.037024344425184,39.01281840626232,32.0,29.0,28.0,11.5,25.5,9.5,4.5,13.038404810405298,12.041594578792296,12.5,33.0,37.0,30.14962686336267
499,499,7.0,64.03124237432849,9.055385138137417,14.035668847618199,16.0312195418814,18.027756377319946,18.0,48.041648597857254,34.0147027033899,30.5,28.0,26.0,9.0,21.0,6.0,1.0,13.0,12.041594578792296,12.0,32.0,37.0,30.14962686336267
500,500,1.4142135623730951,65.06919393998976,11.0,16.0312195418814,15.0,17.029386365926403,18.0,46.04345773288535,30.01666203960727,29.5,27.0,24.0,7.5,20.5,4.5,2.5,12.041594578792296,11.045361017187261,11.5,33.0,36.0,30.14962686336267
501,501,1.0,63.12685640834652,11.0,16.0,16.0312195418814,17.029386365926403,18.027756377319946,45.044422518220834,29.068883707497267,29.0,28.0,24.0,8.0,19.0,3.0,2.0,12.0,12.165525060596439,12.0,32.0,37.0,31.25699921617557
502,502,1.4142135623730951,62.12889826803627,11.045361017187261,15.033296378372908,15.033296378372908,17.029386365926403,18.0,45.09988913511872,30.066592756745816,29.5,28.0,24.0,8.0,19.0,3.0,2.0,13.038404810405298,12.165525060596439,12.0,31.0,37.0,31.25699921617557
503,503,5.0990195135927845,67.1863081289633,9.055385138137417,17.029386365926403,16.1245154965971,18.027756377319946,17.029386365926403,48.16637831516918,31.144823004794873,28.5,28.0,23.0,8.5,22.5,5.5,0.5,12.0,12.36931687685298,12.0,30.0,38.0,29.274562336608895
