,video_id,frame_seq,gap,time_seconds,m1,m3,m4,m5,m6,m7,m8,m9,m10,m11,m12,m13,m14,m15,m16,m17,e1,e2,e3,b1,b2,b3
0,66,80,1,3.200000000000002,3.1622776601683795,49.64876634922564,6.082762530298219,9.219544457292887,13.152946437965905,14.035668847618199,12.36931687685298,30.805843601498726,21.587033144922902,19.5,21.0,13.0,5.0,13.0,4.0,1.0,4.47213595499958,5.0,4.5,16.0,25.0,14.317821063276353
1,66,81,0,3.240000000000002,2.23606797749979,49.36598018878993,6.0,11.045361017187261,14.035668847618199,15.033296378372908,12.165525060596439,31.25699921617557,20.223748416156685,19.0,20.0,14.0,5.0,14.0,3.0,0.0,4.0,5.0,5.0,18.0,25.0,15.132745950421556
2,66,82,0,3.280000000000002,4.123105625617661,52.23983154643591,5.0,10.04987562112089,14.035668847618199,16.0312195418814,11.180339887498949,30.265491900843113,20.223748416156685,18.0,17.0,12.0,3.5,15.5,4.5,0.5,6.082762530298219,6.324555320336759,5.5,13.0,22.0,15.132745950421556
3,66,83,0,3.320000000000002,3.1622776601683795,49.49747468305833,5.0,10.198039027185569,13.038404810405298,15.132745950421556,12.165525060596439,30.4138126514911,20.223748416156685,18.5,19.0,12.0,3.5,14.5,4.5,0.5,7.0,6.324555320336759,6.0,13.0,24.0,16.278820596099706
4,66,84,0,3.360000000000002,3.0,47.38143096192854,5.0990195135927845,9.219544457292887,14.035668847618199,14.142135623730951,12.165525060596439,29.427877939124322,20.223748416156685,18.5,18.0,12.0,3.0,14.0,4.0,1.0,5.0990195135927845,5.0990195135927845,5.0,14.0,23.0,16.1245154965971
5,66,85,0,3.400000000000002,2.0,46.389654018972806,4.123105625617661,8.246211251235321,12.041594578792296,14.035668847618199,13.152946437965905,27.459060435491963,19.235384061671343,18.0,18.0,12.0,2.0,12.0,3.0,1.0,7.0710678118654755,7.280109889280518,7.0,13.0,23.0,16.278820596099706
6,66,86,0,3.440000000000002,1.0,45.27692569068709,5.0990195135927845,9.219544457292887,12.165525060596439,13.038404810405298,12.165525060596439,27.459060435491963,18.24828759089466,17.5,18.0,13.0,3.5,11.5,2.5,0.5,6.082762530298219,6.324555320336759,6.5,14.0,24.0,17.26267650163207
7,66,87,0,3.480000000000002,2.0,45.27692569068709,5.0990195135927845,9.219544457292887,12.041594578792296,13.038404810405298,13.038404810405298,29.274562336608895,20.09975124224178,19.0,19.0,14.0,3.5,12.5,3.5,0.5,6.0,6.324555320336759,6.0,14.0,25.0,17.26267650163207
8,66,88,0,3.5200000000000022,2.0,46.2709412050371,6.082762530298219,10.04987562112089,12.165525060596439,13.152946437965905,12.041594578792296,30.14962686336267,20.09975124224178,19.0,19.0,14.0,4.5,13.5,3.5,0.5,7.0710678118654755,5.0990195135927845,5.5,15.0,24.0,16.1245154965971
9,66,89,0,3.5600000000000023,4.0,45.27692569068709,6.082762530298219,10.04987562112089,12.0,14.142135623730951,12.165525060596439,32.2490309931942,22.20360331117452,20.0,19.0,14.0,4.5,15.5,4.5,0.5,6.0,6.324555320336759,6.0,13.0,24.0,16.278820596099706
10,66,90,0,3.6000000000000023,6.0,48.25971404805462,6.082762530298219,10.198039027185569,14.035668847618199,15.033296378372908,11.045361017187261,33.24154027718932,23.08679276123039,20.0,18.0,13.0,4.5,17.5,6.5,0.5,6.0,6.324555320336759,6.0,15.0,25.0,15.297058540778355
11,66,91,0,3.6400000000000015,4.0,47.16990566028302,6.0,12.165525060596439,13.038404810405298,15.033296378372908,11.180339887498949,33.24154027718932,21.095023109728988,19.0,17.0,13.0,4.0,18.0,5.0,1.0,5.0,5.385164807134504,5.0,15.0,24.0,15.297058540778355
12,66,92,0,3.6800000000000015,3.0,49.25444142409901,6.0,10.198039027185569,13.038404810405298,15.033296378372908,12.165525060596439,31.25699921617557,21.095023109728988,19.5,18.0,13.0,3.5,15.5,4.5,0.5,6.0,5.385164807134504,5.5,14.0,25.0,16.278820596099706
13,66,93,0,3.7200000000000015,4.0,47.16990566028302,5.0,10.04987562112089,13.038404810405298,15.033296378372908,12.165525060596439,31.144823004794873,21.095023109728988,19.0,17.0,13.0,3.0,16.0,5.0,1.0,6.0,6.324555320336759,6.0,14.0,24.0,16.278820596099706
14,66,94,0,3.7600000000000025,3.1622776601683795,48.041648597857254,6.082762530298219,10.04987562112089,14.0,15.0,11.045361017187261,30.066592756745816,20.024984394500787,18.5,16.0,14.0,4.0,15.0,4.0,1.0,5.0,5.0990195135927845,4.5,17.0,24.0,18.110770276274835
15,66,95,0,3.8000000000000025,6.082762530298219,49.16299421312742,5.0,10.04987562112089,13.038404810405298,15.033296378372908,11.180339887498949,32.2490309931942,22.20360331117452,19.0,16.0,12.0,3.0,18.0,7.0,1.0,8.0,8.246211251235321,8.0,16.0,25.0,17.26267650163207
16,66,96,0,3.8400000000000025,2.0,50.15974481593781,6.0,11.045361017187261,14.035668847618199,15.0,11.180339887498949,30.14962686336267,19.1049731745428,18.0,16.0,12.0,3.0,16.0,5.0,2.0,4.0,4.123105625617661,4.0,16.0,24.0,18.110770276274835
17,66,97,0,3.8800000000000026,1.0,51.15662224971465,5.0,10.04987562112089,13.038404810405298,15.132745950421556,12.165525060596439,28.160255680657446,18.110770276274835,17.5,16.0,12.0,2.0,14.0,4.0,2.0,3.0,3.0,3.0,15.0,23.0,19.1049731745428
18,66,98,0,3.9200000000000026,1.0,50.24937810560445,5.0,10.198039027185569,15.033296378372908,15.033296378372908,11.40175425099138,27.459060435491963,17.26267650163207,16.5,16.0,11.0,2.5,13.5,3.5,1.5,4.123105625617661,4.47213595499958,3.5,14.0,23.0,18.24828759089466
19,66,99,0,3.960000000000002,2.0,50.24937810560445,5.0,10.04987562112089,14.035668847618199,15.033296378372908,12.165525060596439,29.154759474226502,19.1049731745428,18.0,17.0,12.0,2.5,14.5,3.5,1.5,6.0,6.082762530298219,6.5,15.0,23.0,17.11724276862369
20,66,100,0,4.000000000000003,2.0,52.08646657242167,6.082762530298219,10.04987562112089,14.0,16.0,11.045361017187261,29.154759474226502,19.1049731745428,18.0,16.0,13.0,3.5,14.5,3.5,1.5,3.0,3.1622776601683795,3.5,16.0,23.0,19.235384061671343
21,66,101,0,4.040000000000003,1.4142135623730951,50.039984012787215,5.0990195135927845,9.055385138137417,14.035668847618199,15.033296378372908,11.045361017187261,26.076809620810597,17.029386365926403,16.5,15.0,13.0,3.0,12.0,2.0,1.0,3.0,3.0,3.0,15.0,22.0,19.1049731745428
22,66,102,0,4.080000000000003,1.4142135623730951,51.088159097779204,4.0,10.04987562112089,14.035668847618199,15.033296378372908,12.041594578792296,27.16615541441225,17.11724276862369,16.5,16.0,13.0,2.5,12.5,2.5,0.5,5.0,5.0990195135927845,5.0,14.0,22.0,18.110770276274835
23,66,103,0,4.120000000000003,1.0,52.08646657242167,5.0,9.055385138137417,14.035668847618199,15.033296378372908,11.180339887498949,26.1725046566048,17.11724276862369,16.5,15.0,12.0,2.5,12.5,2.5,1.5,5.0,5.0990195135927845,5.0,16.0,23.0,19.1049731745428
24,66,104,0,4.160000000000003,0.0,50.08991914547278,5.0,10.04987562112089,14.0,15.033296378372908,11.045361017187261,26.076809620810597,16.0312195418814,16.0,15.0,12.0,2.5,12.5,2.5,1.5,3.0,3.0,3.0,16.0,23.0,19.1049731745428
25,66,105,0,4.200000000000003,2.0,50.15974481593781,5.0990195135927845,10.04987562112089,14.035668847618199,15.033296378372908,11.0,28.071337695236398,18.027756377319946,17.0,16.0,12.0,3.0,14.0,4.0,0.0,8.06225774829855,8.246211251235321,8.0,15.0,25.0,17.26267650163207
26,66,106,0,4.240000000000003,2.0,50.24937810560445,6.082762530298219,10.198039027185569,15.033296378372908,16.1245154965971,11.0,29.154759474226502,19.026297590440446,18.0,17.0,12.0,3.5,14.5,3.5,0.5,8.0,8.54400374531753,8.0,14.0,25.0,18.110770276274835
27,66,107,0,4.280000000000003,6.0,53.23532661682466,4.123105625617661,10.04987562112089,15.033296378372908,16.0312195418814,10.04987562112089,30.14962686336267,20.09975124224178,17.0,16.0,11.0,3.5,16.5,6.5,0.5,9.0,8.246211251235321,8.0,15.0,25.0,18.24828759089466
28,66,108,0,4.320000000000003,6.082762530298219,53.23532661682466,5.0,10.04987562112089,15.033296378372908,17.029386365926403,10.198039027185569,31.25699921617557,21.213203435596427,18.0,17.0,12.0,4.5,16.5,6.5,0.5,9.0,8.246211251235321,8.5,16.0,25.0,16.1245154965971
29,66,109,0,4.360000000000003,6.0,51.15662224971465,4.123105625617661,11.045361017187261,15.033296378372908,17.029386365926403,10.04987562112089,31.144823004794873,20.09975124224178,17.0,16.0,12.0,4.0,17.0,5.0,1.0,5.0,6.082762530298219,5.5,16.0,24.0,17.11724276862369
30,66,110,0,4.400000000000003,7.0,52.15361924162119,5.0990195135927845,11.045361017187261,14.0,16.0,10.04987562112089,33.13608305156178,22.090722034374522,18.5,16.0,12.0,4.0,19.0,7.0,0.0,9.0,8.246211251235321,8.5,16.0,24.0,17.11724276862369
31,66,111,0,4.440000000000003,8.0,51.088159097779204,4.0,12.165525060596439,14.035668847618199,16.0,10.04987562112089,34.132096331752024,22.02271554554524,18.0,15.0,12.0,3.5,20.5,8.5,0.5,7.0,6.082762530298219,6.0,16.0,25.0,17.029386365926403
32,66,112,0,4.480000000000003,2.0,49.09175083453431,5.0990195135927845,12.041594578792296,14.0,16.0312195418814,13.038404810405298,32.14031735997639,20.09975124224178,19.0,17.0,14.0,2.5,16.5,4.5,1.5,9.0,8.246211251235321,8.5,16.0,24.0,17.11724276862369
33,66,113,0,4.520000000000003,3.0,47.095647357266465,5.0,10.198039027185569,14.035668847618199,16.0312195418814,12.041594578792296,30.14962686336267,20.024984394500787,18.5,17.0,14.0,3.5,14.5,3.5,0.5,4.123105625617661,4.123105625617661,3.5,15.0,23.0,20.09975124224178
34,66,114,0,4.560000000000003,1.0,42.1070065428546,5.0990195135927845,11.045361017187261,12.041594578792296,13.038404810405298,14.035668847618199,31.144823004794873,20.09975124224178,19.5,19.0,16.0,3.5,13.5,2.5,0.5,6.082762530298219,5.0990195135927845,5.5,15.0,24.0,17.029386365926403
35,66,115,0,4.600000000000003,1.0,42.1070065428546,5.0990195135927845,10.04987562112089,11.0,12.0,15.0,31.064449134018133,21.02379604162864,20.5,20.0,17.0,3.5,12.5,1.5,0.5,6.0,7.0710678118654755,7.0,15.0,25.0,21.213203435596427
36,66,116,0,4.640000000000003,1.4142135623730951,40.19950248448356,6.0,11.045361017187261,11.045361017187261,13.0,14.035668847618199,32.14031735997639,21.095023109728988,20.5,21.0,17.0,5.0,13.0,1.0,0.0,2.0,2.23606797749979,2.5,17.0,26.0,18.24828759089466
37,66,117,0,4.680000000000003,1.0,42.2965719651132,6.082762530298219,11.045361017187261,12.041594578792296,13.038404810405298,14.035668847618199,32.14031735997639,21.095023109728988,20.5,23.0,18.0,6.5,11.5,0.5,1.5,2.23606797749979,2.0,2.0,17.0,26.0,21.213203435596427
38,66,118,0,4.720000000000003,0.0,44.28317965096906,7.0710678118654755,12.041594578792296,13.0,13.038404810405298,13.0,32.0624390837628,20.024984394500787,20.0,23.0,18.0,7.5,11.5,1.5,1.5,2.23606797749979,2.0,2.0,17.0,27.0,22.20360331117452
39,66,119,0,4.760000000000003,3.1622776601683795,44.28317965096906,7.0710678118654755,13.038404810405298,13.038404810405298,15.033296378372908,13.038404810405298,36.05551275463989,23.021728866442675,21.5,24.0,19.0,8.5,14.5,1.5,2.5,1.4142135623730951,1.0,1.0,15.0,25.0,21.213203435596427
40,66,120,0,4.800000000000003,4.123105625617661,47.095647357266465,8.06225774829855,15.033296378372908,14.035668847618199,16.0312195418814,13.038404810405298,40.0,25.019992006393608,23.0,24.0,21.0,9.5,17.5,2.5,2.5,2.23606797749979,3.1622776601683795,3.0,17.0,27.0,21.213203435596427
41,66,121,0,4.840000000000003,10.0,48.041648597857254,6.0,13.038404810405298,14.0,16.0,13.0,42.01190307520001,29.0,24.0,24.0,22.0,10.0,19.0,5.0,5.0,2.23606797749979,3.0,3.0,17.0,27.0,19.4164878389476
42,66,122,0,4.8800000000000034,9.0,49.09175083453431,6.082762530298219,13.0,14.0,15.0,13.038404810405298,41.0,28.0,23.5,25.0,22.0,10.5,17.5,3.5,5.5,3.1622776601683795,4.123105625617661,4.0,18.0,28.0,22.20360331117452
43,66,123,0,4.920000000000004,9.055385138137417,48.093658625644196,6.082762530298219,13.038404810405298,14.0,16.0,12.041594578792296,40.0,27.018512172212592,22.5,24.0,21.0,10.5,17.5,3.5,4.5,3.0,3.1622776601683795,3.0,17.0,27.0,21.37755832643195
44,66,124,0,4.960000000000004,4.0,47.095647357266465,8.06225774829855,12.041594578792296,13.038404810405298,14.035668847618199,13.038404810405298,37.013511046643494,25.0,23.0,24.0,21.0,9.5,14.5,2.5,2.5,5.0,5.0990195135927845,5.0,17.0,28.0,21.37755832643195
45,66,125,0,5.000000000000004,0.0,45.09988913511872,7.0710678118654755,11.0,12.041594578792296,13.0,15.0,33.015148038438355,22.02271554554524,22.0,24.0,21.0,7.5,10.5,0.5,1.5,7.0,7.0710678118654755,7.5,17.0,28.0,23.194827009486403
46,66,126,0,5.040000000000004,1.0,47.095647357266465,7.0,11.045361017187261,12.0,14.035668847618199,16.0,35.014282800023196,24.0,23.5,25.0,22.0,7.5,11.5,0.5,1.5,8.0,8.06225774829855,8.5,17.0,27.0,22.20360331117452
47,66,127,0,5.080000000000004,0.0,46.17358552246078,8.06225774829855,11.0,12.041594578792296,13.038404810405298,15.0,34.0147027033899,23.021728866442675,23.0,26.0,22.0,9.0,10.0,2.0,3.0,8.0,8.246211251235321,8.5,17.0,27.0,21.37755832643195
48,66,128,0,5.120000000000004,1.0,45.044422518220834,8.06225774829855,11.045361017187261,12.0,13.0,15.0,34.0147027033899,23.0,23.0,28.0,26.0,12.0,7.0,5.0,5.0,9.0,9.055385138137417,9.5,17.0,27.0,22.20360331117452
49,66,129,0,5.160000000000004,1.0,46.09772228646444,8.0,11.045361017187261,13.038404810405298,14.0,14.035668847618199,34.058772731852805,23.021728866442675,22.5,26.0,23.0,10.5,9.5,2.5,3.5,9.0,8.06225774829855,8.5,18.0,28.0,22.20360331117452
50,66,130,0,5.200000000000004,1.4142135623730951,45.09988913511872,8.06225774829855,12.041594578792296,12.0,13.038404810405298,14.035668847618199,33.06055050963308,21.02379604162864,21.5,27.0,24.0,11.5,7.5,4.5,4.5,8.0,8.06225774829855,8.5,18.0,27.0,19.235384061671343
51,66,131,0,5.240000000000004,0.0,46.04345773288535,7.0,12.0,13.0,13.0,14.035668847618199,33.015148038438355,21.02379604162864,21.0,25.0,23.0,10.0,9.0,3.0,4.0,9.0,8.246211251235321,8.5,17.0,26.0,21.213203435596427
52,66,132,0,5.280000000000004,1.0,45.09988913511872,8.06225774829855,12.041594578792296,13.038404810405298,14.0,13.0,33.015148038438355,21.0,21.0,28.0,25.0,13.5,6.5,5.5,6.5,9.0,9.055385138137417,9.5,17.0,27.0,22.360679774997898
53,66,133,0,5.320000000000004,1.4142135623730951,46.04345773288535,8.06225774829855,11.045361017187261,13.0,14.0,13.0,33.015148038438355,22.0,21.5,26.0,24.0,12.0,8.0,4.0,5.0,9.0,9.055385138137417,9.0,17.0,26.0,21.213203435596427
54,66,134,0,5.360000000000004,0.0,47.095647357266465,8.06225774829855,11.0,14.0,14.035668847618199,14.0,33.015148038438355,22.02271554554524,22.0,25.0,22.0,9.5,9.5,2.5,2.5,8.0,9.055385138137417,9.5,17.0,27.0,21.37755832643195
55,66,135,0,5.400000000000004,0.0,47.095647357266465,8.0,12.0,13.038404810405298,14.035668847618199,14.035668847618199,34.0147027033899,22.02271554554524,22.0,25.0,22.0,9.5,10.5,2.5,3.5,9.0,8.06225774829855,8.5,17.0,27.0,21.37755832643195
56,66,136,0,5.440000000000004,0.0,47.042533945356304,9.0,12.0,13.038404810405298,14.0,14.035668847618199,35.014282800023196,23.021728866442675,23.0,26.0,24.0,11.0,10.0,3.0,4.0,8.06225774829855,9.219544457292887,9.5,17.0,25.0,20.223748416156685
57,66,137,0,5.480000000000004,0.0,47.095647357266465,8.06225774829855,11.0,14.035668847618199,15.033296378372908,14.0,33.015148038438355,22.02271554554524,22.0,26.0,23.0,10.5,8.5,3.5,4.5,9.0,8.06225774829855,8.5,17.0,26.0,21.37755832643195
58,66,138,0,5.520000000000004,1.0,49.09175083453431,8.0,11.045361017187261,14.035668847618199,14.035668847618199,13.038404810405298,33.06055050963308,22.02271554554524,21.5,24.0,21.0,9.5,10.5,1.5,3.5,10.0,9.055385138137417,9.5,17.0,26.0,22.360679774997898
59,66,139,0,5.560000000000004,0.0,49.09175083453431,8.06225774829855,12.0,14.0,15.0,13.038404810405298,33.06055050963308,21.095023109728988,21.0,24.0,21.0,9.5,10.5,2.5,2.5,8.0,9.055385138137417,9.5,17.0,26.0,21.213203435596427
60,66,140,0,5.600000000000004,9.055385138137417,44.04543109109048,7.0,9.055385138137417,13.0,14.0,14.035668847618199,39.01281840626232,30.0,25.5,32.0,30.0,17.0,8.0,2.0,11.0,9.0,8.246211251235321,9.0,16.0,25.0,21.213203435596427
61,66,141,0,5.640000000000004,0.0,48.093658625644196,7.0,11.045361017187261,14.035668847618199,14.035668847618199,14.035668847618199,32.0624390837628,21.02379604162864,21.0,25.0,22.0,9.5,8.5,3.5,3.5,9.0,10.04987562112089,10.0,17.0,25.0,21.213203435596427
62,66,142,0,5.680000000000004,8.06225774829855,44.04543109109048,7.0,9.055385138137417,14.0,15.033296378372908,14.035668847618199,38.01315561749642,29.0,25.0,32.0,30.0,17.0,7.0,3.0,11.0,8.0,8.246211251235321,8.5,16.0,26.0,21.213203435596427
63,66,143,0,5.720000000000004,1.4142135623730951,49.09175083453431,7.0,11.045361017187261,13.038404810405298,15.033296378372908,14.142135623730951,33.06055050963308,22.02271554554524,21.5,25.0,22.0,9.5,9.5,2.5,3.5,9.0,8.06225774829855,8.5,17.0,26.0,21.095023109728988
64,66,144,0,5.760000000000004,5.0990195135927845,45.044422518220834,8.06225774829855,11.0,15.033296378372908,15.033296378372908,13.038404810405298,37.013511046643494,26.019223662515376,23.5,32.0,30.0,18.0,6.0,5.0,11.0,9.0,9.055385138137417,9.5,16.0,25.0,20.223748416156685
65,66,145,0,5.800000000000004,5.0,45.09988913511872,7.0,10.04987562112089,13.0,14.035668847618199,13.038404810405298,35.05709628591621,25.019992006393608,22.5,31.0,28.0,16.5,5.5,4.5,10.5,9.0,9.055385138137417,9.5,16.0,25.0,20.223748416156685
66,66,146,0,5.840000000000004,0.0,50.08991914547278,7.0710678118654755,12.0,14.035668847618199,15.033296378372908,14.035668847618199,33.06055050963308,21.095023109728988,21.0,25.0,22.0,9.5,9.5,2.5,3.5,8.0,9.055385138137417,9.5,17.0,26.0,21.37755832643195
67,66,147,0,5.880000000000004,4.123105625617661,44.10215414239989,8.0,10.04987562112089,14.0,15.033296378372908,12.041594578792296,34.0147027033899,24.0,22.0,30.0,27.0,16.5,5.5,5.5,8.5,8.0,8.06225774829855,8.5,17.0,26.0,20.223748416156685
68,66,148,0,5.920000000000004,3.0,44.10215414239989,9.0,10.0,14.0,15.033296378372908,12.041594578792296,34.0147027033899,24.020824298928627,22.5,30.0,27.0,16.5,5.5,5.5,8.5,9.055385138137417,9.219544457292887,9.5,16.0,25.0,22.20360331117452
69,66,149,0,5.960000000000004,4.123105625617661,45.09988913511872,8.06225774829855,10.04987562112089,14.0,15.033296378372908,13.0,35.014282800023196,25.0,23.0,31.0,28.0,16.5,5.5,5.5,9.5,9.0,8.06225774829855,8.5,17.0,26.0,22.360679774997898
70,66,150,0,6.000000000000004,3.1622776601683795,53.08483775994799,10.04987562112089,14.035668847618199,15.0,17.0,13.038404810405298,40.0,26.019223662515376,24.5,27.0,24.0,12.5,14.5,0.5,3.5,8.0,8.06225774829855,8.5,17.0,27.0,22.360679774997898
71,66,151,0,6.0400000000000045,9.0,52.08646657242167,6.0,13.0,14.0,16.0,12.041594578792296,40.01249804748511,27.018512172212592,22.5,26.0,23.0,12.5,15.5,2.5,6.5,4.0,4.123105625617661,4.0,17.0,26.0,20.223748416156685
72,66,152,0,6.0800000000000045,8.0,53.009433122794285,7.0,13.0,15.0,18.0,12.041594578792296,40.01249804748511,27.018512172212592,23.0,24.0,23.0,11.5,16.5,2.5,5.5,3.0,3.0,3.5,18.0,26.0,20.09975124224178
73,66,153,0,6.1200000000000045,11.0,50.039984012787215,6.0,11.0,14.0,16.0,12.0,40.0,29.0,23.5,25.0,23.0,12.0,16.0,4.0,6.0,2.23606797749979,3.0,3.0,17.0,24.0,20.09975124224178
74,66,154,0,6.160000000000005,11.0,51.088159097779204,6.0,11.045361017187261,15.0,17.029386365926403,12.0,40.01249804748511,29.0,23.5,25.0,22.0,11.5,16.5,4.5,5.5,4.123105625617661,4.123105625617661,4.5,17.0,25.0,22.20360331117452
75,66,155,0,6.200000000000005,9.055385138137417,52.03844732503075,6.0,13.038404810405298,16.0,18.027756377319946,11.045361017187261,39.01281840626232,26.0,21.5,24.0,22.0,12.0,16.0,2.0,6.0,6.0,5.0990195135927845,6.0,17.0,26.0,22.20360331117452
76,66,156,0,6.240000000000005,9.055385138137417,50.08991914547278,6.082762530298219,12.0,15.0,16.0,12.0,39.0,27.0,22.5,26.0,23.0,12.5,14.5,1.5,6.5,8.0,7.0710678118654755,7.5,17.0,26.0,21.213203435596427
77,66,157,0,6.280000000000005,8.0,51.03920062069938,6.0,11.045361017187261,14.035668847618199,16.0312195418814,13.0,38.01315561749642,27.0,23.0,25.0,23.0,11.0,14.0,2.0,5.0,7.0,8.06225774829855,8.5,17.0,26.0,21.095023109728988
78,66,158,0,6.320000000000005,8.0,51.088159097779204,6.0,11.0,14.0,16.0,12.0,37.0,26.0,22.0,24.0,21.0,10.5,14.5,2.5,5.5,8.0,7.280109889280518,7.5,17.0,26.0,22.20360331117452
79,66,159,0,6.360000000000005,8.0,50.08991914547278,6.0,12.041594578792296,15.033296378372908,17.0,13.038404810405298,39.05124837953327,27.018512172212592,23.0,25.0,22.0,10.5,15.5,2.5,5.5,8.0,7.0710678118654755,7.5,17.0,26.0,21.213203435596427
80,66,160,0,6.400000000000005,1.4142135623730951,49.040799340956916,8.0,12.0,14.035668847618199,14.035668847618199,15.033296378372908,36.05551275463989,24.08318915758459,23.5,25.0,23.0,9.0,12.0,0.0,2.0,8.0,8.06225774829855,8.5,16.0,25.0,22.20360331117452
81,66,161,0,6.440000000000005,1.0,47.16990566028302,7.0710678118654755,11.0,13.038404810405298,13.038404810405298,16.0312195418814,35.05709628591621,24.08318915758459,23.5,27.0,23.0,9.0,10.0,2.0,3.0,8.0,8.246211251235321,8.5,16.0,25.0,23.194827009486403
82,66,162,0,6.480000000000005,0.0,47.16990566028302,7.0710678118654755,12.041594578792296,13.038404810405298,13.038404810405298,15.033296378372908,34.132096331752024,22.090722034374522,22.0,27.0,23.0,10.0,9.0,3.0,4.0,8.0,8.06225774829855,8.5,16.0,26.0,21.213203435596427
83,66,163,0,6.520000000000005,1.0,43.104524124504614,7.0710678118654755,12.041594578792296,12.0,13.038404810405298,15.0,35.05709628591621,23.021728866442675,22.5,30.0,27.0,13.5,6.5,6.5,6.5,8.0,8.06225774829855,8.5,16.0,26.0,22.360679774997898
84,66,164,0,6.560000000000005,1.0,42.1070065428546,7.0,13.038404810405298,12.0,13.0,15.0,36.013886210738214,23.0,22.5,30.0,27.0,13.5,7.5,6.5,6.5,9.055385138137417,9.219544457292887,9.0,16.0,27.0,21.37755832643195
85,66,165,0,6.600000000000005,0.0,43.104524124504614,8.0,12.0,13.038404810405298,13.038404810405298,15.033296378372908,35.014282800023196,23.021728866442675,23.0,30.0,27.0,13.5,6.5,6.5,6.5,9.0,9.055385138137417,9.5,18.0,28.0,22.20360331117452
86,66,166,0,6.640000000000005,1.4142135623730951,44.10215414239989,8.0,12.041594578792296,13.0,13.0,14.035668847618199,35.014282800023196,23.0,22.5,31.0,28.0,15.5,5.5,7.5,7.5,9.0,9.055385138137417,9.5,17.0,27.0,24.186773244895647
87,66,167,0,6.680000000000005,1.0,45.09988913511872,8.0,11.0,13.0,13.038404810405298,14.0,34.0,23.0,22.5,32.0,29.0,16.5,3.5,8.5,9.5,9.055385138137417,9.055385138137417,9.5,17.0,27.0,22.20360331117452
88,66,168,0,6.720000000000005,3.1622776601683795,43.04648650006177,7.0710678118654755,10.0,12.041594578792296,13.038404810405298,13.0,33.0,23.0,21.5,30.0,28.0,16.0,4.0,6.0,9.0,9.0,9.055385138137417,9.5,17.0,26.0,23.194827009486403
89,66,169,0,6.760000000000005,5.0990195135927845,46.09772228646444,6.0,9.055385138137417,12.0,14.035668847618199,12.0,32.0,23.021728866442675,20.5,29.0,26.0,15.5,4.5,4.5,9.5,8.0,8.06225774829855,8.5,16.0,26.0,22.360679774997898
90,66,170,0,6.800000000000005,0.0,45.044422518220834,7.0,11.0,12.0,12.041594578792296,13.0,31.0,20.0,20.0,27.0,25.0,13.0,5.0,7.0,7.0,8.06225774829855,7.0710678118654755,8.0,16.0,25.0,22.20360331117452
91,66,171,0,6.840000000000005,3.1622776601683795,45.0111097397076,7.0,11.045361017187261,12.0,13.0,14.0,35.0,24.020824298928627,22.5,27.0,26.0,12.5,8.5,3.5,6.5,8.0,8.06225774829855,8.5,16.0,25.0,22.20360331117452
92,66,172,0,6.880000000000005,5.0,45.09988913511872,7.0,12.0,12.0,13.0,13.0,37.0,25.0,22.5,26.0,23.0,11.5,12.5,0.5,4.5,8.0,9.055385138137417,9.0,17.0,25.0,21.213203435596427
93,66,173,0,6.920000000000005,8.06225774829855,48.093658625644196,6.082762530298219,12.041594578792296,13.038404810405298,15.033296378372908,12.0,38.01315561749642,26.0,22.0,25.0,22.0,11.5,14.5,1.5,6.5,8.0,8.06225774829855,8.5,16.0,25.0,20.09975124224178
94,66,174,0,6.960000000000005,11.0,49.16299421312742,6.0,12.041594578792296,14.035668847618199,16.0312195418814,11.045361017187261,40.049968789001575,28.0178514522438,22.5,25.0,21.0,12.0,17.0,4.0,7.0,9.055385138137417,8.06225774829855,8.0,17.0,24.0,19.235384061671343
95,66,175,0,7.000000000000005,13.0,53.150729063673246,6.0,11.045361017187261,15.033296378372908,16.1245154965971,11.045361017187261,41.048751503547585,30.01666203960727,23.5,24.0,20.0,11.0,19.0,8.0,6.0,8.0,8.246211251235321,8.5,16.0,23.0,20.09975124224178
96,66,176,0,7.040000000000005,13.038404810405298,55.226805085936306,5.0,10.04987562112089,15.033296378372908,17.029386365926403,11.045361017187261,39.11521443121589,29.068883707497267,22.5,23.0,18.0,9.5,18.5,7.5,5.5,8.0,7.0710678118654755,7.5,16.0,24.0,21.213203435596427
97,66,177,0,7.080000000000005,11.0,56.142675390472796,6.082762530298219,11.045361017187261,15.033296378372908,17.029386365926403,11.045361017187261,39.11521443121589,28.071337695236398,22.5,22.0,18.0,9.0,19.0,7.0,4.0,8.0,8.246211251235321,8.0,16.0,24.0,20.09975124224178
98,66,178,0,7.120000000000005,9.055385138137417,56.142675390472796,5.0,11.045361017187261,15.033296378372908,17.11724276862369,12.041594578792296,37.12142238654117,26.076809620810597,21.5,22.0,18.0,8.0,17.0,6.0,4.0,8.0,8.06225774829855,8.5,17.0,24.0,21.213203435596427
99,66,179,0,7.1600000000000055,5.0,54.230987451824994,6.0,11.045361017187261,15.033296378372908,17.029386365926403,11.180339887498949,33.13608305156178,22.090722034374522,19.5,21.0,16.0,7.5,14.5,3.5,2.5,9.0,8.246211251235321,8.5,15.0,22.0,21.095023109728988
100,66,180,0,7.2000000000000055,1.0,53.23532661682466,8.06225774829855,11.045361017187261,15.033296378372908,16.0312195418814,12.165525060596439,32.2490309931942,21.213203435596427,20.5,21.0,16.0,6.5,13.5,2.5,0.5,8.06225774829855,7.0710678118654755,7.5,16.0,23.0,22.090722034374522
101,66,181,0,7.240000000000005,3.605551275463989,63.694583757176716,5.385164807134504,6.4031242374328485,15.231546211727817,15.652475842498529,18.384776310850235,29.68164415931166,23.323807579381203,21.0,37.0,13.0,8.0,0.0,3.0,6.0,7.615773105863909,7.615773105863909,8.0,1.0,35.0,20.12461179749811
102,66,182,0,7.280000000000006,3.605551275463989,63.15853069855251,5.830951894845301,7.810249675906654,14.317821063276353,14.7648230602334,18.027756377319946,29.68164415931166,21.95449840010015,20.5,38.0,13.0,8.5,0.5,3.5,6.5,9.486832980505138,8.54400374531753,8.0,1.0,35.0,21.02379604162864
103,66,183,0,7.320000000000006,2.8284271247461903,60.41522986797286,5.385164807134504,7.211102550927978,12.529964086141668,13.892443989449804,18.384776310850235,30.01666203960727,22.825424421026653,21.0,37.0,12.0,7.5,1.5,1.5,5.5,8.54400374531753,7.615773105863909,8.0,1.0,35.0,21.93171219946131
104,66,184,0,7.360000000000006,1.4142135623730951,51.478150704935004,6.708203932499369,8.602325267042627,12.529964086141668,13.892443989449804,18.439088914585774,32.69556544854363,24.351591323771842,23.5,40.0,19.0,11.5,0.5,4.5,9.5,8.54400374531753,9.848857801796104,9.0,1.0,35.0,21.470910553583888
105,66,185,0,7.400000000000006,4.242640687119285,63.56099432828282,5.830951894845301,7.211102550927978,14.317821063276353,16.1245154965971,17.72004514666935,29.154759474226502,21.95449840010015,20.5,37.0,11.0,7.0,1.0,2.0,6.0,10.44030650891055,8.54400374531753,9.0,2.0,37.0,21.95449840010015
106,66,186,0,7.440000000000006,2.8284271247461903,62.64982043070834,5.830951894845301,6.4031242374328485,14.7648230602334,15.264337522473747,18.027756377319946,29.154759474226502,22.825424421026653,21.0,37.0,11.0,7.0,1.0,1.0,6.0,9.486832980505138,9.486832980505138,9.0,3.0,37.0,21.470910553583888
107,66,187,0,7.480000000000006,2.23606797749979,61.326992425847855,5.830951894845301,7.810249675906654,14.7648230602334,15.264337522473747,16.76305461424021,30.01666203960727,22.360679774997898,20.5,36.0,11.0,7.5,2.5,0.5,6.5,9.486832980505138,8.94427190999916,9.0,3.0,37.0,21.95449840010015
108,66,188,0,7.520000000000006,2.0,61.741396161732524,7.280109889280518,8.06225774829855,14.7648230602334,16.1245154965971,15.231546211727817,31.304951684997057,23.259406699226016,21.0,37.0,11.0,10.0,4.0,0.0,7.0,10.44030650891055,8.94427190999916,9.0,4.0,37.0,21.095023109728988
109,66,189,0,7.560000000000006,2.23606797749979,60.41522986797286,8.54400374531753,8.94427190999916,14.7648230602334,16.55294535724685,13.416407864998739,32.64965543462902,23.706539182259394,20.5,36.0,11.0,11.5,5.5,0.5,7.5,9.486832980505138,8.54400374531753,9.0,4.0,38.0,20.591260281974
110,66,190,0,7.600000000000006,6.708203932499369,57.38466694161429,6.324555320336759,9.848857801796104,15.231546211727817,16.55294535724685,13.92838827718412,36.76955262170047,26.92582403567252,22.0,37.0,15.0,13.0,8.0,2.0,10.0,9.486832980505138,8.54400374531753,8.5,4.0,37.0,21.470910553583888
111,66,191,0,7.640000000000006,4.47213595499958,58.69412236331676,7.280109889280518,9.848857801796104,15.652475842498529,15.652475842498529,13.92838827718412,35.4682957019364,25.632011235952593,22.0,37.0,14.0,12.5,7.5,1.5,9.5,8.94427190999916,9.848857801796104,9.0,4.0,37.0,19.72308292331602
112,66,192,0,7.680000000000006,4.123105625617661,57.38466694161429,7.615773105863909,9.848857801796104,13.92838827718412,16.55294535724685,13.92838827718412,35.4682957019364,25.632011235952593,22.0,36.0,14.0,12.0,8.0,1.0,7.0,9.486832980505138,9.848857801796104,9.0,4.0,37.0,23.259406699226016
113,66,193,0,7.720000000000006,3.605551275463989,55.71355310873648,7.280109889280518,10.770329614269007,13.92838827718412,15.231546211727817,14.866068747318506,36.40054944640259,25.632011235952593,22.5,35.0,15.0,11.0,9.0,2.0,7.0,9.486832980505138,8.54400374531753,9.0,5.0,38.0,23.259406699226016
114,66,194,0,7.760000000000006,4.47213595499958,56.64803615307419,8.246211251235321,10.770329614269007,13.92838827718412,16.15549442140351,13.92838827718412,37.33630940518894,26.570660511172846,23.0,35.0,15.0,12.0,10.0,2.0,7.0,9.486832980505138,9.848857801796104,9.5,5.0,38.0,21.095023109728988
115,66,195,0,7.800000000000006,9.219544457292887,57.9396237474839,6.324555320336759,11.704699910719626,15.231546211727817,17.08800749063506,13.92838827718412,41.10960958218893,29.410882339705484,23.5,37.0,16.0,13.5,12.5,3.5,10.5,9.486832980505138,9.486832980505138,9.0,6.0,38.0,22.825424421026653
116,66,196,0,7.840000000000006,11.40175425099138,58.872744118140105,6.324555320336759,10.44030650891055,15.811388300841896,17.08800749063506,14.317821063276353,42.37924020083418,31.953090617340916,24.5,38.0,17.0,14.5,12.5,4.5,11.5,8.94427190999916,9.848857801796104,8.5,4.0,37.0,22.825424421026653
117,66,197,0,7.880000000000006,12.165525060596439,60.166435825965294,8.54400374531753,11.704699910719626,16.15549442140351,17.08800749063506,12.083045973594572,44.27188724235731,32.57299494980466,25.0,38.0,16.0,16.0,15.0,6.0,12.0,8.94427190999916,8.94427190999916,8.5,6.0,38.0,22.825424421026653
118,66,198,0,7.920000000000006,13.341664064126334,61.68468205316454,7.280109889280518,11.704699910719626,16.76305461424021,18.027756377319946,12.529964086141668,44.598206241955516,32.89376840679705,24.5,37.0,16.0,15.5,15.5,6.5,11.5,8.54400374531753,9.848857801796104,9.0,6.0,39.0,23.259406699226016
119,66,199,0,7.960000000000006,13.341664064126334,62.96824596572466,7.280109889280518,9.848857801796104,17.72004514666935,18.973665961010276,12.529964086141668,42.720018726587654,32.89376840679705,24.5,37.0,15.0,15.0,14.0,7.0,11.0,8.54400374531753,9.486832980505138,9.0,6.0,39.0,22.360679774997898
120,66,200,0,8.000000000000005,9.486832980505138,63.90618123468183,6.324555320336759,9.848857801796104,17.08800749063506,18.027756377319946,12.529964086141668,38.07886552931954,28.231188426986208,21.5,34.0,12.0,12.0,12.0,5.0,9.0,9.486832980505138,9.848857801796104,9.0,6.0,38.0,22.360679774997898
121,66,201,0,8.040000000000004,7.615773105863909,65.45991139621256,7.280109889280518,10.770329614269007,16.76305461424021,18.027756377319946,11.661903789690601,37.16180835212409,26.40075756488817,20.5,33.0,12.0,12.5,11.5,3.5,8.5,8.54400374531753,8.54400374531753,9.0,6.0,38.0,22.360679774997898
122,66,202,0,8.080000000000004,6.708203932499369,63.245553203367585,7.280109889280518,10.44030650891055,16.76305461424021,18.681541692269406,12.529964086141668,36.76955262170047,26.40075756488817,21.0,33.0,13.0,12.0,11.0,3.0,8.0,9.486832980505138,9.848857801796104,9.5,6.0,38.0,24.166091947189145
123,66,203,0,8.120000000000003,8.246211251235321,60.74537019394976,6.324555320336759,9.848857801796104,16.15549442140351,17.08800749063506,13.416407864998739,37.69615364994153,27.85677655436824,22.0,34.0,13.0,11.5,11.5,4.5,8.5,8.54400374531753,8.54400374531753,8.5,7.0,38.0,22.360679774997898
124,66,204,0,8.160000000000002,5.385164807134504,61.09828148156051,7.280109889280518,9.848857801796104,16.15549442140351,17.46424919657298,13.416407864998739,35.84689665786984,26.0,21.5,34.0,12.0,11.0,10.0,3.0,8.0,8.54400374531753,7.615773105863909,7.5,5.0,37.0,23.259406699226016
125,66,205,0,8.200000000000001,3.1622776601683795,55.71355310873648,5.830951894845301,8.06225774829855,13.0,13.92838827718412,15.811388300841896,32.69556544854363,24.698178070456937,21.5,34.0,14.0,9.0,6.0,1.0,7.0,6.708203932499369,7.615773105863909,7.5,4.0,37.0,22.825424421026653
126,66,206,0,8.24,2.0,55.71355310873648,6.324555320336759,7.211102550927978,13.92838827718412,14.317821063276353,17.08800749063506,31.304951684997057,24.166091947189145,22.0,35.0,15.0,9.0,3.0,2.0,6.0,8.54400374531753,7.615773105863909,7.5,4.0,36.0,23.706539182259394
127,66,207,0,8.28,1.0,56.64803615307419,6.708203932499369,7.211102550927978,13.92838827718412,15.231546211727817,16.76305461424021,30.870698080866262,23.769728648009426,22.0,36.0,16.0,10.0,2.0,2.0,7.0,9.486832980505138,8.94427190999916,8.5,5.0,38.0,24.166091947189145
128,66,208,0,8.319999999999999,2.8284271247461903,57.245087125446844,7.280109889280518,7.615773105863909,12.649110640673518,13.92838827718412,17.08800749063506,30.870698080866262,23.259406699226016,22.0,35.0,16.0,9.5,2.5,2.5,5.5,8.54400374531753,9.486832980505138,9.0,4.0,36.0,22.825424421026653
129,66,209,0,8.359999999999998,2.23606797749979,56.302753041036986,9.219544457292887,8.54400374531753,13.0,14.317821063276353,16.15549442140351,33.61547262794322,25.079872407968907,23.5,35.0,16.0,10.5,5.5,0.5,4.5,8.246211251235321,9.486832980505138,9.0,5.0,36.0,23.259406699226016
130,66,210,0,8.399999999999997,2.23606797749979,57.87054518492115,9.219544457292887,11.704699910719626,14.560219778561036,15.811388300841896,13.92838827718412,36.40054944640259,24.698178070456937,22.5,34.0,16.0,12.0,9.0,0.0,5.0,8.54400374531753,8.54400374531753,8.5,8.0,38.0,24.166091947189145
131,66,211,0,8.439999999999996,2.8284271247461903,60.08327554319921,7.280109889280518,10.44030650891055,15.524174696260024,16.76305461424021,13.416407864998739,33.61547262794322,23.259406699226016,20.0,33.0,14.0,11.5,7.5,0.5,6.5,9.219544457292887,8.54400374531753,8.5,7.0,36.0,22.847319317591726
132,66,212,0,8.479999999999995,5.385164807134504,60.08327554319921,6.324555320336759,9.486832980505138,14.560219778561036,16.76305461424021,13.0,34.17601498127012,24.698178070456937,20.5,32.0,13.0,10.5,9.5,2.5,6.5,9.219544457292887,8.54400374531753,9.0,9.0,36.0,22.47220505424423
133,66,213,0,8.519999999999994,4.47213595499958,58.52349955359813,7.280109889280518,10.44030650891055,15.524174696260024,16.76305461424021,11.704699910719626,33.83784863137726,23.40939982143925,20.0,31.0,14.0,11.5,9.5,1.5,6.5,9.219544457292887,8.54400374531753,8.5,9.0,36.0,23.08679276123039
134,66,214,0,8.559999999999993,7.0710678118654755,58.82176467941097,7.280109889280518,11.704699910719626,14.560219778561036,16.76305461424021,13.0,38.897300677553446,27.202941017470888,22.5,33.0,15.0,12.0,13.0,4.0,8.0,10.198039027185569,9.486832980505138,9.5,11.0,37.0,22.47220505424423
135,66,215,0,8.599999999999993,2.0,57.97413216254298,7.0710678118654755,10.198039027185569,14.317821063276353,15.811388300841896,13.601470508735444,31.32091952673165,21.18962010041709,20.0,30.0,15.0,9.5,7.5,1.5,4.5,8.246211251235321,8.54400374531753,8.5,11.0,35.0,22.47220505424423
136,66,216,0,8.639999999999992,1.0,57.723478758647246,6.324555320336759,10.198039027185569,14.317821063276353,15.524174696260024,13.341664064126334,30.083217912982647,19.924858845171276,19.0,29.0,15.0,9.0,7.0,1.0,5.0,4.47213595499958,3.605551275463989,3.5,13.0,35.0,24.041630560342615
137,66,217,0,8.67999999999999,1.4142135623730951,57.48912940721924,6.324555320336759,10.44030650891055,15.524174696260024,16.278820596099706,14.142135623730951,32.01562118716424,21.587033144922902,20.5,29.0,16.0,8.5,8.5,0.5,5.5,4.47213595499958,4.123105625617661,4.0,12.0,32.0,25.298221281347036
138,66,218,0,8.71999999999999,1.4142135623730951,55.54277630799526,6.082762530298219,10.44030650891055,16.278820596099706,16.278820596099706,13.341664064126334,31.04834939252005,20.615528128088304,19.5,28.0,15.0,8.5,8.5,0.5,4.5,4.47213595499958,5.0990195135927845,4.5,13.0,33.0,23.08679276123039
139,66,219,0,8.75999999999999,1.4142135623730951,56.515484603779164,6.324555320336759,9.219544457292887,15.297058540778355,16.278820596099706,13.152946437965905,29.832867780352597,20.615528128088304,19.5,28.0,15.0,8.5,7.5,0.5,4.5,4.47213595499958,4.123105625617661,4.5,13.0,33.0,23.08679276123039
140,66,220,0,8.799999999999988,1.4142135623730951,57.271284253105414,5.0990195135927845,9.219544457292887,15.297058540778355,15.297058540778355,13.152946437965905,28.635642126552707,19.4164878389476,18.5,26.0,14.0,7.0,8.0,1.0,5.0,8.06225774829855,7.615773105863909,7.5,13.0,34.0,25.0
141,66,221,0,8.839999999999987,1.0,56.089214649520635,5.385164807134504,8.54400374531753,15.297058540778355,15.297058540778355,13.152946437965905,27.892651361962706,19.4164878389476,18.5,26.0,15.0,7.5,6.5,0.5,4.5,8.246211251235321,7.615773105863909,8.0,14.0,35.0,24.351591323771842
142,66,222,0,8.879999999999987,1.4142135623730951,60.207972893961475,6.082762530298219,9.219544457292887,15.297058540778355,16.278820596099706,12.36931687685298,28.861739379323623,19.6468827043885,18.5,26.0,14.0,8.0,8.0,0.0,4.0,9.055385138137417,8.54400374531753,9.0,14.0,35.0,25.96150997149434
143,66,223,0,8.919999999999986,2.23606797749979,57.0701322935211,5.0990195135927845,10.44030650891055,15.297058540778355,16.278820596099706,14.142135623730951,31.78049716414141,21.37755832643195,20.0,27.0,16.0,7.5,9.5,0.5,4.5,8.06225774829855,8.54400374531753,8.5,14.0,34.0,24.041630560342615
144,66,224,0,8.959999999999985,4.123105625617661,58.05170109479997,7.0710678118654755,11.180339887498949,15.132745950421556,17.26267650163207,12.36931687685298,34.713109915419565,23.53720459187964,21.0,26.0,15.0,8.5,13.5,3.5,3.5,9.055385138137417,8.246211251235321,8.5,14.0,34.0,25.0
145,66,225,0,8.999999999999984,6.082762530298219,58.249463516842795,6.082762530298219,12.165525060596439,16.278820596099706,17.26267650163207,12.649110640673518,36.87817782917155,24.73863375370596,21.0,26.0,14.0,8.0,16.0,4.0,4.0,9.055385138137417,9.486832980505138,9.0,15.0,35.0,23.769728648009426
146,66,226,0,9.039999999999983,4.123105625617661,57.271284253105414,7.0710678118654755,13.152946437965905,17.26267650163207,17.26267650163207,11.704699910719626,35.90264614203248,22.80350850198276,20.0,26.0,14.0,9.0,15.0,3.0,4.0,9.055385138137417,8.246211251235321,8.5,15.0,35.0,22.80350850198276
147,66,227,0,9.079999999999982,6.324555320336759,58.249463516842795,6.082762530298219,12.165525060596439,15.297058540778355,16.278820596099706,12.649110640673518,37.107950630558946,25.0,21.0,27.0,15.0,9.0,15.0,4.0,5.0,9.055385138137417,9.219544457292887,9.0,14.0,34.0,23.769728648009426
148,66,228,0,9.11999999999998,4.123105625617661,57.271284253105414,7.0710678118654755,11.180339887498949,15.297058540778355,17.26267650163207,12.649110640673518,34.92849839314596,23.769728648009426,21.0,27.0,15.0,9.0,13.0,2.0,4.0,9.055385138137417,8.246211251235321,8.5,15.0,35.0,24.73863375370596
149,66,229,0,9.15999999999998,6.082762530298219,58.463663928973865,7.280109889280518,11.40175425099138,15.297058540778355,17.26267650163207,11.40175425099138,36.138621999185304,24.73863375370596,21.0,27.0,14.0,9.5,14.5,4.5,4.5,9.055385138137417,8.54400374531753,9.0,13.0,34.0,24.041630560342615
150,66,230,0,9.19999999999998,5.0990195135927845,57.48912940721924,6.082762530298219,12.36931687685298,15.297058540778355,16.492422502470642,12.649110640673518,36.138621999185304,23.769728648009426,20.5,28.0,15.0,9.5,13.5,2.5,4.5,9.055385138137417,8.246211251235321,9.0,13.0,35.0,23.08679276123039
151,66,231,0,9.23999999999998,6.082762530298219,56.515484603779164,6.324555320336759,11.180339887498949,16.278820596099706,17.26267650163207,12.649110640673518,36.138621999185304,25.0,21.0,28.0,15.0,9.5,13.5,3.5,5.5,9.055385138137417,8.246211251235321,8.5,13.0,35.0,24.73863375370596
152,66,232,0,9.279999999999978,6.082762530298219,57.723478758647246,6.324555320336759,12.36931687685298,15.524174696260024,17.46424919657298,12.649110640673518,37.36308338453881,25.0,21.0,29.0,15.0,10.0,14.0,3.0,6.0,9.219544457292887,9.219544457292887,9.5,11.0,34.0,24.041630560342615
153,66,233,0,9.319999999999975,5.385164807134504,58.9406481131655,7.0710678118654755,11.180339887498949,15.297058540778355,17.46424919657298,11.704699910719626,35.17101079013795,24.041630560342615,20.5,28.0,13.0,9.5,13.5,3.5,4.5,9.219544457292887,9.219544457292887,9.0,11.0,35.0,23.08679276123039
154,66,234,0,9.359999999999976,3.1622776601683795,57.0087712549569,7.0710678118654755,11.40175425099138,15.297058540778355,17.46424919657298,13.0,34.48187929913333,23.08679276123039,20.5,29.0,14.0,9.5,11.5,1.5,4.5,9.219544457292887,9.219544457292887,9.0,11.0,35.0,25.298221281347036
155,66,235,0,9.399999999999975,3.1622776601683795,57.0087712549569,6.324555320336759,11.40175425099138,15.524174696260024,16.492422502470642,12.649110640673518,33.52610922848042,22.135943621178654,19.5,28.0,13.0,8.5,11.5,1.5,4.5,9.055385138137417,8.246211251235321,8.5,10.0,35.0,24.698178070456937
156,66,236,0,9.439999999999976,2.23606797749979,57.97413216254298,7.280109889280518,12.36931687685298,16.278820596099706,16.492422502470642,11.704699910719626,33.52610922848042,21.18962010041709,19.0,28.0,13.0,9.5,11.5,1.5,4.5,10.198039027185569,9.486832980505138,9.5,10.0,35.0,22.847319317591726
157,66,237,0,9.479999999999974,3.605551275463989,54.817880294662984,6.082762530298219,12.165525060596439,14.317821063276353,15.524174696260024,12.649110640673518,34.20526275297414,22.135943621178654,19.5,27.0,13.0,8.0,13.0,2.0,4.0,9.219544457292887,9.486832980505138,9.5,11.0,36.0,24.698178070456937
158,66,238,0,9.519999999999971,2.23606797749979,51.92301994298868,7.0710678118654755,11.40175425099138,14.317821063276353,14.317821063276353,15.811388300841896,36.40054944640259,25.0,23.0,30.0,16.0,8.0,12.0,2.0,4.0,9.219544457292887,8.54400374531753,9.0,10.0,36.0,24.351591323771842
159,66,239,0,9.559999999999972,1.4142135623730951,51.24451190127583,7.0710678118654755,10.44030650891055,13.601470508735444,14.560219778561036,14.560219778561036,33.24154027718932,22.80350850198276,21.5,31.0,16.0,9.5,8.5,1.5,5.5,10.198039027185569,9.848857801796104,9.5,9.0,34.0,23.40939982143925
160,66,240,0,9.599999999999971,0.0,46.17358552246078,7.280109889280518,11.40175425099138,13.341664064126334,13.341664064126334,15.297058540778355,33.95585369269929,22.561028345356956,22.0,36.0,22.0,14.0,4.0,7.0,9.0,9.219544457292887,10.44030650891055,10.0,11.0,36.0,20.248456731316587
161,66,241,0,9.63999999999997,1.0,46.84015371452148,7.0710678118654755,12.36931687685298,11.180339887498949,13.341664064126334,15.524174696260024,35.17101079013795,22.80350850198276,22.0,36.0,23.0,14.5,4.5,6.5,8.5,10.198039027185569,10.770329614269007,10.5,10.0,35.0,22.47220505424423
162,66,242,0,9.67999999999997,2.23606797749979,47.80167361086848,8.246211251235321,12.36931687685298,13.341664064126334,14.560219778561036,13.601470508735444,36.40054944640259,24.041630560342615,22.0,37.0,24.0,17.5,4.5,5.5,11.5,10.198039027185569,10.44030650891055,10.5,10.0,35.0,23.08679276123039
163,66,243,0,9.719999999999969,1.0,47.43416490252569,7.280109889280518,12.36931687685298,12.36931687685298,13.601470508735444,14.317821063276353,34.20526275297414,21.840329667841555,21.0,35.0,20.0,13.5,5.5,5.5,8.5,10.198039027185569,9.486832980505138,9.5,9.0,34.0,22.47220505424423
164,66,244,0,9.759999999999968,1.0,46.57252408878007,8.246211251235321,12.36931687685298,12.165525060596439,14.317821063276353,14.317821063276353,35.17101079013795,22.80350850198276,22.0,36.0,24.0,16.0,4.0,7.0,10.0,9.219544457292887,9.848857801796104,9.5,11.0,36.0,23.40939982143925
165,66,245,0,9.799999999999969,1.4142135623730951,50.96076922496363,8.246211251235321,13.341664064126334,12.36931687685298,13.601470508735444,13.341664064126334,36.138621999185304,22.80350850198276,21.5,31.0,17.0,11.0,11.0,2.0,5.0,9.055385138137417,8.54400374531753,8.5,11.0,35.0,23.40939982143925
166,66,246,0,9.839999999999966,2.8284271247461903,52.392747589718944,9.055385138137417,13.152946437965905,14.317821063276353,16.278820596099706,12.649110640673518,37.107950630558946,24.041630560342615,22.0,32.0,20.0,14.0,10.0,3.0,7.0,8.246211251235321,7.615773105863909,8.0,10.0,34.0,25.298221281347036
167,66,247,0,9.879999999999963,7.280109889280518,53.600373133029585,8.06225774829855,13.341664064126334,14.317821063276353,16.278820596099706,11.704699910719626,40.26164427839479,26.92582403567252,22.5,30.0,17.0,12.5,15.5,3.5,6.5,9.219544457292887,8.54400374531753,8.5,12.0,36.0,24.351591323771842
168,66,248,0,9.919999999999964,12.041594578792296,52.88667128870941,6.082762530298219,13.341664064126334,14.317821063276353,16.492422502470642,12.649110640673518,43.93176527297759,30.59411708155671,24.0,32.0,18.0,13.0,18.0,6.0,8.0,8.246211251235321,8.246211251235321,8.5,12.0,35.0,24.041630560342615
169,66,249,0,9.959999999999964,9.055385138137417,53.600373133029585,8.246211251235321,14.317821063276353,14.317821063276353,16.492422502470642,12.165525060596439,43.73785545725808,29.427877939124322,24.5,32.0,19.0,13.5,17.5,4.5,7.5,7.280109889280518,7.280109889280518,7.5,12.0,35.0,23.40939982143925
170,66,250,0,9.999999999999964,9.219544457292887,53.85164807134504,6.324555320336759,13.341664064126334,14.560219778561036,17.26267650163207,11.40175425099138,40.26164427839479,26.92582403567252,21.5,31.0,17.0,13.0,15.0,3.0,9.0,8.246211251235321,7.280109889280518,7.5,12.0,35.0,23.40939982143925
171,66,251,0,10.039999999999962,7.280109889280518,55.08175741568164,6.324555320336759,13.152946437965905,15.524174696260024,17.46424919657298,12.36931687685298,39.05124837953327,25.96150997149434,21.5,31.0,16.0,11.5,14.5,2.5,7.5,7.280109889280518,7.615773105863909,7.5,11.0,34.0,24.351591323771842
172,66,252,0,10.07999999999996,7.0710678118654755,54.120236510939236,6.324555320336759,12.36931687685298,15.297058540778355,17.46424919657298,10.770329614269007,36.40054944640259,24.041630560342615,19.5,29.0,14.0,11.5,13.5,2.5,7.5,7.280109889280518,7.280109889280518,7.5,12.0,34.0,21.18962010041709
173,66,253,0,10.11999999999996,8.246211251235321,53.16013544000805,5.385164807134504,11.180339887498949,15.297058540778355,16.278820596099706,10.44030650891055,35.17101079013795,24.041630560342615,19.0,28.0,13.0,10.5,13.5,3.5,6.5,7.280109889280518,7.280109889280518,7.5,10.0,33.0,22.135943621178654
174,66,254,0,10.15999999999996,8.06225774829855,53.600373133029585,5.385164807134504,12.36931687685298,15.297058540778355,16.278820596099706,10.44030650891055,36.138621999185304,23.769728648009426,19.0,27.0,14.0,10.5,14.5,3.5,6.5,7.280109889280518,7.0710678118654755,7.0,11.0,33.0,19.924858845171276
175,66,255,0,10.199999999999958,8.06225774829855,53.600373133029585,5.385164807134504,14.317821063276353,15.297058540778355,17.26267650163207,11.704699910719626,39.293765408777,25.0,20.0,28.0,15.0,10.5,16.5,3.5,7.5,5.385164807134504,5.0990195135927845,5.5,11.0,33.0,21.18962010041709
176,66,256,0,10.239999999999958,9.219544457292887,54.3415126767741,5.385164807134504,12.165525060596439,16.492422502470642,16.278820596099706,11.704699910719626,38.3275357934736,26.248809496813376,20.5,27.0,15.0,10.0,16.0,4.0,7.0,6.324555320336759,5.385164807134504,5.0,12.0,33.0,21.18962010041709
177,66,257,0,10.279999999999957,9.055385138137417,55.10898293381942,6.324555320336759,13.152946437965905,15.297058540778355,16.1245154965971,10.44030650891055,38.8329756778952,25.709920264364882,20.5,26.0,15.0,10.5,17.5,5.5,6.5,6.324555320336759,6.082762530298219,6.0,12.0,32.0,21.840329667841555
178,66,258,0,10.319999999999956,10.04987562112089,55.31726674375732,6.324555320336759,13.341664064126334,16.278820596099706,18.24828759089466,10.770329614269007,40.26164427839479,26.92582403567252,21.0,27.0,15.0,11.0,18.0,5.0,7.0,6.324555320336759,6.324555320336759,6.0,12.0,31.0,21.840329667841555
179,66,259,0,10.359999999999957,13.152946437965905,55.31726674375732,5.0990195135927845,12.165525060596439,17.26267650163207,18.24828759089466,11.40175425099138,41.773197148410844,29.614185789921695,22.5,28.0,16.0,11.0,19.0,7.0,8.0,6.324555320336759,6.324555320336759,6.0,12.0,32.0,21.840329667841555
180,66,260,0,10.399999999999954,12.165525060596439,56.515484603779164,5.0990195135927845,12.165525060596439,16.278820596099706,18.24828759089466,12.649110640673518,41.97618372363071,29.832867780352597,23.0,28.0,15.0,9.5,19.5,8.5,6.5,6.324555320336759,6.324555320336759,6.0,13.0,32.0,22.80350850198276
181,66,261,0,10.439999999999952,11.180339887498949,56.293871780150276,6.082762530298219,12.165525060596439,17.46424919657298,18.439088914585774,11.40175425099138,40.792156108742276,28.635642126552707,22.5,27.0,15.0,10.0,19.0,8.0,7.0,6.324555320336759,5.385164807134504,5.0,13.0,32.0,21.18962010041709
182,66,262,0,10.479999999999952,9.055385138137417,56.293871780150276,6.324555320336759,11.40175425099138,16.278820596099706,18.439088914585774,12.36931687685298,39.05124837953327,27.65863337187866,22.5,28.0,16.0,10.0,16.0,5.0,7.0,6.082762530298219,5.385164807134504,5.5,12.0,31.0,21.840329667841555
183,66,263,0,10.519999999999952,8.06225774829855,56.293871780150276,5.0990195135927845,11.40175425099138,16.278820596099706,17.26267650163207,12.649110640673518,37.107950630558946,25.709920264364882,21.0,27.0,15.0,9.0,15.0,4.0,6.0,6.324555320336759,5.385164807134504,5.5,13.0,32.0,22.561028345356956
184,66,264,0,10.55999999999995,5.0990195135927845,55.54277630799526,5.0990195135927845,10.44030650891055,16.278820596099706,16.278820596099706,12.649110640673518,33.24154027718932,22.80350850198276,19.5,27.0,14.0,8.5,11.5,2.5,5.5,6.324555320336759,6.324555320336759,6.0,13.0,31.0,20.615528128088304
185,66,265,0,10.59999999999995,2.23606797749979,58.463663928973865,5.385164807134504,9.219544457292887,16.278820596099706,17.26267650163207,12.36931687685298,29.120439557122072,19.924858845171276,18.0,25.0,12.0,6.5,9.5,0.5,3.5,6.324555320336759,6.082762530298219,6.0,13.0,31.0,21.840329667841555
186,66,266,0,10.639999999999947,3.1622776601683795,58.249463516842795,5.385164807134504,10.198039027185569,16.278820596099706,17.26267650163207,12.165525060596439,30.805843601498726,20.615528128088304,18.5,25.0,13.0,7.0,11.0,1.0,4.0,6.082762530298219,6.324555320336759,6.0,13.0,31.0,21.840329667841555
187,66,267,0,10.679999999999948,2.23606797749979,58.249463516842795,5.0990195135927845,11.180339887498949,16.278820596099706,17.26267650163207,13.601470508735444,32.01562118716424,20.8806130178211,19.0,26.0,14.0,7.0,11.0,0.0,4.0,6.082762530298219,6.082762530298219,6.0,13.0,31.0,22.80350850198276
188,66,268,0,10.719999999999947,8.06225774829855,58.463663928973865,5.0990195135927845,12.165525060596439,16.278820596099706,18.24828759089466,12.649110640673518,37.8549864614954,25.709920264364882,21.0,28.0,15.0,9.5,15.5,4.5,6.5,6.082762530298219,6.324555320336759,6.0,14.0,32.0,22.561028345356956
189,66,269,0,10.759999999999946,12.041594578792296,57.271284253105414,6.082762530298219,12.36931687685298,16.278820596099706,18.439088914585774,12.649110640673518,42.95346318982906,30.59411708155671,24.0,29.0,17.0,11.0,19.0,7.0,7.0,6.324555320336759,6.324555320336759,6.5,14.0,31.0,19.6468827043885
190,66,270,0,10.799999999999946,15.033296378372908,58.463663928973865,6.082762530298219,12.36931687685298,16.278820596099706,18.24828759089466,12.36931687685298,45.70557952810576,33.37663853655727,25.5,30.0,17.0,11.5,21.5,9.5,7.5,6.324555320336759,6.324555320336759,6.0,14.0,32.0,21.587033144922902
191,66,271,0,10.839999999999945,12.0,56.88585061331157,6.082762530298219,13.341664064126334,16.1245154965971,18.24828759089466,13.601470508735444,44.721359549995796,31.400636936215164,25.0,29.0,19.0,11.0,20.0,7.0,6.0,6.324555320336759,5.385164807134504,6.0,14.0,31.0,21.587033144922902
192,66,272,0,10.879999999999944,5.0990195135927845,56.089214649520635,7.280109889280518,13.152946437965905,14.317821063276353,16.278820596099706,15.132745950421556,40.607881008493905,27.459060435491963,24.5,30.0,19.0,9.5,15.5,3.5,4.5,6.082762530298219,7.280109889280518,7.0,14.0,31.0,22.80350850198276
193,66,273,0,10.919999999999945,1.4142135623730951,50.80354318352215,8.06225774829855,12.165525060596439,13.152946437965905,14.317821063276353,17.26267650163207,38.63935817272331,26.476404589747453,25.5,30.0,21.0,8.5,12.5,0.5,2.5,7.280109889280518,7.280109889280518,7.0,14.0,30.0,21.840329667841555
194,66,274,0,10.959999999999942,0.0,50.00999900019995,8.246211251235321,11.180339887498949,13.152946437965905,14.317821063276353,18.110770276274835,37.48332962798263,26.30589287593181,26.0,32.0,22.0,9.0,10.0,1.0,3.0,7.0710678118654755,6.324555320336759,6.0,14.0,31.0,23.769728648009426
195,66,275,0,10.99999999999994,1.0,52.773099207835045,9.055385138137417,13.152946437965905,14.142135623730951,15.132745950421556,17.26267650163207,39.6232255123179,26.476404589747453,26.0,30.0,21.0,8.5,13.5,0.5,1.5,7.0710678118654755,6.324555320336759,6.5,15.0,30.0,23.53720459187964
196,66,276,0,11.03999999999994,1.0,53.75872022286245,9.055385138137417,15.132745950421556,14.317821063276353,16.278820596099706,16.492422502470642,41.593268686170845,26.476404589747453,25.5,30.0,21.0,9.5,15.5,0.5,2.5,5.0,5.0990195135927845,5.5,17.0,31.0,23.53720459187964
197,66,277,0,11.07999999999994,3.1622776601683795,54.74486277268398,10.04987562112089,16.1245154965971,16.278820596099706,17.11724276862369,14.142135623730951,43.41658669218482,27.294688127912362,25.5,30.0,21.0,11.5,17.5,1.5,3.5,6.082762530298219,6.082762530298219,6.5,17.0,31.0,24.331050121192877
198,66,278,0,11.11999999999994,4.0,56.71860364994893,10.04987562112089,15.132745950421556,17.11724276862369,19.235384061671343,13.341664064126334,42.42640687119285,27.294688127912362,25.0,30.0,21.0,12.5,16.5,2.5,3.5,6.0,6.082762530298219,6.0,17.0,29.0,22.561028345356956
199,66,279,0,11.159999999999938,5.0,59.53990258641679,10.04987562112089,15.132745950421556,18.110770276274835,20.09975124224178,13.341664064126334,43.41658669218482,28.284271247461902,25.5,29.0,21.0,12.0,18.0,3.0,4.0,7.0710678118654755,6.082762530298219,6.5,17.0,29.0,23.345235059857504
200,66,280,0,11.199999999999935,7.0710678118654755,60.40695324215582,9.055385138137417,13.152946437965905,17.029386365926403,18.027756377319946,12.165525060596439,41.43669871020132,28.284271247461902,24.5,26.0,19.0,10.5,18.5,5.5,2.5,6.082762530298219,6.082762530298219,6.0,16.0,28.0,23.345235059857504
201,66,281,0,11.239999999999936,10.198039027185569,61.66036003787198,6.082762530298219,11.045361017187261,17.11724276862369,19.1049731745428,13.341664064126334,40.607881008493905,29.614185789921695,24.0,27.0,18.0,9.5,17.5,6.5,4.5,7.0710678118654755,7.280109889280518,6.5,17.0,29.0,21.213203435596427
202,66,282,0,11.279999999999935,8.246211251235321,59.841457201508724,6.082762530298219,12.041594578792296,17.11724276862369,19.235384061671343,13.341664064126334,39.6232255123179,27.65863337187866,23.0,27.0,17.0,9.0,17.0,5.0,5.0,7.0710678118654755,6.082762530298219,6.5,16.0,29.0,21.213203435596427
203,66,283,0,11.319999999999936,7.0710678118654755,58.855755878248644,6.082762530298219,11.180339887498949,16.1245154965971,18.110770276274835,14.317821063276353,38.63935817272331,27.459060435491963,23.5,28.0,18.0,9.0,15.0,4.0,5.0,6.082762530298219,6.082762530298219,6.5,15.0,28.0,22.20360331117452
204,66,284,0,11.359999999999934,4.123105625617661,59.682493245507096,6.082762530298219,12.165525060596439,16.278820596099706,18.110770276274835,15.297058540778355,37.656340767525464,25.495097567963924,23.0,28.0,19.0,8.5,13.5,1.5,4.5,7.0710678118654755,6.082762530298219,6.5,14.0,27.0,24.331050121192877
205,66,285,0,11.399999999999933,1.4142135623730951,55.731499172371095,7.0710678118654755,10.198039027185569,15.132745950421556,16.1245154965971,16.278820596099706,32.7566787083184,22.561028345356956,22.5,28.0,19.0,7.5,8.5,1.5,2.5,7.0710678118654755,7.280109889280518,7.0,15.0,29.0,22.360679774997898
206,66,286,0,11.439999999999932,1.0,55.731499172371095,8.06225774829855,9.219544457292887,14.142135623730951,15.132745950421556,15.297058540778355,31.575306807693888,22.360679774997898,22.5,28.0,19.0,8.5,7.5,1.5,2.5,7.0710678118654755,6.324555320336759,6.5,15.0,29.0,22.360679774997898
207,66,287,0,11.479999999999931,1.4142135623730951,55.731499172371095,8.06225774829855,11.180339887498949,15.132745950421556,16.1245154965971,16.1245154965971,34.52535300326414,23.345235059857504,23.5,29.0,20.0,8.5,9.5,1.5,2.5,8.06225774829855,6.324555320336759,7.0,16.0,29.0,23.53720459187964
208,66,288,0,11.51999999999993,0.0,56.568542494923804,8.06225774829855,13.152946437965905,15.132745950421556,17.11724276862369,16.278820596099706,37.48332962798263,24.331050121192877,24.0,29.0,21.0,9.0,12.0,0.0,2.0,7.0710678118654755,6.324555320336759,6.0,15.0,29.0,23.769728648009426
209,66,289,0,11.55999999999993,6.082762530298219,56.568542494923804,7.0710678118654755,13.152946437965905,16.0312195418814,18.110770276274835,13.152946437965905,39.45883931389772,26.30589287593181,23.0,27.0,19.0,10.0,16.0,3.0,4.0,6.082762530298219,6.082762530298219,6.5,15.0,28.0,22.561028345356956
210,66,290,0,11.599999999999929,7.0710678118654755,58.54912467321779,7.0710678118654755,13.038404810405298,17.11724276862369,18.110770276274835,13.152946437965905,40.311288741492746,27.294688127912362,23.5,26.0,18.0,9.0,18.0,5.0,4.0,4.47213595499958,5.0990195135927845,4.5,16.0,29.0,22.561028345356956
211,66,291,0,11.639999999999928,7.0710678118654755,59.682493245507096,7.0710678118654755,12.165525060596439,17.029386365926403,18.110770276274835,13.152946437965905,39.45883931389772,27.294688127912362,23.5,26.0,17.0,8.5,17.5,4.5,2.5,5.0990195135927845,5.385164807134504,5.0,16.0,28.0,22.360679774997898
212,66,292,0,11.679999999999929,8.06225774829855,58.54912467321779,7.0710678118654755,12.041594578792296,16.1245154965971,17.11724276862369,12.36931687685298,39.45883931389772,27.459060435491963,23.0,25.0,17.0,9.0,18.0,6.0,4.0,5.0990195135927845,6.082762530298219,6.0,16.0,29.0,20.223748416156685
213,66,293,0,11.719999999999926,5.0,58.54912467321779,7.0710678118654755,14.142135623730951,17.11724276862369,19.1049731745428,13.341664064126334,39.45883931389772,25.317977802344327,22.5,25.0,17.0,8.0,18.0,4.0,2.0,6.082762530298219,6.082762530298219,6.0,17.0,28.0,23.345235059857504
214,66,294,0,11.759999999999923,9.055385138137417,59.53990258641679,7.0710678118654755,12.041594578792296,16.1245154965971,19.1049731745428,12.36931687685298,40.44749683231337,28.442925306655784,23.5,24.0,16.0,8.0,20.0,8.0,3.0,5.0990195135927845,5.0990195135927845,5.0,17.0,29.0,21.37755832643195
215,66,295,0,11.799999999999924,8.0,58.42088667591412,7.0710678118654755,12.165525060596439,16.0312195418814,18.027756377319946,12.165525060596439,39.319206502675,27.16615541441225,23.0,23.0,16.0,7.5,19.5,7.5,2.5,5.0990195135927845,5.0990195135927845,4.5,17.0,27.0,21.213203435596427
216,66,296,0,11.839999999999923,6.082762530298219,58.54912467321779,7.0710678118654755,12.041594578792296,17.11724276862369,18.027756377319946,12.165525060596439,37.33630940518894,25.317977802344327,22.0,23.0,15.0,7.0,18.0,5.0,2.0,4.123105625617661,5.0990195135927845,5.0,18.0,29.0,21.37755832643195
217,66,297,0,11.879999999999924,7.0710678118654755,57.42821606144492,6.082762530298219,11.045361017187261,16.1245154965971,17.11724276862369,12.165525060596439,36.345563690772494,25.317977802344327,21.5,22.0,15.0,6.5,17.5,5.5,2.5,4.0,4.123105625617661,4.5,17.0,28.0,22.360679774997898
218,66,298,0,11.919999999999922,6.082762530298219,58.42088667591412,6.082762530298219,12.041594578792296,17.029386365926403,18.027756377319946,13.152946437965905,37.33630940518894,25.317977802344327,22.0,23.0,16.0,6.5,17.5,5.5,1.5,4.123105625617661,4.123105625617661,4.5,17.0,28.0,23.194827009486403
219,66,299,0,11.95999999999992,5.0,56.43580423808985,6.082762530298219,12.165525060596439,16.0312195418814,18.110770276274835,13.152946437965905,36.345563690772494,24.186773244895647,21.5,23.0,16.0,6.5,16.5,4.5,1.5,6.082762530298219,5.0990195135927845,5.0,17.0,29.0,23.345235059857504
220,66,300,0,11.99999999999992,2.0,55.57877292636101,6.082762530298219,12.165525060596439,16.1245154965971,17.029386365926403,13.152946437965905,33.37663853655727,21.213203435596427,20.0,22.0,14.0,5.0,15.0,3.0,1.0,5.0990195135927845,5.0,5.5,18.0,29.0,22.360679774997898
221,66,301,0,12.03999999999992,1.4142135623730951,55.44366510251645,6.082762530298219,11.045361017187261,16.0312195418814,18.110770276274835,13.152946437965905,31.400636936215164,20.396078054371138,19.5,22.0,15.0,5.5,12.5,1.5,0.5,4.123105625617661,4.0,4.0,16.0,28.0,22.20360331117452
222,66,302,0,12.079999999999918,1.0,55.57877292636101,6.082762530298219,11.180339887498949,16.0312195418814,18.027756377319946,13.152946437965905,31.400636936215164,20.223748416156685,19.5,23.0,15.0,6.0,12.0,1.0,1.0,4.123105625617661,4.0,4.0,16.0,27.0,22.561028345356956
223,66,303,0,12.119999999999918,0.0,55.44366510251645,7.0710678118654755,11.045361017187261,16.1245154965971,17.11724276862369,13.152946437965905,31.25699921617557,20.223748416156685,20.0,22.0,15.0,5.5,12.5,1.5,0.5,4.123105625617661,4.0,4.5,16.0,28.0,23.345235059857504
224,66,304,0,12.159999999999917,1.0,56.568542494923804,7.0710678118654755,11.180339887498949,16.1245154965971,18.027756377319946,12.165525060596439,31.400636936215164,20.223748416156685,19.5,22.0,14.0,6.0,13.0,2.0,1.0,4.123105625617661,4.0,4.5,16.0,27.0,23.345235059857504
225,66,305,0,12.199999999999916,5.0,56.43580423808985,7.0,13.152946437965905,16.0312195418814,18.027756377319946,12.36931687685298,37.33630940518894,24.186773244895647,21.5,23.0,16.0,7.5,17.5,4.5,1.5,5.0990195135927845,5.0990195135927845,5.0,17.0,28.0,23.194827009486403
226,66,306,0,12.239999999999917,5.0,56.32051136131489,7.0710678118654755,13.038404810405298,16.0312195418814,18.027756377319946,12.041594578792296,37.12142238654117,24.08318915758459,21.5,22.0,16.0,7.0,18.0,5.0,1.0,4.123105625617661,4.0,4.5,17.0,28.0,24.186773244895647
227,66,307,0,12.279999999999914,2.23606797749979,55.44366510251645,8.0,14.035668847618199,17.029386365926403,18.027756377319946,13.341664064126334,37.33630940518894,23.345235059857504,22.0,23.0,16.0,6.5,17.5,3.5,0.5,5.0990195135927845,4.123105625617661,4.0,17.0,27.0,22.20360331117452
228,66,308,0,12.319999999999911,7.0,57.3149195236284,6.082762530298219,13.038404810405298,16.0312195418814,18.027756377319946,13.152946437965905,39.20459156782532,26.1725046566048,22.5,23.0,17.0,7.0,19.0,5.0,2.0,4.123105625617661,5.0,5.0,17.0,29.0,24.331050121192877
229,66,309,0,12.359999999999912,8.06225774829855,59.413803110051795,7.0,12.165525060596439,17.029386365926403,19.026297590440446,13.152946437965905,40.311288741492746,28.160255680657446,24.0,25.0,18.0,8.5,18.5,5.5,2.5,4.123105625617661,4.0,4.5,16.0,28.0,22.360679774997898
230,66,310,0,12.399999999999912,7.0710678118654755,57.42821606144492,6.082762530298219,12.041594578792296,16.0312195418814,18.027756377319946,13.152946437965905,38.3275357934736,26.30589287593181,22.5,24.0,17.0,7.5,17.5,5.5,2.5,5.0990195135927845,5.0990195135927845,4.5,17.0,28.0,21.37755832643195
231,66,311,0,12.43999999999991,6.082762530298219,56.43580423808985,7.0710678118654755,12.041594578792296,16.1245154965971,17.11724276862369,12.165525060596439,37.33630940518894,25.317977802344327,22.0,23.0,16.0,7.5,17.5,4.5,2.5,5.0990195135927845,5.0990195135927845,5.0,16.0,28.0,22.360679774997898
232,66,312,0,12.47999999999991,3.0,56.43580423808985,7.0710678118654755,12.165525060596439,16.1245154965971,17.11724276862369,13.341664064126334,35.510561809129406,23.345235059857504,21.5,23.0,16.0,6.5,15.5,3.5,1.5,4.123105625617661,4.123105625617661,4.5,16.0,29.0,23.345235059857504
233,66,313,0,12.519999999999907,4.123105625617661,56.568542494923804,7.0710678118654755,12.165525060596439,17.11724276862369,18.110770276274835,13.038404810405298,36.345563690772494,24.186773244895647,22.0,24.0,16.0,7.0,16.0,4.0,2.0,5.0990195135927845,5.0,5.0,16.0,28.0,22.360679774997898
234,66,314,0,12.559999999999908,4.123105625617661,56.568542494923804,6.0,11.180339887498949,16.0312195418814,17.029386365926403,13.152946437965905,34.36568055487916,23.194827009486403,21.0,23.0,15.0,6.0,15.0,4.0,1.0,5.0,5.0990195135927845,5.0,15.0,28.0,22.360679774997898
235,66,315,0,12.599999999999907,5.0990195135927845,56.568542494923804,6.082762530298219,12.041594578792296,16.1245154965971,17.11724276862369,13.152946437965905,36.345563690772494,24.331050121192877,21.5,23.0,15.0,6.0,17.0,4.0,2.0,5.0990195135927845,5.0990195135927845,5.0,16.0,29.0,21.587033144922902
236,66,316,0,12.639999999999906,5.0990195135927845,56.43580423808985,7.0710678118654755,13.152946437965905,16.0312195418814,17.029386365926403,13.152946437965905,38.47076812334269,25.317977802344327,22.5,25.0,18.0,8.5,16.5,3.5,2.5,4.123105625617661,4.123105625617661,4.5,16.0,28.0,19.235384061671343
237,66,317,0,12.679999999999906,6.082762530298219,57.55866572463264,9.055385138137417,13.152946437965905,15.132745950421556,17.029386365926403,12.165525060596439,40.44749683231337,27.294688127912362,24.0,25.0,17.0,9.0,19.0,5.0,2.0,5.0990195135927845,4.123105625617661,4.5,16.0,28.0,20.396078054371138
238,66,318,0,12.719999999999905,4.123105625617661,55.44366510251645,8.06225774829855,15.033296378372908,16.0312195418814,17.029386365926403,14.142135623730951,41.30375285612676,26.30589287593181,24.0,26.0,19.0,8.5,18.5,3.5,1.5,5.0990195135927845,5.0990195135927845,5.0,16.0,28.0,21.37755832643195
239,66,319,0,12.759999999999904,9.055385138137417,56.32051136131489,7.0710678118654755,12.165525060596439,16.0312195418814,18.027756377319946,13.152946437965905,41.43669871020132,29.274562336608895,24.5,25.0,19.0,9.0,19.0,6.0,3.0,5.0990195135927845,5.0990195135927845,5.0,16.0,27.0,22.360679774997898
240,66,320,0,12.799999999999905,6.082762530298219,56.43580423808985,7.0710678118654755,13.152946437965905,15.132745950421556,18.027756377319946,13.152946437965905,39.45883931389772,26.30589287593181,23.0,25.0,18.0,8.5,17.5,4.5,3.5,5.0990195135927845,4.123105625617661,4.0,16.0,27.0,21.213203435596427
241,66,321,0,12.839999999999902,7.0710678118654755,56.43580423808985,6.0,12.165525060596439,15.033296378372908,18.027756377319946,13.341664064126334,38.47076812334269,26.30589287593181,22.5,24.0,17.0,7.5,17.5,5.5,2.5,5.0990195135927845,5.0990195135927845,5.0,17.0,28.0,22.360679774997898
242,66,322,0,12.8799999999999,5.0990195135927845,58.309518948453004,6.0,12.165525060596439,17.029386365926403,18.027756377319946,13.152946437965905,36.345563690772494,24.186773244895647,21.5,23.0,17.0,7.0,16.0,4.0,2.0,4.123105625617661,4.123105625617661,4.0,17.0,28.0,23.194827009486403
243,66,323,0,12.9199999999999,5.0990195135927845,57.3149195236284,6.082762530298219,12.041594578792296,16.0312195418814,17.029386365926403,13.152946437965905,36.345563690772494,24.331050121192877,21.5,23.0,17.0,7.0,16.0,4.0,2.0,5.0990195135927845,5.0,5.0,17.0,27.0,22.360679774997898
244,66,324,0,12.9599999999999,4.123105625617661,57.42821606144492,7.0,12.041594578792296,17.11724276862369,18.027756377319946,13.341664064126334,36.345563690772494,24.331050121192877,22.0,23.0,16.0,6.5,16.5,3.5,1.5,5.0990195135927845,4.123105625617661,4.0,17.0,26.0,22.360679774997898
245,66,325,0,12.9999999999999,10.04987562112089,58.42088667591412,5.0990195135927845,12.165525060596439,17.029386365926403,18.027756377319946,13.038404810405298,40.311288741492746,28.160255680657446,23.0,24.0,17.0,7.5,19.5,7.5,3.5,4.123105625617661,4.123105625617661,4.0,17.0,27.0,21.213203435596427
246,66,326,0,13.039999999999898,11.045361017187261,57.42821606144492,5.0990195135927845,12.041594578792296,15.033296378372908,17.11724276862369,12.041594578792296,40.19950248448356,28.160255680657446,22.5,24.0,17.0,8.5,19.5,7.5,4.5,5.0990195135927845,5.0990195135927845,5.0,17.0,28.0,21.213203435596427
247,66,327,0,13.079999999999895,9.055385138137417,56.43580423808985,6.082762530298219,13.038404810405298,15.033296378372908,17.029386365926403,13.038404810405298,41.19465984809196,28.160255680657446,23.5,25.0,18.0,8.5,19.5,6.5,4.5,5.0990195135927845,5.0,5.0,17.0,28.0,20.223748416156685
248,66,328,0,13.119999999999896,8.0,54.3323108288245,5.0990195135927845,13.152946437965905,14.035668847618199,16.0312195418814,13.152946437965905,39.319206502675,26.1725046566048,22.0,24.0,18.0,8.0,18.0,5.0,4.0,4.123105625617661,4.0,4.5,17.0,29.0,22.20360331117452
249,66,329,0,13.159999999999895,5.0,53.23532661682466,6.082762530298219,12.165525060596439,15.033296378372908,16.0312195418814,14.142135623730951,37.33630940518894,25.179356624028344,22.5,24.0,19.0,7.5,15.5,3.5,3.5,4.123105625617661,4.0,4.0,17.0,29.0,20.223748416156685
250,66,330,0,13.199999999999894,4.0,50.35871324805669,5.0990195135927845,12.041594578792296,14.035668847618199,15.132745950421556,14.142135623730951,35.22782990761707,23.194827009486403,21.0,25.0,19.0,8.0,13.0,1.0,4.0,5.0990195135927845,4.123105625617661,4.0,17.0,29.0,22.360679774997898
251,66,331,0,13.239999999999894,2.0,49.49747468305833,6.082762530298219,11.180339887498949,14.142135623730951,16.0312195418814,14.035668847618199,33.24154027718932,22.090722034374522,21.0,25.0,18.0,7.5,11.5,0.5,3.5,5.385164807134504,5.0990195135927845,5.0,18.0,29.0,20.223748416156685
252,66,332,0,13.279999999999893,1.4142135623730951,50.48762224545735,7.0710678118654755,12.041594578792296,14.142135623730951,15.033296378372908,14.035668847618199,34.23448553724738,22.20360331117452,21.5,25.0,18.0,7.5,12.5,0.5,2.5,5.0990195135927845,4.123105625617661,4.5,17.0,28.0,21.213203435596427
253,66,333,0,13.319999999999892,1.4142135623730951,49.49747468305833,7.0,12.041594578792296,14.142135623730951,15.132745950421556,14.142135623730951,34.23448553724738,22.20360331117452,21.5,25.0,18.0,7.5,12.5,0.5,2.5,5.0990195135927845,5.0,4.5,16.0,27.0,21.37755832643195
254,66,334,0,13.359999999999893,2.0,48.373546489791295,6.082762530298219,12.165525060596439,15.033296378372908,16.0312195418814,15.033296378372908,35.22782990761707,23.08679276123039,22.0,25.0,19.0,7.0,13.0,0.0,2.0,5.385164807134504,5.0,5.0,17.0,28.0,21.37755832643195
255,66,335,0,13.39999999999989,0.0,48.662100242385755,8.06225774829855,13.152946437965905,14.035668847618199,15.132745950421556,14.142135623730951,35.35533905932738,22.20360331117452,22.0,25.0,17.0,7.0,14.0,1.0,1.0,5.0990195135927845,4.123105625617661,4.0,16.0,27.0,21.37755832643195
256,66,336,0,13.43999999999989,0.0,49.64876634922564,8.06225774829855,12.165525060596439,14.142135623730951,15.132745950421556,14.142135623730951,34.36568055487916,22.20360331117452,22.0,25.0,17.0,7.0,13.0,1.0,1.0,5.0990195135927845,4.123105625617661,4.0,16.0,27.0,20.223748416156685
257,66,337,0,13.479999999999889,0.0,49.64876634922564,8.06225774829855,12.165525060596439,14.317821063276353,15.132745950421556,14.317821063276353,34.52535300326414,22.360679774997898,22.0,25.0,17.0,7.0,13.0,1.0,2.0,4.123105625617661,3.1622776601683795,3.0,16.0,27.0,21.213203435596427
258,66,338,0,13.519999999999888,1.4142135623730951,48.662100242385755,7.0710678118654755,12.165525060596439,14.142135623730951,16.1245154965971,14.142135623730951,34.52535300326414,22.360679774997898,21.5,24.0,16.0,6.0,14.0,2.0,1.0,4.123105625617661,4.123105625617661,4.0,15.0,26.0,22.20360331117452
259,66,339,0,13.559999999999889,1.4142135623730951,50.635955604688654,6.082762530298219,12.165525060596439,14.142135623730951,15.132745950421556,15.132745950421556,34.52535300326414,22.360679774997898,21.5,25.0,17.0,6.0,13.0,2.0,1.0,5.0,4.123105625617661,4.0,15.0,26.0,20.396078054371138
260,66,340,0,13.599999999999886,1.4142135623730951,51.478150704935004,6.082762530298219,12.041594578792296,14.035668847618199,16.0312195418814,14.317821063276353,33.54101966249684,21.587033144922902,20.5,23.0,16.0,5.5,13.5,1.5,0.5,5.0990195135927845,4.123105625617661,4.0,17.0,27.0,21.213203435596427
261,66,341,0,13.639999999999883,1.4142135623730951,50.48762224545735,6.082762530298219,13.152946437965905,15.033296378372908,16.0312195418814,15.132745950421556,35.510561809129406,22.360679774997898,21.5,24.0,17.0,5.5,14.5,1.5,0.5,5.0990195135927845,5.0990195135927845,4.5,17.0,26.0,21.213203435596427
262,66,342,0,13.679999999999884,1.0,51.35172830587107,7.0710678118654755,12.041594578792296,15.033296378372908,17.029386365926403,14.035668847618199,33.24154027718932,21.213203435596427,21.0,22.0,16.0,5.0,14.0,1.0,0.0,4.0,4.0,3.5,17.0,25.0,22.090722034374522
263,66,343,0,13.719999999999883,1.0,51.35172830587107,7.0,13.038404810405298,15.033296378372908,15.132745950421556,14.142135623730951,34.23448553724738,21.213203435596427,21.0,23.0,17.0,6.0,14.0,1.0,1.0,4.0,5.0990195135927845,4.5,18.0,25.0,21.095023109728988
264,66,344,0,13.759999999999884,1.0,51.24451190127583,7.0710678118654755,12.165525060596439,14.035668847618199,16.0312195418814,14.142135623730951,34.36568055487916,22.20360331117452,21.5,22.0,17.0,5.5,14.5,1.5,0.5,4.123105625617661,4.0,4.5,18.0,25.0,20.09975124224178
265,66,345,0,13.799999999999882,4.0,52.23983154643591,6.082762530298219,13.152946437965905,14.035668847618199,16.0312195418814,13.038404810405298,36.22154055254967,23.08679276123039,21.0,22.0,17.0,6.5,16.5,3.5,1.5,4.123105625617661,4.0,4.0,19.0,25.0,21.095023109728988
266,66,346,0,13.83999999999988,5.0,53.23532661682466,5.0990195135927845,13.152946437965905,14.035668847618199,16.0312195418814,13.038404810405298,36.22154055254967,23.08679276123039,20.5,22.0,17.0,6.5,16.5,3.5,2.5,5.0,4.0,4.0,19.0,25.0,22.02271554554524
267,66,347,0,13.87999999999988,2.23606797749979,50.21951811795888,7.0710678118654755,11.180339887498949,11.40175425099138,12.36931687685298,14.560219778561036,31.04834939252005,19.924858845171276,20.0,29.0,18.0,9.5,6.5,3.5,4.5,8.06225774829855,7.615773105863909,7.5,13.0,27.0,17.26267650163207
268,66,348,0,13.91999999999988,1.4142135623730951,51.19570294468082,7.280109889280518,11.180339887498949,13.152946437965905,13.601470508735444,14.317821063276353,32.01562118716424,20.8806130178211,20.5,29.0,18.0,9.5,7.5,2.5,4.5,8.0,8.246211251235321,8.5,12.0,26.0,19.4164878389476
269,66,349,0,13.959999999999878,2.0,52.172789842982326,7.0710678118654755,11.180339887498949,13.341664064126334,14.317821063276353,13.601470508735444,32.28002478313795,21.18962010041709,20.0,28.0,17.0,9.5,8.5,2.5,4.5,9.055385138137417,8.246211251235321,8.5,11.0,26.0,19.4164878389476
270,66,350,0,13.999999999999876,7.0710678118654755,54.12947441089743,6.324555320336759,11.180339887498949,14.317821063276353,16.492422502470642,12.649110640673518,37.107950630558946,25.96150997149434,21.5,28.0,17.0,10.5,13.5,3.5,6.5,7.280109889280518,7.280109889280518,7.5,11.0,26.0,19.6468827043885
271,66,351,0,14.039999999999877,8.246211251235321,55.31726674375732,7.0710678118654755,10.198039027185569,14.317821063276353,15.524174696260024,11.704699910719626,37.107950630558946,26.92582403567252,22.0,28.0,16.0,11.0,14.0,5.0,6.0,8.06225774829855,8.246211251235321,8.0,11.0,27.0,19.6468827043885
272,66,352,0,14.079999999999876,8.246211251235321,55.31726674375732,6.082762530298219,10.198039027185569,14.560219778561036,15.524174696260024,11.704699910719626,36.138621999185304,25.96150997149434,21.0,28.0,16.0,11.0,13.0,3.0,7.0,9.219544457292887,8.246211251235321,8.0,11.0,27.0,18.439088914585774
273,66,353,0,14.119999999999877,8.246211251235321,55.31726674375732,6.082762530298219,10.198039027185569,14.317821063276353,16.492422502470642,11.704699910719626,36.138621999185304,25.96150997149434,21.0,27.0,15.0,10.0,14.0,5.0,6.0,9.219544457292887,8.246211251235321,8.5,11.0,27.0,18.439088914585774
274,66,354,0,14.159999999999874,8.06225774829855,55.31726674375732,5.0990195135927845,10.198039027185569,14.317821063276353,16.492422502470642,11.704699910719626,34.92849839314596,24.73863375370596,20.0,27.0,15.0,10.0,13.0,4.0,6.0,8.06225774829855,8.246211251235321,8.0,12.0,27.0,18.439088914585774
275,66,355,0,14.199999999999871,8.06225774829855,57.271284253105414,6.082762530298219,10.198039027185569,15.132745950421556,17.46424919657298,11.704699910719626,35.90264614203248,25.709920264364882,21.0,27.0,15.0,10.0,14.0,5.0,6.0,8.06225774829855,7.615773105863909,7.0,11.0,26.0,18.681541692269406
276,66,356,0,14.239999999999872,10.198039027185569,56.515484603779164,6.082762530298219,10.198039027185569,16.278820596099706,17.46424919657298,10.44030650891055,36.87817782917155,26.68332812825267,21.0,27.0,14.0,10.5,15.5,6.5,6.5,8.06225774829855,7.615773105863909,7.5,11.0,26.0,18.439088914585774
277,66,357,0,14.279999999999871,12.041594578792296,55.31726674375732,5.0990195135927845,9.219544457292887,15.297058540778355,17.26267650163207,9.486832980505138,35.6931365951495,26.476404589747453,20.0,26.0,14.0,11.0,15.0,7.0,8.0,9.055385138137417,8.246211251235321,8.0,11.0,25.0,18.439088914585774
278,66,358,0,14.31999999999987,12.0,55.31726674375732,5.0990195135927845,9.219544457292887,15.297058540778355,17.26267650163207,9.848857801796104,35.6931365951495,26.476404589747453,20.0,27.0,15.0,12.0,14.0,6.0,9.0,8.06225774829855,7.615773105863909,7.5,12.0,26.0,18.681541692269406
279,66,359,0,14.35999999999987,12.041594578792296,55.10898293381942,4.47213595499958,9.219544457292887,15.297058540778355,17.26267650163207,10.198039027185569,35.6931365951495,26.476404589747453,20.0,26.0,15.0,10.5,14.5,6.5,8.5,8.06225774829855,7.615773105863909,7.5,12.0,26.0,20.396078054371138
280,66,360,0,14.399999999999867,13.038404810405298,54.91812087098393,5.0990195135927845,8.246211251235321,16.1245154965971,17.26267650163207,10.44030650891055,36.6742416417845,28.442925306655784,21.5,26.0,16.0,11.0,15.0,7.0,8.0,8.06225774829855,8.246211251235321,8.0,11.0,25.0,19.4164878389476
281,66,361,0,14.439999999999868,14.035668847618199,54.91812087098393,5.0990195135927845,9.219544457292887,16.1245154965971,17.26267650163207,10.44030650891055,38.63935817272331,29.427877939124322,22.0,27.0,17.0,12.0,16.0,7.0,8.0,8.06225774829855,7.280109889280518,7.5,12.0,25.0,19.4164878389476
282,66,362,0,14.479999999999867,17.029386365926403,55.31726674375732,5.0990195135927845,9.219544457292887,16.278820596099706,18.24828759089466,9.486832980505138,40.607881008493905,31.400636936215164,22.5,29.0,17.0,14.0,17.0,8.0,11.0,8.06225774829855,7.615773105863909,7.5,12.0,25.0,20.223748416156685
283,66,363,0,14.519999999999866,15.033296378372908,55.90169943749474,5.0990195135927845,9.219544457292887,16.1245154965971,18.24828759089466,10.198039027185569,39.45883931389772,30.265491900843113,22.5,27.0,17.0,12.0,17.0,9.0,9.0,5.0990195135927845,5.385164807134504,5.0,12.0,25.0,18.24828759089466
284,66,364,0,14.559999999999864,15.033296378372908,54.91812087098393,5.0990195135927845,8.246211251235321,15.132745950421556,17.26267650163207,10.44030650891055,38.63935817272331,30.4138126514911,22.5,28.0,18.0,13.0,15.0,7.0,10.0,4.123105625617661,4.123105625617661,4.0,14.0,26.0,20.396078054371138
285,66,365,0,14.599999999999865,13.038404810405298,54.589376255824725,5.0990195135927845,9.055385138137417,16.0312195418814,17.029386365926403,9.219544457292887,36.345563690772494,27.294688127912362,20.5,26.0,18.0,13.0,14.0,5.0,9.0,3.605551275463989,4.0,4.0,13.0,26.0,20.223748416156685
286,66,366,0,14.639999999999864,13.038404810405298,54.589376255824725,5.0990195135927845,10.04987562112089,17.029386365926403,18.110770276274835,10.198039027185569,38.3275357934736,28.284271247461902,21.5,26.0,18.0,12.0,16.0,6.0,8.0,4.123105625617661,4.123105625617661,3.5,14.0,25.0,19.235384061671343
287,66,367,0,14.679999999999865,15.033296378372908,55.731499172371095,4.123105625617661,9.219544457292887,17.11724276862369,18.110770276274835,10.198039027185569,38.47076812334269,29.274562336608895,21.5,26.0,17.0,11.5,16.5,7.5,8.5,4.123105625617661,3.1622776601683795,3.0,14.0,26.0,21.37755832643195
288,66,368,0,14.719999999999862,18.027756377319946,55.731499172371095,4.123105625617661,10.198039027185569,16.1245154965971,18.110770276274835,11.180339887498949,43.41658669218482,33.24154027718932,24.0,27.0,18.0,11.5,20.5,10.5,8.5,5.385164807134504,4.0,4.0,14.0,25.0,20.223748416156685
289,66,369,0,14.75999999999986,20.024984394500787,55.731499172371095,4.123105625617661,11.180339887498949,17.11724276862369,18.24828759089466,11.40175425099138,46.52956049652737,35.35533905932738,25.0,28.0,19.0,12.5,22.5,11.5,9.5,4.47213595499958,4.123105625617661,3.5,14.0,25.0,20.223748416156685
290,66,370,0,14.79999999999986,20.024984394500787,55.57877292636101,5.0,10.198039027185569,16.1245154965971,18.110770276274835,11.40175425099138,46.389654018972806,36.22154055254967,26.0,27.0,19.0,12.0,23.0,12.0,9.0,4.47213595499958,4.123105625617661,4.0,15.0,25.0,18.24828759089466
291,66,371,0,14.83999999999986,17.029386365926403,55.57877292636101,4.0,11.180339887498949,16.1245154965971,18.110770276274835,11.40175425099138,43.41658669218482,32.2490309931942,23.5,25.0,17.0,10.0,22.0,11.0,7.0,3.1622776601683795,3.1622776601683795,3.5,15.0,26.0,19.235384061671343
292,66,372,0,14.87999999999986,11.045361017187261,54.3323108288245,4.0,10.198039027185569,14.035668847618199,16.1245154965971,11.40175425099138,36.49657518178932,26.30589287593181,20.5,22.0,16.0,8.0,17.0,7.0,5.0,3.1622776601683795,4.0,4.0,15.0,24.0,19.1049731745428
293,66,373,0,14.919999999999858,5.0990195135927845,55.44366510251645,5.0,8.06225774829855,14.142135623730951,15.033296378372908,11.40175425099138,29.427877939124322,21.37755832643195,18.5,21.0,14.0,6.5,11.5,3.5,3.5,4.123105625617661,3.0,3.0,15.0,25.0,20.223748416156685
294,66,374,0,14.959999999999855,3.0,55.44366510251645,5.0990195135927845,8.06225774829855,15.033296378372908,16.1245154965971,11.40175425099138,27.459060435491963,19.4164878389476,17.5,21.0,14.0,6.5,9.5,0.5,2.5,3.605551275463989,4.0,3.5,14.0,24.0,19.235384061671343
295,66,375,0,14.999999999999856,5.0990195135927845,55.44366510251645,5.0,8.06225774829855,15.033296378372908,15.132745950421556,10.44030650891055,28.442925306655784,20.396078054371138,17.5,20.0,13.0,6.5,11.5,3.5,2.5,3.1622776601683795,4.123105625617661,3.5,14.0,24.0,18.110770276274835
296,66,376,0,15.039999999999855,9.055385138137417,57.42821606144492,4.123105625617661,8.06225774829855,15.033296378372908,17.11724276862369,11.180339887498949,32.38826948140329,24.331050121192877,19.5,22.0,15.0,7.5,13.5,4.5,4.5,4.123105625617661,4.123105625617661,3.5,15.0,25.0,19.235384061671343
297,66,377,0,15.079999999999854,10.04987562112089,55.57877292636101,5.0990195135927845,10.04987562112089,15.033296378372908,16.1245154965971,11.180339887498949,36.345563690772494,26.30589287593181,21.0,22.0,14.0,7.0,18.0,8.0,3.0,3.605551275463989,3.0,3.0,15.0,24.0,19.235384061671343
298,66,378,0,15.119999999999854,12.041594578792296,58.42088667591412,4.123105625617661,10.04987562112089,15.033296378372908,17.11724276862369,12.165525060596439,38.3275357934736,28.284271247461902,22.0,21.0,14.0,5.5,20.5,9.5,2.5,3.1622776601683795,3.1622776601683795,3.0,15.0,24.0,20.223748416156685
299,66,379,0,15.159999999999853,13.038404810405298,56.43580423808985,4.123105625617661,10.04987562112089,15.033296378372908,16.0312195418814,11.180339887498949,38.3275357934736,28.284271247461902,21.5,21.0,14.0,6.5,20.5,10.5,3.5,3.1622776601683795,4.0,3.5,16.0,24.0,21.213203435596427
300,66,380,0,15.199999999999852,15.033296378372908,56.32051136131489,5.0,9.219544457292887,16.1245154965971,17.11724276862369,11.40175425099138,40.44749683231337,31.25699921617557,23.5,21.0,15.0,7.0,22.0,12.0,4.0,4.123105625617661,4.123105625617661,3.5,17.0,24.0,19.1049731745428
301,66,381,0,15.239999999999853,16.0312195418814,56.32051136131489,4.123105625617661,9.055385138137417,16.1245154965971,17.11724276862369,12.36931687685298,41.43669871020132,32.38826948140329,24.0,21.0,15.0,6.0,23.0,13.0,4.0,4.0,4.0,3.5,17.0,24.0,20.024984394500787
302,66,382,0,15.27999999999985,16.0312195418814,56.32051136131489,4.0,10.04987562112089,15.033296378372908,17.029386365926403,11.40175425099138,41.30375285612676,31.25699921617557,23.0,21.0,15.0,7.0,23.0,12.0,4.0,4.123105625617661,4.0,3.5,17.0,24.0,20.024984394500787
303,66,383,0,15.31999999999985,16.0,56.32051136131489,4.123105625617661,10.198039027185569,15.033296378372908,16.1245154965971,11.180339887498949,41.30375285612676,31.144823004794873,23.0,21.0,15.0,7.0,23.0,13.0,4.0,3.1622776601683795,4.0,3.5,17.0,23.0,21.095023109728988
304,66,384,0,15.359999999999848,8.06225774829855,53.23532661682466,6.0,11.180339887498949,13.152946437965905,15.033296378372908,13.341664064126334,38.47076812334269,27.294688127912362,23.0,22.0,17.0,6.5,18.5,6.5,1.5,4.123105625617661,5.0,4.5,17.0,24.0,19.1049731745428
305,66,385,0,15.399999999999848,1.0,53.150729063673246,7.0,10.198039027185569,14.035668847618199,14.0,14.142135623730951,32.2490309931942,22.090722034374522,21.5,21.0,17.0,5.0,13.0,3.0,1.0,3.1622776601683795,3.0,3.0,16.0,23.0,20.09975124224178
306,66,386,0,15.439999999999849,1.0,46.389654018972806,7.0710678118654755,10.04987562112089,12.041594578792296,14.0,15.033296378372908,32.2490309931942,22.20360331117452,22.0,24.0,18.0,6.0,11.0,0.0,1.0,3.0,3.0,3.0,16.0,23.0,21.02379604162864
307,66,387,0,15.479999999999846,1.0,50.24937810560445,7.0710678118654755,10.198039027185569,14.035668847618199,14.035668847618199,13.152946437965905,31.400636936215164,21.213203435596427,20.5,22.0,17.0,6.5,11.5,1.5,0.5,4.123105625617661,3.0,3.0,16.0,22.0,20.024984394500787
308,66,388,0,15.519999999999843,3.1622776601683795,49.36598018878993,7.0,11.045361017187261,13.038404810405298,14.035668847618199,13.341664064126334,34.36568055487916,23.345235059857504,21.5,23.0,17.0,7.0,14.0,3.0,1.0,3.1622776601683795,3.0,3.0,16.0,23.0,20.223748416156685
309,66,389,0,15.559999999999844,5.0,51.478150704935004,8.06225774829855,12.165525060596439,14.142135623730951,15.033296378372908,11.180339887498949,36.345563690772494,24.186773244895647,21.5,21.0,14.0,6.5,18.5,5.5,0.5,3.0,3.0,3.0,17.0,24.0,21.095023109728988
310,66,390,0,15.599999999999843,10.0,53.46026561849464,6.082762530298219,11.180339887498949,15.033296378372908,16.1245154965971,12.165525060596439,39.319206502675,28.160255680657446,23.0,22.0,15.0,6.5,20.5,8.5,1.5,4.123105625617661,3.1622776601683795,3.0,16.0,24.0,19.1049731745428
311,66,391,0,15.639999999999842,6.0,52.3450093132096,8.06225774829855,13.038404810405298,14.142135623730951,16.0312195418814,12.36931687685298,39.319206502675,26.30589287593181,23.0,21.0,15.0,6.0,21.0,8.0,0.0,3.1622776601683795,3.0,2.5,16.0,23.0,21.095023109728988
312,66,392,0,15.679999999999842,8.0,52.3450093132096,7.0710678118654755,12.165525060596439,14.142135623730951,16.0312195418814,12.165525060596439,39.319206502675,27.16615541441225,23.0,22.0,16.0,7.0,20.0,8.0,2.0,4.0,4.123105625617661,3.5,16.0,23.0,20.09975124224178
313,66,393,0,15.71999999999984,10.04987562112089,53.33854141237835,5.0990195135927845,12.041594578792296,14.035668847618199,16.0312195418814,12.165525060596439,39.319206502675,27.294688127912362,22.0,21.0,15.0,6.0,21.0,8.0,2.0,3.0,4.123105625617661,3.5,17.0,24.0,19.1049731745428
314,66,394,0,15.75999999999984,6.082762530298219,53.33854141237835,7.0,11.045361017187261,14.142135623730951,16.1245154965971,12.649110640673518,36.49657518178932,25.495097567963924,22.0,21.0,15.0,6.0,18.0,7.0,0.0,4.0,4.123105625617661,4.0,17.0,24.0,20.09975124224178
315,66,395,0,15.79999999999984,8.06225774829855,53.33854141237835,6.0,11.045361017187261,14.035668847618199,15.033296378372908,13.341664064126334,38.3275357934736,27.294688127912362,23.0,22.0,16.0,6.0,19.0,8.0,1.0,4.123105625617661,4.123105625617661,4.0,17.0,24.0,19.1049731745428
316,66,396,0,15.839999999999838,9.055385138137417,54.3323108288245,6.0,11.045361017187261,14.035668847618199,15.033296378372908,12.36931687685298,38.3275357934736,27.294688127912362,22.5,21.0,15.0,6.0,20.0,9.0,1.0,4.123105625617661,4.0,4.0,17.0,23.0,20.223748416156685
317,66,397,0,15.879999999999836,6.082762530298219,52.3450093132096,7.0710678118654755,11.045361017187261,14.035668847618199,16.0312195418814,13.152946437965905,37.33630940518894,26.30589287593181,23.0,22.0,16.0,6.0,18.0,7.0,0.0,3.1622776601683795,3.0,3.0,16.0,23.0,21.095023109728988
318,66,398,0,15.919999999999837,7.0710678118654755,54.3323108288245,7.0,12.041594578792296,15.033296378372908,17.029386365926403,13.152946437965905,39.20459156782532,27.16615541441225,23.5,22.0,16.0,6.0,20.0,7.0,0.0,3.1622776601683795,3.0,3.0,16.0,23.0,21.095023109728988
319,66,399,0,15.959999999999836,7.0,54.3323108288245,6.082762530298219,12.165525060596439,15.132745950421556,16.1245154965971,12.165525060596439,37.33630940518894,25.179356624028344,21.5,20.0,14.0,5.0,20.0,7.0,0.0,3.1622776601683795,3.1622776601683795,2.5,15.0,22.0,21.095023109728988
320,66,400,0,15.999999999999837,8.0,55.226805085936306,6.082762530298219,12.041594578792296,16.0312195418814,18.027756377319946,12.165525060596439,38.2099463490856,26.1725046566048,22.0,19.0,14.0,4.5,21.5,9.5,0.5,4.0,3.1622776601683795,3.0,17.0,23.0,19.1049731745428
321,66,401,0,16.039999999999836,9.055385138137417,56.32051136131489,5.0,10.04987562112089,16.1245154965971,18.027756377319946,12.36931687685298,36.345563690772494,26.30589287593181,21.5,19.0,13.0,4.0,20.0,10.0,1.0,3.1622776601683795,3.0,3.0,16.0,22.0,19.026297590440446
322,66,402,0,16.079999999999835,8.06225774829855,54.45181356024793,6.082762530298219,11.045361017187261,16.1245154965971,18.110770276274835,12.165525060596439,37.33630940518894,26.30589287593181,22.0,21.0,14.0,5.5,19.5,7.5,0.5,4.0,3.1622776601683795,3.5,17.0,22.0,19.1049731745428
323,66,403,0,16.119999999999834,6.082762530298219,55.44366510251645,7.0,12.041594578792296,16.1245154965971,18.110770276274835,12.36931687685298,37.33630940518894,25.317977802344327,22.0,20.0,13.0,4.5,20.5,7.5,0.5,4.0,3.0,3.5,16.0,22.0,19.1049731745428
324,66,404,0,16.159999999999833,8.06225774829855,56.32051136131489,7.0,12.041594578792296,15.132745950421556,17.029386365926403,11.180339887498949,38.2099463490856,26.1725046566048,22.0,20.0,14.0,6.0,21.0,8.0,1.0,4.123105625617661,4.123105625617661,4.0,16.0,21.0,18.110770276274835
325,66,405,0,16.199999999999832,4.123105625617661,53.33854141237835,7.0,12.041594578792296,15.033296378372908,16.1245154965971,12.36931687685298,35.35533905932738,23.345235059857504,21.0,19.0,13.0,4.0,19.0,7.0,2.0,2.0,2.0,2.5,17.0,22.0,21.095023109728988
326,66,406,0,16.23999999999983,2.0,53.23532661682466,6.082762530298219,10.04987562112089,15.033296378372908,16.1245154965971,13.152946437965905,31.25699921617557,21.213203435596427,20.0,18.0,13.0,2.5,15.5,4.5,2.5,3.1622776601683795,3.0,2.5,16.0,21.0,20.024984394500787
327,66,407,0,16.27999999999983,1.0,50.24937810560445,6.082762530298219,9.055385138137417,14.035668847618199,16.0312195418814,13.152946437965905,29.274562336608895,20.223748416156685,19.5,18.0,13.0,2.5,13.5,3.5,2.5,4.0,3.1622776601683795,3.0,16.0,22.0,19.026297590440446
328,66,408,0,16.31999999999983,2.0,51.35172830587107,6.082762530298219,11.045361017187261,14.142135623730951,15.132745950421556,12.041594578792296,31.144823004794873,20.09975124224178,19.0,18.0,12.0,3.0,16.0,5.0,1.0,4.0,4.123105625617661,4.5,16.0,22.0,19.1049731745428
329,66,409,0,16.35999999999983,2.0,54.08326913195984,6.0,12.041594578792296,15.033296378372908,16.0,13.152946437965905,33.13608305156178,21.095023109728988,20.0,17.0,14.0,2.5,17.5,5.5,2.5,3.1622776601683795,2.0,2.5,17.0,22.0,20.09975124224178
330,66,410,0,16.399999999999828,5.0,54.08326913195984,5.0,12.041594578792296,16.0312195418814,17.029386365926403,11.045361017187261,33.06055050963308,21.02379604162864,18.5,16.0,13.0,3.5,18.5,5.5,0.5,2.23606797749979,2.0,2.0,17.0,20.0,20.024984394500787
331,66,411,0,16.439999999999827,6.0,55.14526271584895,4.0,12.041594578792296,15.033296378372908,16.0312195418814,11.045361017187261,33.06055050963308,21.02379604162864,18.0,16.0,12.0,3.0,19.0,7.0,0.0,2.23606797749979,2.0,2.0,17.0,21.0,20.09975124224178
332,66,412,0,16.479999999999826,8.0,54.147945482723536,3.0,11.045361017187261,15.033296378372908,17.029386365926403,12.165525060596439,34.132096331752024,23.08679276123039,19.0,17.0,13.0,3.0,19.0,8.0,1.0,3.1622776601683795,2.0,2.0,17.0,20.0,19.0
333,66,413,0,16.519999999999825,5.0,54.230987451824994,5.0,11.180339887498949,14.142135623730951,16.0312195418814,12.165525060596439,33.24154027718932,22.090722034374522,19.5,18.0,13.0,3.5,17.5,5.5,0.5,3.0,3.0,3.0,17.0,21.0,19.0
334,66,414,0,16.559999999999825,3.1622776601683795,50.35871324805669,5.0,11.045361017187261,14.035668847618199,15.033296378372908,13.038404810405298,32.14031735997639,21.095023109728988,19.5,20.0,14.0,4.0,15.0,4.0,0.0,3.0,3.0,3.0,17.0,21.0,18.027756377319946
335,66,415,0,16.599999999999824,1.0,44.181444068749045,5.0990195135927845,12.041594578792296,12.041594578792296,14.142135623730951,15.132745950421556,33.24154027718932,21.213203435596427,20.5,20.0,16.0,3.0,15.0,3.0,0.0,3.0,3.0,3.0,18.0,20.0,19.026297590440446
336,66,416,0,16.639999999999823,2.0,43.289721643826724,5.0990195135927845,11.045361017187261,12.041594578792296,13.038404810405298,14.035668847618199,32.14031735997639,21.095023109728988,20.0,21.0,16.0,4.5,13.5,2.5,0.5,3.0,2.23606797749979,2.5,17.0,20.0,19.0
337,66,417,0,16.679999999999822,1.0,45.27692569068709,5.0,12.041594578792296,12.041594578792296,13.038404810405298,14.142135623730951,32.14031735997639,20.09975124224178,19.5,20.0,15.0,3.5,14.5,2.5,0.5,2.0,2.0,2.0,17.0,21.0,21.02379604162864
338,66,418,0,16.71999999999982,1.0,44.181444068749045,5.0990195135927845,11.0,13.038404810405298,13.038404810405298,15.033296378372908,32.0624390837628,21.095023109728988,20.5,22.0,18.0,5.0,12.0,1.0,1.0,1.0,2.0,2.0,17.0,20.0,22.0
339,66,419,0,16.75999999999982,0.0,45.17742799230607,6.0,11.045361017187261,13.0,15.033296378372908,14.142135623730951,31.144823004794873,20.09975124224178,20.0,21.0,17.0,5.0,12.0,1.0,0.0,2.0,2.0,2.0,19.0,21.0,21.0
340,66,420,0,16.79999999999982,0.0,49.25444142409901,6.0,11.045361017187261,15.033296378372908,16.0312195418814,13.152946437965905,30.14962686336267,19.1049731745428,19.0,21.0,16.0,5.5,11.5,0.5,0.5,4.0,4.0,4.0,18.0,21.0,20.024984394500787
341,66,421,0,16.83999999999982,2.0,49.25444142409901,6.0,12.041594578792296,15.033296378372908,16.0312195418814,12.165525060596439,32.14031735997639,20.09975124224178,19.0,19.0,14.0,4.5,15.5,3.5,0.5,4.0,3.1622776601683795,3.5,17.0,21.0,21.02379604162864
342,66,422,0,16.879999999999818,6.0,51.15662224971465,6.082762530298219,12.0,16.0,17.029386365926403,12.041594578792296,36.05551275463989,24.08318915758459,21.0,20.0,16.0,6.0,18.0,5.0,1.0,4.0,4.123105625617661,4.0,17.0,21.0,20.0
343,66,423,0,16.919999999999817,8.06225774829855,54.230987451824994,6.0,12.0,15.132745950421556,17.029386365926403,11.045361017187261,37.05401462729781,25.079872407968907,21.0,21.0,16.0,7.5,18.5,6.5,3.5,4.0,4.123105625617661,4.0,18.0,22.0,21.0
344,66,424,0,16.959999999999816,9.0,52.15361924162119,5.0,12.041594578792296,16.0312195418814,18.027756377319946,11.180339887498949,37.12142238654117,25.079872407968907,20.5,20.0,16.0,7.0,19.0,6.0,3.0,4.0,4.0,4.0,17.0,21.0,21.02379604162864
345,66,425,0,16.999999999999815,9.0,52.08646657242167,5.0,12.041594578792296,16.0312195418814,18.027756377319946,10.04987562112089,36.05551275463989,24.020824298928627,19.5,19.0,16.0,7.5,18.5,6.5,3.5,3.0,4.0,4.0,18.0,22.0,20.024984394500787
346,66,426,0,17.039999999999814,9.0,50.08991914547278,5.0,12.041594578792296,16.0,16.0312195418814,10.04987562112089,36.05551275463989,24.020824298928627,19.5,19.0,16.0,7.5,18.5,5.5,3.5,3.1622776601683795,4.0,4.0,17.0,20.0,21.02379604162864
347,66,427,0,17.079999999999814,11.045361017187261,51.03920062069938,5.0990195135927845,11.045361017187261,15.033296378372908,16.0,10.04987562112089,37.05401462729781,26.019223662515376,20.5,20.0,18.0,9.0,18.0,6.0,5.0,4.0,4.0,4.0,17.0,22.0,21.02379604162864
348,66,428,0,17.119999999999813,10.0,52.08646657242167,6.0,12.041594578792296,16.0,18.0,10.04987562112089,38.05259518088089,26.019223662515376,21.0,21.0,18.0,9.5,18.5,5.5,4.5,4.0,4.123105625617661,4.0,17.0,22.0,20.024984394500787
349,66,429,0,17.159999999999812,11.0,50.08991914547278,5.0,12.041594578792296,16.0312195418814,18.0,10.04987562112089,38.05259518088089,26.019223662515376,20.5,20.0,17.0,8.5,19.5,5.5,4.5,4.123105625617661,5.0,5.0,18.0,22.0,20.024984394500787
350,66,430,0,17.19999999999981,15.0,52.08646657242167,4.0,12.041594578792296,16.0,18.0,11.045361017187261,42.04759208325728,30.01666203960727,22.5,22.0,19.0,9.5,21.5,8.5,5.5,4.0,4.123105625617661,4.0,18.0,22.0,20.0
351,66,431,0,17.23999999999981,16.0,53.08483775994799,5.0990195135927845,12.0,17.0,19.026297590440446,10.0,43.01162633521314,31.016124838541646,23.0,22.0,19.0,10.5,22.5,9.5,5.5,4.0,4.123105625617661,4.0,18.0,21.0,20.024984394500787
352,66,432,0,17.27999999999981,16.0,54.08326913195984,4.0,12.0,17.0,19.0,11.045361017187261,43.01162633521314,31.016124838541646,23.0,22.0,19.0,9.5,22.5,9.5,5.5,4.0,4.0,4.0,19.0,22.0,20.0
353,66,433,0,17.31999999999981,17.029386365926403,53.03772242470448,5.0,11.045361017187261,17.0,18.0,10.04987562112089,43.01162633521314,32.0,23.5,21.0,19.0,10.0,23.0,11.0,5.0,4.123105625617661,4.0,4.5,18.0,22.0,21.0
354,66,434,0,17.359999999999808,16.0,54.147945482723536,5.0990195135927845,11.045361017187261,17.029386365926403,19.0,10.04987562112089,42.1070065428546,31.064449134018133,23.0,22.0,18.0,10.0,22.0,10.0,6.0,5.0,4.0,4.5,19.0,22.0,20.024984394500787
355,66,435,0,17.399999999999807,16.0,53.08483775994799,5.0,10.04987562112089,17.0,18.0,11.180339887498949,42.1070065428546,32.0624390837628,24.0,21.0,18.0,8.5,22.5,11.5,4.5,3.0,4.0,4.0,18.0,21.0,20.024984394500787
356,66,436,0,17.439999999999806,17.0,54.08326913195984,5.0,10.04987562112089,16.0,18.027756377319946,11.180339887498949,43.104524124504614,33.06055050963308,24.5,21.0,18.0,8.5,23.5,12.5,4.5,5.0,5.0,4.5,19.0,23.0,19.026297590440446
357,66,437,0,17.479999999999805,18.027756377319946,54.147945482723536,5.0,10.04987562112089,16.0312195418814,18.027756377319946,12.36931687685298,45.27692569068709,35.22782990761707,26.0,23.0,19.0,9.0,24.0,13.0,5.0,5.0,4.123105625617661,4.5,19.0,23.0,18.0
358,66,438,0,17.519999999999804,18.027756377319946,56.22277118748239,5.0,12.041594578792296,16.0,18.027756377319946,11.045361017187261,46.09772228646444,34.058772731852805,25.0,25.0,20.0,11.5,23.5,11.5,6.5,4.0,5.0,4.5,18.0,23.0,20.024984394500787
359,66,439,0,17.559999999999803,19.0,56.22277118748239,6.0,11.045361017187261,15.033296378372908,17.029386365926403,11.180339887498949,47.095647357266465,36.05551275463989,26.5,25.0,20.0,11.5,24.5,12.5,6.5,4.0,4.0,4.0,16.0,22.0,20.09975124224178
360,66,440,0,17.599999999999802,19.026297590440446,55.326304774492215,5.0,11.045361017187261,16.0312195418814,17.029386365926403,12.165525060596439,47.16990566028302,36.124783736376884,26.5,27.0,21.0,12.0,23.0,11.0,8.0,5.0,5.0990195135927845,5.0,17.0,24.0,21.095023109728988
361,66,441,0,17.6399999999998,20.024984394500787,55.326304774492215,6.0,10.04987562112089,15.033296378372908,17.029386365926403,12.165525060596439,48.16637831516918,38.118237105091836,28.0,28.0,22.0,13.0,23.0,12.0,8.0,4.0,4.0,4.5,16.0,24.0,20.09975124224178
362,66,442,0,17.6799999999998,12.041594578792296,55.44366510251645,9.0,13.038404810405298,16.0312195418814,18.110770276274835,13.152946437965905,47.16990566028302,34.132096331752024,28.0,29.0,22.0,12.5,21.5,8.5,4.5,6.082762530298219,6.082762530298219,6.0,17.0,25.0,18.110770276274835
363,66,443,0,17.7199999999998,13.038404810405298,54.3323108288245,8.0,13.038404810405298,15.033296378372908,16.1245154965971,13.038404810405298,47.095647357266465,34.058772731852805,27.5,29.0,23.0,13.0,21.0,8.0,5.0,5.0990195135927845,6.082762530298219,6.0,16.0,25.0,17.26267650163207
364,66,444,0,17.7599999999998,13.0,52.46903848937962,7.0710678118654755,12.041594578792296,14.142135623730951,16.1245154965971,15.132745950421556,47.16990566028302,35.12833614050059,28.5,30.0,23.0,11.5,20.5,8.5,5.5,7.0710678118654755,6.082762530298219,6.0,17.0,26.0,20.223748416156685
365,66,445,0,17.799999999999798,11.0,51.78802950489621,8.06225774829855,12.041594578792296,14.142135623730951,15.132745950421556,14.035668847618199,45.09988913511872,33.06055050963308,27.5,31.0,22.0,12.5,18.5,6.5,5.5,7.0710678118654755,7.280109889280518,6.5,16.0,27.0,18.24828759089466
366,66,446,0,17.839999999999797,8.0,52.773099207835045,7.0710678118654755,12.165525060596439,14.142135623730951,15.132745950421556,16.0312195418814,43.18564576337837,31.064449134018133,27.0,31.0,22.0,10.5,16.5,5.5,4.5,6.324555320336759,6.082762530298219,6.0,16.0,27.0,19.235384061671343
367,66,447,0,17.879999999999797,4.0,50.99019513592785,6.082762530298219,11.180339887498949,12.165525060596439,13.341664064126334,18.110770276274835,39.319206502675,28.160255680657446,26.0,31.0,21.0,8.0,13.0,3.0,3.0,6.082762530298219,6.082762530298219,6.0,14.0,26.0,18.439088914585774
368,66,448,0,17.919999999999796,1.0,52.172789842982326,7.0710678118654755,7.280109889280518,13.341664064126334,13.152946437965905,17.26267650163207,32.55764119219941,25.317977802344327,24.5,31.0,20.0,8.5,6.5,0.5,3.5,6.082762530298219,7.0710678118654755,7.5,13.0,27.0,18.681541692269406
369,66,449,0,17.959999999999795,1.0,40.311288741492746,7.0710678118654755,8.246211251235321,10.04987562112089,11.180339887498949,17.0,31.144823004794873,23.021728866442675,23.5,33.0,28.0,13.5,0.5,6.5,7.5,7.0710678118654755,8.246211251235321,8.0,12.0,26.0,17.46424919657298
370,66,450,0,17.999999999999794,0.0,48.507731342539614,7.0710678118654755,10.198039027185569,12.165525060596439,12.36931687685298,16.278820596099706,33.54101966249684,23.345235059857504,23.0,31.0,19.0,9.0,8.0,1.0,3.0,7.0710678118654755,6.324555320336759,7.0,11.0,28.0,19.6468827043885
371,66,451,0,18.0399999999998,2.23606797749979,51.19570294468082,7.0710678118654755,11.180339887498949,12.165525060596439,13.601470508735444,15.524174696260024,35.90264614203248,24.73863375370596,23.0,29.0,18.0,8.5,11.5,1.5,2.5,7.0710678118654755,6.324555320336759,6.5,12.0,27.0,19.4164878389476
372,66,452,0,18.079999999999792,3.1622776601683795,52.392747589718944,8.06225774829855,11.180339887498949,14.317821063276353,15.297058540778355,14.560219778561036,36.87817782917155,25.709920264364882,23.5,29.0,17.0,9.0,13.0,3.0,3.0,7.280109889280518,7.280109889280518,7.5,12.0,28.0,19.6468827043885
373,66,453,0,18.11999999999979,9.0,54.12947441089743,6.324555320336759,10.198039027185569,14.317821063276353,16.278820596099706,12.36931687685298,37.656340767525464,27.459060435491963,22.5,28.0,17.0,10.5,14.5,4.5,6.5,6.324555320336759,6.324555320336759,6.5,11.0,27.0,19.4164878389476
374,66,454,0,18.15999999999979,11.045361017187261,55.31726674375732,5.0990195135927845,10.198039027185569,15.297058540778355,16.492422502470642,12.36931687685298,38.63935817272331,28.442925306655784,22.5,28.0,16.0,10.0,16.0,7.0,7.0,5.0990195135927845,5.385164807134504,5.0,13.0,28.0,18.681541692269406
375,66,455,0,18.19999999999979,13.038404810405298,54.12947441089743,6.082762530298219,10.198039027185569,15.297058540778355,17.26267650163207,12.083045973594572,41.0,30.805843601498726,23.5,28.0,17.0,11.5,17.5,7.5,7.5,3.605551275463989,3.1622776601683795,3.5,12.0,27.0,19.6468827043885
376,66,456,0,18.23999999999979,16.0312195418814,55.31726674375732,5.0990195135927845,8.54400374531753,15.297058540778355,17.46424919657298,11.40175425099138,40.792156108742276,32.38826948140329,24.0,28.0,16.0,11.0,18.0,10.0,8.0,4.123105625617661,4.47213595499958,4.5,13.0,27.0,18.681541692269406
377,66,457,0,18.279999999999788,16.0,55.31726674375732,6.082762530298219,10.198039027185569,16.278820596099706,17.26267650163207,10.44030650891055,42.42640687119285,32.2490309931942,24.0,29.0,17.0,13.0,19.0,10.0,9.0,6.082762530298219,6.324555320336759,6.0,12.0,27.0,18.681541692269406
378,66,458,0,18.319999999999787,16.0312195418814,56.293871780150276,5.0990195135927845,10.198039027185569,16.278820596099706,17.46424919657298,10.44030650891055,41.593268686170845,31.400636936215164,23.0,29.0,17.0,13.0,18.0,9.0,10.0,6.082762530298219,6.324555320336759,6.0,12.0,26.0,18.681541692269406
379,66,459,0,18.359999999999783,16.0312195418814,55.31726674375732,6.082762530298219,10.198039027185569,16.278820596099706,18.24828759089466,10.44030650891055,42.579337712087536,32.38826948140329,24.0,28.0,16.0,12.0,20.0,10.0,8.0,7.0710678118654755,7.0710678118654755,7.0,12.0,26.0,19.4164878389476
380,66,460,0,18.399999999999785,16.0312195418814,58.855755878248644,5.0990195135927845,8.246211251235321,16.1245154965971,18.24828759089466,11.180339887498949,40.44749683231337,32.2490309931942,24.0,26.0,16.0,10.0,19.0,11.0,7.0,8.06225774829855,7.280109889280518,7.5,13.0,28.0,21.587033144922902
381,66,461,0,18.439999999999785,17.029386365926403,56.089214649520635,5.0990195135927845,9.219544457292887,17.26267650163207,19.4164878389476,10.770329614269007,41.773197148410844,32.55764119219941,23.5,28.0,17.0,12.5,18.5,9.5,9.5,7.0710678118654755,6.324555320336759,6.5,12.0,27.0,19.4164878389476
382,66,462,0,18.479999999999784,17.029386365926403,57.271284253105414,5.0990195135927845,9.219544457292887,18.24828759089466,19.235384061671343,10.44030650891055,41.593268686170845,32.38826948140329,23.5,29.0,17.0,13.0,18.0,10.0,10.0,7.0710678118654755,7.280109889280518,7.5,12.0,26.0,17.72004514666935
383,66,463,0,18.519999999999783,18.110770276274835,57.48912940721924,5.0990195135927845,10.198039027185569,16.278820596099706,19.4164878389476,10.198039027185569,43.56604182158393,33.37663853655727,24.0,30.0,17.0,13.5,19.5,10.5,9.5,7.0710678118654755,7.280109889280518,7.5,12.0,26.0,17.72004514666935
384,66,464,0,18.559999999999786,19.0,55.31726674375732,5.0990195135927845,9.486832980505138,15.297058540778355,17.46424919657298,10.770329614269007,43.73785545725808,34.36568055487916,24.5,29.0,17.0,13.0,20.0,11.0,10.0,7.0710678118654755,7.280109889280518,7.5,11.0,27.0,18.973665961010276
385,66,465,0,18.59999999999978,20.024984394500787,58.463663928973865,5.0990195135927845,9.219544457292887,16.278820596099706,18.439088914585774,10.770329614269007,44.721359549995796,35.510561809129406,25.0,31.0,18.0,14.5,19.5,11.5,11.5,8.06225774829855,7.280109889280518,7.5,11.0,27.0,19.6468827043885
386,66,466,0,18.63999999999978,20.024984394500787,59.43904440685432,5.0990195135927845,9.219544457292887,17.26267650163207,18.439088914585774,10.770329614269007,44.721359549995796,35.510561809129406,25.0,31.0,18.0,14.5,19.5,10.5,11.5,8.06225774829855,7.615773105863909,7.5,10.0,27.0,18.681541692269406
387,66,467,0,18.67999999999978,18.027756377319946,58.463663928973865,6.082762530298219,9.219544457292887,17.26267650163207,18.439088914585774,10.770329614269007,43.73785545725808,34.52535300326414,25.0,31.0,18.0,14.5,18.5,10.5,10.5,8.246211251235321,7.280109889280518,7.5,10.0,27.0,18.973665961010276
388,66,468,0,18.71999999999978,19.1049731745428,56.293871780150276,5.0990195135927845,10.198039027185569,16.278820596099706,18.439088914585774,10.44030650891055,44.721359549995796,34.52535300326414,24.5,30.0,18.0,14.0,20.0,11.0,11.0,8.06225774829855,7.615773105863909,7.5,12.0,28.0,18.681541692269406
389,66,469,0,18.759999999999778,19.026297590440446,57.271284253105414,5.0990195135927845,9.486832980505138,16.278820596099706,17.46424919657298,11.40175425099138,44.721359549995796,35.35533905932738,25.5,31.0,19.0,14.0,19.0,11.0,11.0,8.246211251235321,8.246211251235321,8.5,11.0,28.0,20.8806130178211
390,66,470,0,18.799999999999777,16.0312195418814,55.90169943749474,7.0710678118654755,11.180339887498949,15.132745950421556,17.26267650163207,10.44030650891055,44.553338819890925,33.37663853655727,25.0,29.0,19.0,14.0,20.0,9.0,9.0,8.06225774829855,8.246211251235321,8.5,13.0,28.0,17.72004514666935
391,66,471,0,18.839999999999776,16.0312195418814,57.0701322935211,6.082762530298219,10.198039027185569,16.278820596099706,18.439088914585774,11.40175425099138,43.56604182158393,33.37663853655727,25.0,30.0,19.0,13.5,18.5,9.5,9.5,8.06225774829855,8.246211251235321,8.0,14.0,30.0,19.6468827043885
392,66,472,0,18.87999999999977,16.0,57.0701322935211,5.385164807134504,10.198039027185569,15.132745950421556,17.26267650163207,12.165525060596439,43.41658669218482,33.24154027718932,25.0,30.0,19.0,12.5,18.5,9.5,8.5,8.06225774829855,8.246211251235321,8.0,13.0,30.0,20.8806130178211
393,66,473,0,18.91999999999977,16.0312195418814,57.0701322935211,6.082762530298219,9.219544457292887,16.1245154965971,17.26267650163207,11.40175425099138,42.579337712087536,33.37663853655727,25.0,30.0,19.0,13.5,17.5,8.5,9.5,8.06225774829855,7.615773105863909,7.5,13.0,30.0,20.8806130178211
394,66,474,0,18.959999999999773,15.033296378372908,57.271284253105414,6.082762530298219,9.055385138137417,16.278820596099706,17.26267650163207,10.44030650891055,40.44749683231337,31.400636936215164,23.5,29.0,17.0,13.0,17.0,9.0,9.0,7.0710678118654755,8.246211251235321,8.0,13.0,30.0,20.8806130178211
395,66,475,0,18.999999999999773,14.035668847618199,55.31726674375732,6.082762530298219,10.198039027185569,16.278820596099706,17.46424919657298,10.44030650891055,40.607881008493905,30.4138126514911,23.0,28.0,16.0,12.0,18.0,8.0,8.0,7.0710678118654755,8.246211251235321,8.0,13.0,28.0,19.924858845171276
396,66,476,0,19.03999999999977,12.041594578792296,56.293871780150276,6.082762530298219,10.198039027185569,15.132745950421556,17.26267650163207,11.40175425099138,39.6232255123179,29.427877939124322,23.0,28.0,16.0,11.0,17.0,7.0,7.0,8.06225774829855,8.246211251235321,8.0,13.0,27.0,19.6468827043885
397,66,477,0,19.07999999999977,12.041594578792296,54.91812087098393,6.082762530298219,10.198039027185569,15.132745950421556,16.278820596099706,11.40175425099138,39.6232255123179,29.427877939124322,23.0,27.0,17.0,11.0,17.0,7.0,7.0,8.06225774829855,8.54400374531753,8.5,13.0,27.0,18.027756377319946
398,66,478,0,19.11999999999977,11.045361017187261,54.74486277268398,6.082762530298219,11.045361017187261,15.132745950421556,17.26267650163207,11.40175425099138,39.45883931389772,28.442925306655784,22.5,27.0,18.0,11.5,16.5,5.5,7.5,8.06225774829855,7.615773105863909,7.5,13.0,27.0,19.4164878389476
399,66,479,0,19.15999999999977,9.0,55.44366510251645,8.06225774829855,12.165525060596439,16.1245154965971,18.110770276274835,12.165525060596439,41.30375285612676,29.154759474226502,24.5,28.0,21.0,12.5,16.5,5.5,5.5,8.06225774829855,8.246211251235321,8.0,13.0,27.0,20.615528128088304
400,66,480,0,19.19999999999977,11.0,56.08029957123981,8.06225774829855,11.045361017187261,16.0312195418814,18.027756377319946,15.132745950421556,45.17742799230607,34.132096331752024,28.5,29.0,26.0,12.5,17.5,5.5,5.5,8.06225774829855,7.280109889280518,7.5,16.0,24.0,19.235384061671343
401,66,481,0,19.239999999999768,10.04987562112089,55.0,8.06225774829855,12.041594578792296,16.0,18.0,15.033296378372908,45.044422518220834,33.015148038438355,28.0,28.0,28.0,13.0,17.0,4.0,5.0,8.0,8.06225774829855,8.0,18.0,23.0,19.1049731745428
402,66,482,0,19.279999999999767,11.045361017187261,57.0087712549569,9.0,11.045361017187261,16.0,17.029386365926403,13.0,44.0,33.015148038438355,27.5,28.0,29.0,15.5,15.5,3.5,6.5,9.0,10.0,9.5,20.0,23.0,20.024984394500787
403,66,483,0,19.31999999999977,11.0,56.0357029044876,9.0,11.0,15.0,17.0,13.038404810405298,44.01136216933077,33.015148038438355,27.5,27.0,29.0,15.0,16.0,4.0,6.0,10.0,8.0,8.5,21.0,22.0,20.024984394500787
404,66,484,0,19.359999999999765,8.0,55.036351623268054,10.0,12.041594578792296,15.0,17.0,13.038404810405298,43.04648650006177,31.016124838541646,27.0,26.0,28.0,14.0,16.0,3.0,4.0,10.0,8.06225774829855,8.5,21.0,21.0,20.0
405,66,485,0,19.399999999999764,9.0,55.036351623268054,10.0,11.045361017187261,15.033296378372908,17.0,13.038404810405298,43.04648650006177,32.01562118716424,27.5,26.0,28.0,14.0,16.0,4.0,4.0,9.0,9.055385138137417,9.0,20.0,21.0,21.0
406,66,486,0,19.439999999999763,13.0,55.00909015790027,8.06225774829855,10.0,15.033296378372908,16.0312195418814,12.0,43.01162633521314,33.015148038438355,26.5,26.0,27.0,14.5,16.5,5.5,6.5,9.055385138137417,9.0,9.5,21.0,21.0,20.024984394500787
407,66,487,0,19.47999999999976,15.0,55.0,7.0,10.0,16.0,17.0,12.0,44.0,34.0,26.5,26.0,26.0,14.0,18.0,7.0,8.0,9.055385138137417,9.055385138137417,9.0,20.0,21.0,19.0
408,66,488,0,19.51999999999976,17.0,55.0,7.0710678118654755,10.0,16.0,17.0,12.0,46.010868281309364,36.013886210738214,27.5,27.0,27.0,15.0,19.0,8.0,8.0,8.0,9.055385138137417,9.5,20.0,21.0,19.0
409,66,489,0,19.55999999999976,19.026297590440446,54.0,6.0,10.0,15.033296378372908,18.0,12.041594578792296,47.0,37.0,27.5,27.0,27.0,15.0,20.0,9.0,8.0,9.0,9.0,9.0,19.0,22.0,20.024984394500787
410,66,490,0,19.59999999999976,17.029386365926403,56.00892785976178,6.0,10.0,16.0,18.0,12.0,45.0111097397076,35.014282800023196,26.5,27.0,26.0,14.5,18.5,8.5,8.5,9.0,9.055385138137417,9.0,19.0,22.0,20.024984394500787
411,66,491,0,19.63999999999976,20.0,55.00909015790027,5.0,9.0,17.029386365926403,18.0,11.0,45.0,36.0,26.0,27.0,26.0,15.5,18.5,8.5,9.5,9.0,10.04987562112089,10.0,19.0,22.0,19.1049731745428
412,66,492,0,19.67999999999976,19.0,55.00909015790027,6.0,9.0,15.0,17.029386365926403,12.0,46.0,37.0,27.5,27.0,26.0,14.5,19.5,9.5,8.5,8.0,7.0710678118654755,7.5,21.0,23.0,20.024984394500787
413,66,493,0,19.71999999999976,18.0,55.0,6.0,9.0,16.0,18.0,12.0,45.0,36.0,27.0,27.0,27.0,15.0,18.0,9.0,9.0,7.0,7.0710678118654755,7.5,19.0,22.0,20.024984394500787
414,66,494,0,19.75999999999976,18.027756377319946,55.00909015790027,5.0,9.0,16.0,17.0,12.0,44.01136216933077,35.014282800023196,26.0,26.0,25.0,13.5,18.5,8.5,8.5,7.0,7.0710678118654755,7.5,19.0,22.0,20.0
415,66,495,0,19.79999999999976,15.0,57.0087712549569,6.0,9.0,16.0,17.029386365926403,12.0,42.0,33.0,25.5,26.0,25.0,13.5,16.5,6.5,8.5,7.0,7.0,7.5,20.0,22.0,21.0
416,66,496,0,19.839999999999755,14.035668847618199,56.0,6.0,10.0,15.033296378372908,17.0,12.0,42.01190307520001,32.01562118716424,25.0,25.0,25.0,13.0,17.0,6.0,7.0,8.0,8.06225774829855,8.0,20.0,22.0,21.02379604162864
417,66,497,0,19.87999999999976,13.0,56.0,6.082762530298219,10.0,16.0312195418814,17.0,13.0,42.01190307520001,32.01562118716424,25.5,26.0,26.0,13.0,16.0,5.0,7.0,8.0,7.0,7.5,20.0,22.0,21.02379604162864
418,66,498,0,19.91999999999976,14.035668847618199,55.00909015790027,6.0,9.0,15.0,17.0,12.0,41.012193308819754,32.01562118716424,25.0,25.0,26.0,13.5,15.5,5.5,7.5,7.0710678118654755,6.0,6.5,21.0,23.0,21.0
419,66,499,0,19.959999999999752,14.035668847618199,56.0,6.0,10.0,16.0,17.0,12.0,42.01190307520001,32.01562118716424,25.0,25.0,25.0,13.0,17.0,6.0,8.0,6.0,6.0,6.5,20.0,23.0,20.024984394500787
420,66,500,0,19.99999999999975,13.0,54.00925846556311,6.0,10.0,15.0,17.0,12.0,41.0,31.0,24.5,25.0,24.0,12.5,16.5,6.5,6.5,7.0,6.0,6.5,20.0,23.0,20.024984394500787
421,66,501,0,20.03999999999975,12.0,53.03772242470448,5.0,10.04987562112089,15.0,17.0,11.0,38.01315561749642,28.0,22.0,23.0,21.0,11.0,16.0,5.0,6.0,7.0,6.0,6.0,19.0,23.0,19.026297590440446
422,66,502,0,20.07999999999975,12.0,53.009433122794285,5.0,9.0,15.0,17.029386365926403,10.0,36.0,27.0,21.0,22.0,21.0,11.5,14.5,4.5,6.5,6.0,6.0,6.0,20.0,24.0,20.024984394500787
423,66,503,0,20.11999999999975,11.045361017187261,51.03920062069938,6.0,11.045361017187261,16.0,17.029386365926403,10.0,38.0,27.018512172212592,21.5,22.0,20.0,11.0,17.0,5.0,6.0,6.0,5.0,5.5,19.0,24.0,20.09975124224178
424,66,504,0,20.159999999999748,13.038404810405298,51.0,5.0,10.0,16.0312195418814,17.0,11.0,39.01281840626232,29.017236257093817,22.5,22.0,22.0,11.0,17.0,6.0,6.0,3.0,3.1622776601683795,3.0,19.0,23.0,21.02379604162864
425,66,505,0,20.199999999999747,13.038404810405298,51.0098029794274,5.0990195135927845,10.04987562112089,15.0,17.0,11.0,39.01281840626232,29.0,22.5,23.0,22.0,11.5,16.5,4.5,6.5,4.0,3.0,3.0,19.0,23.0,20.024984394500787
426,66,506,0,20.239999999999743,13.0,52.009614495783374,5.0,10.04987562112089,16.0,17.029386365926403,11.0,39.01281840626232,29.0,22.5,23.0,22.0,11.5,16.5,4.5,6.5,3.0,4.0,4.0,19.0,23.0,21.02379604162864
427,66,507,0,20.279999999999745,11.045361017187261,50.00999900019995,6.082762530298219,11.045361017187261,15.0,16.0,11.0,39.01281840626232,28.0,22.5,23.0,22.0,11.5,16.5,4.5,6.5,4.0,4.0,4.0,19.0,23.0,21.095023109728988
428,66,508,0,20.319999999999744,13.0,50.00999900019995,5.0,11.0,15.0,16.0,11.045361017187261,40.01249804748511,29.017236257093817,22.5,23.0,22.0,11.5,17.5,4.5,7.5,4.0,4.0,4.5,18.0,22.0,20.024984394500787
429,66,509,0,20.359999999999744,14.0,51.03920062069938,5.0,10.04987562112089,16.0,18.0,12.041594578792296,41.048751503547585,31.016124838541646,24.0,24.0,22.0,11.0,18.0,7.0,7.0,4.0,4.0,4.0,18.0,23.0,21.02379604162864
430,66,510,0,20.399999999999743,17.029386365926403,52.009614495783374,6.0,11.045361017187261,15.0,17.0,11.045361017187261,45.0111097397076,34.0,25.5,24.0,23.0,12.5,21.5,9.5,7.5,5.0,4.0,4.5,19.0,23.0,21.02379604162864
431,66,511,0,20.439999999999745,19.0,54.0,6.0,10.0,15.033296378372908,18.0,11.0,46.0,36.0,26.5,23.0,23.0,12.0,23.0,11.0,6.0,4.0,4.123105625617661,4.5,20.0,24.0,21.02379604162864
432,66,512,0,20.47999999999974,19.0,52.009614495783374,6.0,11.0,14.0,16.0312195418814,11.0,47.0,36.0,26.5,23.0,24.0,12.5,23.5,11.5,6.5,4.0,4.0,4.5,20.0,25.0,23.021728866442675
433,66,513,0,20.51999999999974,17.029386365926403,52.009614495783374,6.0,11.0,15.0,17.0,12.0,46.010868281309364,35.014282800023196,26.5,23.0,24.0,11.5,22.5,10.5,6.5,4.0,4.0,4.5,21.0,26.0,22.090722034374522
434,66,514,0,20.55999999999974,17.0,52.0,6.0,11.0,15.033296378372908,17.0,12.0,46.0,35.0,26.5,23.0,23.0,11.0,23.0,11.0,5.0,4.0,4.0,4.5,23.0,28.0,24.08318915758459
435,66,515,0,20.59999999999974,16.0,53.009433122794285,6.082762530298219,11.0,15.033296378372908,18.027756377319946,12.041594578792296,45.044422518220834,34.058772731852805,26.0,21.0,22.0,9.5,23.5,10.5,3.5,3.0,4.0,4.0,24.0,28.0,23.021728866442675
436,66,516,0,20.639999999999738,15.033296378372908,53.009433122794285,5.0,10.0,15.033296378372908,17.0,12.041594578792296,42.04759208325728,32.0624390837628,24.5,19.0,20.0,7.5,22.5,11.5,2.5,2.0,3.0,3.0,23.0,26.0,25.019992006393608
437,66,517,0,20.679999999999737,13.038404810405298,53.009433122794285,6.0,10.04987562112089,15.0,17.0,11.0,40.049968789001575,30.01666203960727,23.5,18.0,19.0,7.5,21.5,10.5,2.5,2.0,2.23606797749979,2.5,23.0,27.0,24.020824298928627
438,66,518,0,20.719999999999736,12.041594578792296,53.009433122794285,6.0,11.0,15.033296378372908,17.029386365926403,11.0,40.01249804748511,29.017236257093817,23.0,18.0,19.0,7.5,21.5,9.5,1.5,2.0,3.0,3.0,23.0,27.0,23.0
439,66,519,0,20.75999999999973,13.0,53.009433122794285,5.0,9.0,15.033296378372908,17.029386365926403,12.041594578792296,39.01281840626232,30.01666203960727,23.5,18.0,19.0,6.5,20.5,9.5,1.5,2.0,3.0,3.0,24.0,27.0,23.0
440,66,520,0,20.79999999999973,13.038404810405298,54.037024344425184,5.0,10.0,15.0,16.0312195418814,12.041594578792296,40.049968789001575,30.066592756745816,23.5,18.0,20.0,7.0,21.0,10.0,3.0,3.0,3.1622776601683795,3.0,23.0,26.0,24.020824298928627
441,66,521,0,20.839999999999733,12.041594578792296,53.03772242470448,6.0,11.0,15.033296378372908,16.0312195418814,11.045361017187261,40.049968789001575,29.068883707497267,23.0,17.0,19.0,7.0,22.0,10.0,1.0,3.1622776601683795,4.0,4.5,24.0,26.0,23.0
442,66,522,0,20.879999999999733,11.180339887498949,53.03772242470448,6.0,11.0,15.132745950421556,16.0312195418814,12.041594578792296,40.11234224026316,29.154759474226502,23.5,18.0,20.0,7.0,21.0,9.0,1.0,4.123105625617661,4.0,4.5,24.0,25.0,24.020824298928627
443,66,523,0,20.91999999999973,10.04987562112089,54.08326913195984,6.0,11.045361017187261,14.035668847618199,17.0,12.165525060596439,39.20459156782532,28.160255680657446,23.0,17.0,20.0,6.5,20.5,8.5,0.5,5.0990195135927845,5.0,5.0,24.0,25.0,23.0
444,66,524,0,20.95999999999973,11.045361017187261,54.08326913195984,6.082762530298219,10.0,15.132745950421556,16.0312195418814,12.0,39.05124837953327,29.068883707497267,23.5,17.0,20.0,6.5,20.5,8.5,0.5,5.0,5.0,5.0,24.0,25.0,24.020824298928627
445,66,525,0,20.99999999999973,4.123105625617661,51.088159097779204,5.0,11.045361017187261,15.033296378372908,15.033296378372908,13.038404810405298,33.13608305156178,22.090722034374522,20.0,16.0,19.0,4.5,15.5,3.5,0.5,4.123105625617661,5.0,4.5,21.0,24.0,23.021728866442675
446,66,526,0,21.03999999999973,4.123105625617661,51.03920062069938,5.0,11.0,15.033296378372908,16.0312195418814,13.038404810405298,33.06055050963308,22.090722034374522,20.0,17.0,19.0,5.0,15.0,3.0,0.0,4.0,5.0,5.0,22.0,26.0,24.020824298928627
447,66,527,0,21.07999999999973,6.082762530298219,51.0098029794274,5.0,11.0,14.035668847618199,16.0,12.041594578792296,34.058772731852805,23.08679276123039,20.0,17.0,18.0,5.5,16.5,4.5,0.5,5.0990195135927845,5.0,5.0,22.0,25.0,22.02271554554524
