,video_id,frame_seq,gap,time_seconds,m1,m3,m4,m5,m6,m7,m8,m9,m10,m11,m12,m13,m14,m15,m16,m17,e1,e2,e3,b1,b2,b3,label_measures
0,43,219,1,7.3073000000000095,22.157949572148937,156.68036399655787,21.49636859601833,26.870460745022683,43.32731606838262,43.32731606838262,33.988743092966935,103.37272646891608,76.94528976700633,64.48910578805499,75.2372900860646,59.11501363905063,34.931598968530125,34.93159896852967,8.061138223506987,18.80932252151615,21.49636859601833,22.157949572148496,21.49636859601833,48.36682934104101,64.48910578805499,54.0089576739384,{}
1,43,220,0,7.340666666666676,17.03748109239938,156.61513939205386,16.16317375321114,32.326347506421826,43.437224276306914,48.78792112998647,32.772249225577,97.57584225997256,65.544498451154,56.57110813623831,64.65269501284365,53.877245844036224,26.938622922018112,37.71407209082554,5.387724584403713,16.163173753210685,21.550898337614854,21.550898337614854,21.550898337614854,48.48952125963251,53.877245844036224,53.87724584403651,{}
2,43,221,0,7.374033333333343,10.922074230593807,158.7462528268925,16.38311134589094,27.845934815353164,44.02828879654856,49.4517943326765,34.538631342107536,88.89924346856019,61.05625108726639,54.61037115296904,65.53244538356284,54.61037115296904,27.30518557648429,27.305185576484742,4.547473508864641e-13,16.383111345890484,21.84414846118761,21.84414846118761,21.84414846118761,43.68829692237523,49.14933403767236,54.61037115296927,{}
3,43,222,0,7.40740000000001,5.781940846277394,150.77457068717035,17.34582253883309,29.48222920160899,40.88449580822405,40.47358592394346,36.56820474119758,88.44668760482655,58.96445840321756,54.92843803963751,63.60134930905406,52.037467616498816,23.12776338511094,28.90970423138788,4.547473508864641e-13,11.563881692555697,23.8395528302758,17.34582253883309,17.34582253883309,46.25552677022142,52.037467616498816,57.81940846277632,{}
4,43,223,0,7.440766666666676,5.77530775765581,150.6016008979895,17.32592327296834,29.44840695329261,40.83759278877929,40.83759278877929,36.52625340526658,88.3452208598774,58.89681390658478,54.8654236977336,63.528385334217546,51.97776981890547,23.101231030624604,28.876538788280413,4.547473508864641e-13,11.55061551531253,17.32592327296834,23.101231030624604,23.101231030624604,40.42715430359294,51.97776981890547,58.0411246381388,{}
5,43,224,0,7.474133333333343,13.513205052711404,151.56491750472802,18.12986705505364,24.17315607340469,42.30302312845845,48.34631214680962,30.81484863085351,85.46501291092642,61.62969726170747,54.38960116516091,66.47617920186303,54.38960116516091,30.216445091756214,24.17315607340469,6.043289018351061,12.086578036702576,24.917118948797185,19.110557856672923,21.151511564229168,48.34631214680985,54.38960116516091,48.34631214680962,{}
6,43,225,0,7.50750000000001,12.46202676686562,150.06267395665273,12.46202676686562,25.69112633453028,37.38608030059663,43.61709368402944,39.408388845279056,89.21453466687021,63.54411766316293,56.07912045089461,68.54114721776023,56.07912045089461,24.924053533730785,24.92405353373124,6.231013383432583,12.462026766865163,18.6930401502982,18.6930401502982,18.6930401502982,43.61709368402944,49.84810706746202,43.61709368402933,{}
7,43,226,0,7.540866666666677,12.861470387249938,148.46505071756656,19.292205580874,25.72294077449897,38.5844111617489,45.015146355373645,34.63056884870996,90.94432926854174,65.5808884780818,57.87661674262336,70.73808712987284,57.87661674262336,32.153675968123935,25.72294077449897,0.0,12.861470387249938,19.29220558087445,19.29220558087445,19.29220558087445,51.44588154899839,51.44588154899839,45.015146355373645,{}
8,43,227,0,7.574233333333344,6.643638388299223,146.31095841297773,19.93091516489767,33.87604178319186,39.86183032979511,46.505468718094335,33.87604178319141,93.95523512235248,60.160704324563554,56.47092630054294,66.43638388299178,59.79274549469256,29.896372747346504,29.896372747346504,3.321819194149612,9.965457582448837,21.00902925755569,21.00902925755569,19.93091516489767,53.149107106393785,53.149107106393785,53.56272507295888,{}
9,43,228,0,7.60760000000001,13.267162536133128,146.08947331488793,19.90074380419992,27.350956244357185,40.35049957908371,46.435068876466175,35.72292839005903,94.9784296048794,67.64952066175046,59.70223141259976,66.3358126806661,59.7022314125993,29.85111570629988,29.851115706299424,3.316790634033623,16.58395317016675,26.534325072266256,19.900743804199465,23.217534438233088,46.435068876466175,53.06865014453297,53.48164197743825,{}
10,43,229,0,7.640966666666677,13.76041832307601,144.6481141359159,13.760418323075555,27.52083664615111,41.28125496922689,41.28125496922689,30.769230769230607,83.7013569768335,56.7356581987256,48.16146413076467,61.92188245384023,55.04167329230268,30.960941226920568,24.080732065382108,3.4401045807690025,17.200522903845012,20.64062748461356,13.760418323075555,17.200522903844558,48.16146413076467,48.16146413076467,48.16146413076467,{}
11,43,230,0,7.674333333333344,14.229110075920744,142.46885360897477,21.343665113881343,29.33406190078132,43.27614880465027,42.687330227762686,22.498198458580696,86.55229760930045,57.35937648049294,49.801885265723286,56.91644030368343,49.80188526572283,32.01549767082179,32.01549767082224,3.5572775189803,17.786387594901043,21.343665113881343,21.34366511388089,21.34366511388089,49.801885265723286,49.801885265723286,49.80188526572306,{}
12,43,231,0,7.707700000000011,16.195526603578468,131.17376786937697,14.48571936680264,28.971438733605737,43.45715810040883,44.05659549440212,29.863075506192214,88.11319098880419,59.72615101238405,50.70001778381038,65.18573715061348,50.70001778381038,28.971438733605737,28.971438733605737,7.242859683401548,14.485719366803096,14.485719366803096,14.485719366803096,18.10714920850387,43.45715810040883,50.70001778381038,44.05659549440212,{}
13,43,232,0,7.741066666666677,7.525766947069314,143.1874815312312,22.577300841206124,31.02953203654618,45.77745319738676,45.154601682412704,31.029532036547007,91.55490639477364,60.67467288089501,56.443252103015766,67.73190252361928,60.20613557655088,33.86595126180964,26.340184314740327,3.7628834735342025,18.81441736767192,23.79856469234944,22.57730084120658,22.57730084120658,45.154601682412704,45.154601682412704,45.154601682412704,{}
14,43,233,0,7.774433333333344,16.82812647646622,113.13708498984772,16.82812647646622,31.02953203654618,37.62883473534384,38.37403251785518,53.21520841901924,84.14063238233378,53.21520841901924,60.20613557654997,90.3092033648254,82.78343641775609,33.86595126180873,3.7628834735342025,33.86595126180873,18.81441736767192,22.577300841206124,15.051533894137265,18.814417367671467,45.154601682412704,45.154601682412704,45.154601682412704,{}
15,43,323,1,10.77743333333328,12.247831464629774,142.51761103225417,13.69349186593638,22.080092179481863,30.125682105060264,32.86438047824754,41.44402671627608,88.02263486749057,66.63540738484934,60.2513642101203,57.512665836933024,52.03526909055847,13.69349186593638,32.86438047824754,13.693491865936494,0.0,27.38698373187293,30.24991224903708,31.495031291653845,49.2965707173712,52.03526909055853,79.42225282243146,{}
16,43,324,0,10.810799999999944,11.283218632140343,131.81126718455636,16.64598139089978,24.629242350309823,27.502313584784,30.59592229422742,35.68067021521304,87.61338813493124,63.0008599527488,57.46823215072277,60.20481463409055,49.25848470061965,19.156077383574257,32.83898980041306,10.94632993347102,5.473164966735453,27.502313584784066,27.502313584784066,28.73411607536144,46.52190221725181,51.99506718398732,76.62430953429714,{}
17,43,325,0,10.844166666666611,8.828064887839606,134.72564172689547,16.98112186389504,22.333433901865646,28.056029113284296,31.21192273473122,36.39904400236922,83.79689220202607,61.48035774700296,57.22942437353072,61.41694323013053,47.4585470414645,18.14591504526584,29.31263199619866,9.77087733206622,4.187518856599809,28.056029113284296,28.056029113284296,27.91679237733205,47.45854704146444,55.83358475466406,80.95869789426285,{}
18,43,326,0,10.877533333333275,6.414673026590014,135.9244845018358,17.449797198869128,22.94983190542348,28.830369521892287,32.07336513295036,37.40364983920823,83.24258680753275,60.31157314616051,57.3745797635587,63.11203773991451,45.899663810846846,17.212373929067667,28.687289881779293,8.606186964533777,2.8687289881779634,28.83036952189223,28.83036952189223,28.68728988177935,45.8996638108469,60.243308751736606,83.24258680753275,{}
19,43,327,0,10.910899999999945,4.140578207421781,136.2306863112992,17.809300266935224,20.70289103710879,26.99326740875363,32.73414491377471,41.09406535425697,81.97926599803282,61.5541202851809,60.02053403427408,67.34011135552691,46.84529485601877,16.10307010675649,24.88656289225992,7.31957732125295,4.39174639275177,29.278309285011687,26.512636676928604,27.814393820761097,46.84529485601877,67.34011135552691,87.88371148992914,{}
20,43,367,1,12.245566666666578,13.745684176978784,138.1424163058467,14.16872693951618,31.118116052436346,37.95651104074226,41.23705253093704,38.42035527120987,97.1966649359036,66.10087858365652,58.41915775215989,44.67347357518111,30.92778939820232,0.0,58.41915775216012,27.49136835395757,10.309263132734031,7.684071054242182,7.684071054241978,5.154631566367016,37.80063148669183,65.29199984064962,65.65273186672968,{}
21,43,368,0,12.278933333333244,14.666450985149831,132.81036228014648,14.228547426992236,28.678554185075377,32.795181391464176,35.74878297762324,40.55760027778509,97.67563592676063,69.06710452052076,60.47132656471672,49.79991599447271,32.014231710732474,1.7785684283742285,55.13562127959472,23.12138956886224,5.335705285122003,7.953999816958667,7.953999816958465,5.335705285122003,39.12850542422848,67.58560027821295,64.4224884538343,{}
22,43,369,0,12.31229999999991,15.24399308169468,138.0402283978476,14.78884556047342,29.80787117707936,37.156514615680926,40.837034560714,38.600020141070665,97.88886461859596,68.1732095584114,59.15538224189345,48.063748071538384,29.57769112094661,1.8486056950591767,57.3067765468345,27.72908542588766,9.243028475295889,8.267215995491135,5.228646490865661,5.545817085177532,36.97211390118355,66.54980502213039,70.63512442882526,{}
23,43,370,0,12.345666666666576,15.673695795325468,141.47243854211283,15.205718425394023,30.648105298394736,38.2038947262488,41.81572566983414,38.76712748464092,99.99999999999996,69.36958071318955,60.82287370157633,49.41858488253092,34.21286645713667,3.80142960634862,57.02144409522771,26.610007244439657,7.602859212697012,8.500255011475476,8.500255011475476,7.60285921269724,38.01429606348529,68.42573291427334,65.06999343970085,{}
24,43,371,0,12.379033333333242,11.849287583000432,139.1415625001257,15.799050110667167,27.92903867389728,40.27983240526142,43.62655305023856,36.41501121957388,91.61405855778364,63.68800708524216,57.2715566511688,43.447387804334994,27.648337693667827,0.0,55.29667538733543,23.698575166000865,7.89952505533347,8.831937506844213,8.83193750684401,7.899525055333697,39.49762527666826,67.14596297033609,63.68800708524263,{}
25,43,372,0,12.412399999999908,12.717331344540762,133.25918622986765,12.064719842340082,28.43681737878175,36.41689491870578,36.19415952702093,41.012161268081314,93.88457355025182,65.46646995188607,58.31281257131036,44.23730608858023,32.172586246240144,2.010786640389824,54.29123929053003,26.14022632506999,10.053933201949803,5.687363475756485,8.992511232320956,8.043146561559979,36.19415952702025,64.34517249248029,64.47072416794826,{}
26,43,373,0,12.445766666666572,13.172584109765262,133.88167619547087,13.172584109764976,29.45479350876833,33.58363171006784,37.720540444915045,41.863127194480505,97.24543681336206,67.81002699759216,60.40028426264894,45.8209053026992,33.324294765599234,2.0827684228499947,56.23474741694895,27.07598949704948,10.413842114249746,9.314423549764822,9.314423549765229,6.248305268549757,37.48983161129922,62.48305268549871,67.16726342013474,{}
27,43,374,0,12.47913333333324,17.16465520836755,137.9193664428771,13.56985142747874,30.34311023641437,38.62047421882744,38.62047421882653,34.59646861263375,95.27929880492026,64.93709164870202,55.78512942719499,38.62047421882721,25.74698281255155,2.145581901045944,62.22187513033282,32.18372851568938,15.019073307321833,8.582327604183774,9.595333964064118,8.582327604183774,38.62047421882721,68.65862083347042,64.93709164870205,{}
28,43,375,0,12.512499999999903,13.467004177297213,131.41355109188433,13.467004177296984,31.74203325344753,36.19148625826052,36.19148625826052,41.386547906379526,99.67200618087767,67.93091764276727,60.601518797836434,53.86801670918794,35.91201113945863,4.489001392432328,53.86801670918817,22.44500696216187,4.489001392432328,6.348406650689507,10.037712264569896,8.978002784864657,40.40101253189096,67.33502088648493,67.93091764276704,{}
29,43,376,0,12.545866666666573,10.150192141784114,132.34231404797313,13.617911768227714,31.775127459198306,36.31443138194027,36.59703822301391,41.85031432088951,96.29317756913994,64.99294131765716,59.01095099565396,45.39303922742624,31.775127459198306,2.269651961371437,56.74129903428275,24.966171575084445,11.348259806856504,9.078607845485068,12.839090342551764,9.078607845485068,36.31443138194072,68.08955884113902,68.69213305461533,{}
30,43,377,0,12.579233333333235,14.853578426001134,137.5059543413161,14.091341769030578,33.21361106966263,37.86934312042992,37.86934312043082,38.73339368026062,100.4128268550462,67.25243666348403,58.71392403762752,51.66825315311212,32.87979746107135,4.697113923010193,56.36536707612254,23.48556961505119,4.697113923010193,10.503066029911402,10.503066029911606,9.39422784602084,37.57691138408177,70.45670884515312,65.92713556290832,{}
31,43,378,0,12.612599999999905,19.70060934311391,134.43049698753342,11.01297542234242,25.113447867552008,34.826086150057336,39.707847580681175,40.61384660534504,95.62916043260826,70.51744985305443,59.10182802934219,49.25152335778535,29.550914014671207,0.0,54.176675693563766,24.62576167889256,4.925152335778421,4.925152335778648,6.965217230011853,4.925152335778648,39.40121868622805,68.95213270089926,69.65217230011554,{}
32,43,379,0,12.645966666666569,15.799050110667077,135.72478347256242,14.988294965053228,29.976589930106456,35.32775002737761,40.27983240526122,41.198882192551736,101.03983552012777,71.53324178441228,62.45122902105504,49.96098321684394,34.972688251790714,2.498049160842129,57.45513069937056,27.4785407692641,7.494147482526614,7.06555000547614,7.06555000547614,4.996098321684485,39.96878657347497,69.94537650358143,65.71341362392623,{}
33,43,380,0,12.679333333333236,15.233873786926324,137.4804945508634,16.057912918073974,30.88801222080281,35.906584861585486,35.906584861585486,35.90658486158571,97.6764710128525,66.79010865405868,58.39651618321796,45.7016213607792,35.54570550282847,5.077957928975366,55.85753721873016,25.389789644877283,5.077957928975366,7.181316972317116,7.181316972317277,5.077957928975593,40.62366343180384,66.01345307668112,66.20847108818926,{}
34,43,381,0,12.7126999999999,20.79500979640148,146.3981981871107,15.596257347301162,26.50854018430086,41.91368221424598,41.913682214245945,31.62277660168374,94.15341132887777,67.78343894045652,57.18627694010411,41.59001959280272,25.993762245501784,2.599376224550042,59.78565316465438,28.59313847005205,7.798128673650581,7.352146220938165,7.352146220938165,5.198752449100084,41.59001959280295,67.58378183830473,67.78343894045696,{}
35,43,382,0,12.746066666666566,16.22066002983229,136.1419278560892,10.813773353221675,27.56982067182315,32.44132005966458,32.888807682056665,44.58632974682188,98.66642304616984,71.11649085361279,62.17919678102362,48.66198008949687,32.44132005966458,2.703443338305078,56.77231010441301,24.330990044748432,13.517216691526755,12.090166155539247,7.646492468277599,5.406886676611066,37.84820673627519,70.28952679593976,65.10753729322046,{}
36,43,383,0,12.779433333333232,12.280111196910308,138.28081360722285,16.47549804452865,32.9509960890573,33.405514057753486,33.405514057753486,38.83312130237304,99.46132009055786,66.81102811550697,60.41015949660505,49.42649413358595,32.9509960890573,2.745916340754775,57.66424315585027,24.71324706679297,8.237749022264325,12.280111196910308,7.766624260474607,5.49183268150955,38.44282877056708,65.90199217811482,66.13042264529975,{}
37,43,384,0,12.812799999999898,11.290024290336987,142.1377739501683,11.290024290336987,28.784027082682325,33.87007287101096,39.515085016179,39.91626367729068,91.02308581324822,62.35119708979276,56.450121451684936,45.16009716134795,28.225060725842468,2.822506072584474,53.62761537910092,25.40255465325845,14.11253036292146,5.645012145168494,7.983252735458444,5.645012145168494,39.515085016179455,67.74014574202192,67.9749476444776,{}
38,43,385,0,12.846166666666564,11.496816361579477,133.3333333333335,17.24522454236876,29.311245485943275,34.9662018909675,34.49044908473843,40.64738405664649,98.39689836371996,69.22000078648254,63.232489988686666,51.73567362710765,34.49044908473843,2.874204090394869,54.60987771750206,25.867836813553367,8.622612271184607,8.1294768113293,8.1294768113293,5.748408180789738,34.4904490847382,63.232489988686666,69.93240378193425,{}
39,43,386,0,12.87953333333323,11.639519239586662,128.5626920677298,13.013378122566218,29.0987980989662,35.40021575062059,40.738317338552406,41.151914920314624,93.8408041758267,65.06689061283065,58.19759619793285,46.55807695834619,34.91855771875953,0.0,52.37783657813952,23.279038479173323,5.819759619793331,13.013378122566218,13.013378122566218,8.729639429689996,40.73831733855286,69.83711543751906,70.07918588757677,{}
40,43,397,1,13.246566666666554,4.64833543133905,168.7864297837234,13.552110145621386,23.24167715669511,46.48335431338998,49.41248342163443,53.50635899028297,94.12161885411405,70.95376094163248,67.38082484695508,42.72930356148373,62.45052058986085,5.684341886080804e-14,39.44243405675422,9.860608514188584,13.147478018918092,9.860608514188556,13.147478018918092,13.147478018918063,49.303042570942765,32.868695047295176,56.26214326124098,{}
41,43,398,0,13.27993333333322,3.5231694596083685,173.2095597545933,11.141240075107136,28.404700274296363,49.45003982910491,52.96485067752469,56.80940054859283,99.65028064633697,71.25169277860645,68.70180446236327,49.324372434517215,63.41705027295069,0.0,42.27803351530042,10.569508378825104,10.569508378825104,10.569508378825134,14.092677838433474,14.092677838433474,45.80120297490882,28.185355676866976,49.82514032316832,{}
42,43,399,0,13.313299999999886,5.317522438901554,177.36149508319517,11.890341645264416,26.32039322961225,52.77490332999018,56.52603888801183,57.51779943566925,99.55276858692348,73.87338264508197,69.5610392496896,48.8807302835657,63.92095498620125,0.0,41.36061793224792,11.280168526976809,11.280168526976809,11.280168526976697,11.280168526976752,11.280168526976752,45.12067410790678,30.080449405271168,53.17522438901542,{}
43,43,400,0,13.346666666666552,3.9371146699131714,158.27005095487257,12.450249766187731,27.839604814046616,43.48685289525549,47.40913866531052,55.26003772200125,99.13401434343804,71.30417933814951,68.89950672348095,51.18249070887157,66.93094938852437,3.9371146699131714,39.371146699132055,7.874229339826456,7.874229339826456,12.450249766187731,15.7484586796528,13.779901344696214,51.182490708871626,31.4969173593056,59.18781170844498,{}
44,43,401,0,13.380033333333218,4.144243370378263,178.6356383362872,13.105248228447982,25.208448289773592,49.90329850194279,53.87516381491741,54.50901107648036,96.7483356267362,71.54073264687298,68.38001561124099,49.73092044453893,62.16365055567371,2.072121685189132,39.37031201859327,10.360608425945545,10.360608425945545,8.288486740756468,13.105248228448035,12.432730111134674,45.586677074160605,29.009703592647668,54.50901107648013,{}
45,43,402,0,13.413399999999884,4.374263186665303,175.84320384013043,13.122789559995454,30.93071161985582,48.31531608090844,52.67310387475734,57.53444939977258,102.11820230637888,71.2078456558452,69.98821098664223,48.11689505331651,65.61394779997704,0.0,43.74263186665132,8.748526373330265,13.122789559995454,13.12278955999534,13.122789559995454,13.12278955999534,43.74263186665138,26.24557911999085,52.6731038747578,{}
46,43,403,0,13.44676666666655,4.6311684464749305,176.53197691634986,13.893505339424678,32.41817912532417,51.15292742272143,51.15292742272142,56.3405957954338,102.8286270527568,70.84325483793201,69.46752669712339,50.94285291122378,64.83635825064846,2.3155842232374653,43.996100241511385,6.946752669712282,11.577921116187213,9.26233689294986,9.26233689294986,11.577921116187213,41.680516018274034,23.155842232374425,55.76665285854601,{}
47,43,404,0,13.480133333333216,0.0,179.9991836049741,15.33366343658559,29.494890527513142,53.55818387058213,53.55818387058214,54.21268698220919,98.8991574811312,69.42611399842883,67.88502186767721,48.4893013340552,63.036091734271736,2.424465066702737,41.21590613394699,7.273395200108325,12.1223253335138,9.697860266811064,14.546790400216535,12.1223253335138,48.4893013340552,29.09358080043308,53.55818387058213,{}
48,43,405,0,13.51349999999988,0.0,181.50785828642,15.50097826100739,26.34659687755124,51.66992753669092,51.66992753669092,57.76873518226491,99.38909006069828,73.0723122892238,72.33789855136774,46.50293478302217,62.00391304402956,2.583496376834546,43.91943840618751,12.917481884172844,12.917481884172844,15.50097826100739,15.50097826100739,15.50097826100739,46.502934783022056,25.83496376834557,51.92763450960731,{}
49,43,406,0,13.546866666666547,7.420141484896414,179.08538759360806,15.7404970840023,20.98732944533617,47.51208778712303,47.22149125200576,53.507401189984606,95.74570587083636,75.12320689858835,70.83223687800955,47.221491252006444,62.96198833600852,2.623416180667164,39.35124271000518,13.117080903335136,13.117080903335136,10.493664722668086,10.493664722668086,13.117080903335136,41.974658890672345,20.98732944533617,58.661369132444136,{}
50,43,407,0,13.580233333333211,7.610423906471746,172.9593366277081,10.762764703941002,27.43977362280151,48.73048977266856,54.082223306999225,54.87954724560297,99.2277876713669,71.7965955406085,67.2672793996312,48.4324411677344,64.57658822364601,2.6906911759851937,40.360367639778815,8.072073527955808,8.072073527955808,10.762764703941002,10.762764703941002,10.762764703941002,48.43244116773451,26.906911759852505,54.08222330699831,{}
51,43,408,0,13.61359999999988,5.60661971921013,179.76190321299535,17.729688287117273,28.033098596050426,50.45957747289049,50.7701008805229,56.34583083298465,95.96987084507116,68.20747269928381,70.08274649012537,50.45957747289026,61.67281691131052,0.0,39.246338034470455,5.60661971921013,11.213239438420032,5.606619719210016,11.213239438420146,11.213239438420032,44.85295775368036,22.42647887684018,56.34583083298507,{}
52,43,409,0,13.646966666666543,5.851431169942771,182.2417881125909,17.55429350982672,23.40572467976904,58.51431169942316,58.80615546346927,58.80615546346967,100.16036787979344,76.96356076369479,76.06860520924943,52.66288052948039,70.21717403930711,2.92571558497093,38.03430260462483,8.777146754913474,8.777146754913474,11.702862339884405,11.702862339884632,11.702862339884632,40.96001818959576,23.40572467976904,52.98696285312924,{}
53,43,410,0,13.68033333333321,8.546501291092458,176.19063776326414,12.086578036702576,24.173156073404925,54.724309562247086,54.724309562247086,55.71637177295902,98.37761774011904,74.75135684639204,69.49782371103902,48.34631214680985,66.47617920186349,3.0216445091757578,39.281378619282805,9.06493352752682,9.06493352752682,13.513205052711148,12.086578036702576,12.086578036702347,48.34631214680962,24.173156073404925,54.72430956224618,{}
54,43,411,0,13.713699999999877,8.786435427813815,174.95820627941845,12.425896146929515,24.851792293859265,49.70358458771807,56.26063764847317,50.09038874506847,94.01896479890436,69.46287116471868,65.23595477138065,43.490636514253765,62.12948073464827,3.10647403673238,40.384162477521386,9.319422110197138,9.319422110197138,8.786435427813654,12.425896146929515,9.319422110197138,49.70358458771875,31.064740367324248,56.26063764847317,{}
55,43,412,0,13.747066666666544,6.525884661473356,183.77058060956853,13.051769322946484,26.90691175985236,52.61336417646622,52.207077291785936,60.1656837596189,106.2337056349625,79.39081339171534,75.04767360694291,52.20707729178639,71.78473127620623,3.2629423307364505,42.41825029957636,9.788826992210032,9.788826992210032,13.051769322946484,6.525884661473128,9.788826992209806,45.68119263031304,26.103538645893195,52.61336417646622,{}
56,43,413,0,13.780433333333209,6.764133573679146,176.38702345056478,13.528267147358292,21.390068490440395,54.53418831492105,54.11306858943317,55.77847438013189,96.8476541560383,75.62531239817608,71.02340252363115,47.34893501575425,60.87720216311254,0.0,40.58480144207488,13.528267147358292,13.528267147358292,13.52826714735852,13.528267147358292,10.146200360518831,47.34893501575425,27.05653429471681,54.53418831492105,{}
57,43,414,0,13.813799999999874,0.0,181.98967973817284,15.605486292817412,27.91594253814469,56.266381007303984,56.266381007303984,56.26638100730362,98.69776135968075,71.17196787116755,69.78985634536184,48.85289944175315,62.81087071082561,0.0,41.87391380721715,13.95797126907246,13.95797126907246,13.95797126907246,6.9789856345362296,10.468478451804458,48.85289944175315,27.91594253814469,42.45151231724697,{}
58,43,415,0,13.84716666666654,7.253569577881535,189.1499529537357,14.507139155764207,21.760708733646425,58.02855662305683,58.48014753210265,59.814467064749806,96.77468857386984,75.72948967679807,72.53569577882126,50.77498704517484,65.28212620093905,0.0,36.26784788941063,7.25356957788199,7.25356957788199,7.253569577882217,14.507139155764436,14.507139155764436,43.52141746729262,21.760708733646425,59.81446706474964,{}
59,43,416,0,13.880533333333206,0.0,177.3028887614179,16.46215994415972,22.086305214969343,52.05792062953616,51.53471216826165,59.355161783557655,96.8333298350194,75.07900084952963,73.62101738323099,51.53471216826165,66.25891564490803,0.0,36.810508691615496,7.36210173832319,14.724203476646151,7.362101738322963,14.724203476646151,11.043152607484672,51.53471216826188,29.448406953292533,59.35516178355746,{}
60,43,417,0,13.913899999999872,7.3758568448593,177.63415559400156,14.751713689717915,22.12757053457653,52.155183920609474,51.63099791401237,52.15518392060918,89.73117128950251,68.00204009180462,66.38271160373006,44.2551410691533,59.006854758871214,0.0,36.87928422429445,14.751713689717915,14.751713689717915,10.431036784122286,14.75171368971769,11.063785267288267,44.2551410691533,22.12757053457676,52.155183920609474,{}
61,43,664,1,22.155466666666342,11.249766547794252,176.60501272882956,14.999688730392222,22.577521312432907,45.03811094142165,48.78503199302346,37.54606659355937,86.32969175803169,63.77624410096017,58.12379383027008,52.49891055637295,41.24914400857881,9.374805456495096,39.37418291727977,14.999688730392336,1.874961091299156,15.46132524669856,13.649922782782294,14.062208184742758,41.24914400857875,63.74867710416714,53.03190808473905,{}
62,43,665,0,22.18883333333301,9.101728525494876,171.4607187913118,12.87178792179296,23.73440419796308,43.726204345491766,47.46880839592617,38.22725980707844,83.81501053196402,60.0989829349781,55.52054400551879,50.96967974277129,40.04760551217737,7.281382820395834,38.22725980707855,12.742419935692851,3.6406914101979737,12.871787921792944,15.010955234525104,13.652592788242316,38.22725980707844,65.53244538356302,57.477974134567965,{}
63,43,666,0,22.22219999999968,7.148986333036191,162.9925769957629,12.637741786749602,21.521298767937203,42.93113615532599,43.04259753587429,37.57470764253576,78.82142430536796,57.3034847034063,53.61739749777132,50.042904331253226,39.31942483169894,7.148986333036191,33.95768508192191,12.510726082813337,1.7872465832590478,11.303539886904703,10.871396549051653,10.723479499554289,37.53217824843995,62.55363041406662,56.12068107640829,{}
64,43,667,0,22.255566666666343,5.3877245844036,165.70112189265473,12.698988629324324,19.836454365304547,44.93360867814325,45.04114838204031,37.75680759699036,75.62031810886111,55.78889876676878,52.97929174663602,50.285429454434166,37.71407209082565,6.2856786818042565,31.42839340902128,11.673403266207856,2.693862292201743,9.671261607487985,10.924083075192367,10.775449168807311,35.91816389602434,61.06087862324142,58.16635857708237,{}
65,43,668,0,22.28893333333301,5.341781347076335,158.83255847222648,10.83092914101383,17.89474604444681,40.992347278737086,42.882376873365125,39.173063211892895,73.09115170080692,55.227119040370575,52.52751657958356,51.63721968840423,40.95365699425167,7.122375129435113,26.708906735381447,7.122375129435,1.7805937823587783,6.420022183066832,7.341576240983307,7.122375129435113,40.95365699425162,62.32078238255684,55.65601845951496,{}
66,43,669,0,22.322299999999675,7.07521466070898,184.1680550661377,10.61282199106347,19.45684031694975,47.790443357845696,49.6526850017623,35.37607330354501,72.52095027226721,53.06410995531746,49.52650262496297,49.52650262496297,40.682484299076805,9.728420158474933,27.41645681024727,7.959616493297517,0.8844018325886509,10.759212657994311,7.292964342505449,7.959616493297631,40.68248429907675,54.83291362049471,56.71215976588189,{}
67,43,670,0,22.35566666666634,5.420494333981878,164.46136725109145,12.647820112624345,18.158431287169435,43.36395467185503,45.17078611651573,39.75029178253385,75.90842752630584,57.81860622914007,55.108359062149134,56.011774784479485,52.3981118951582,14.454651557285048,21.6819773359274,1.806831444660588,3.61366288932129,5.713702713140081,5.713702713140045,6.323910056312172,45.17078611651567,59.62543767380066,58.268563258338425,{}
68,43,671,0,22.389033333333007,7.141078356915045,155.3184542629009,8.926347946143778,14.282156713829863,41.06120055226109,42.84647014148993,44.66743085176072,75.00257294578012,60.7254143230188,57.128626855319794,60.699166033777374,60.699166033777374,16.067426303058824,14.282156713829863,1.7852695892288466,8.926347946143778,7.360855086593174,8.926347946143778,8.033713151529412,48.20227890917613,55.34335726609112,59.021995428008765,{}
69,43,672,0,22.42239999999968,10.95993248702374,158.59950331290364,9.009009009009104,14.526590537474863,43.280764502574094,43.24324324324323,45.08106667818659,79.46334079711684,64.96488784619793,59.45945945945948,63.063063063063055,66.66666666666663,19.81981981981994,14.414414414414296,1.801801801801844,10.810810810810835,9.187422547014018,9.009009009008992,9.909909909909857,48.648648648648646,50.45045045045043,61.28775261872049,{}
70,43,673,0,22.45576666666634,12.562848768048266,149.40813875837753,7.32533668287065,14.323851434565691,39.24759420764551,39.12677013168705,46.22718670378153,80.26470834353407,65.95196480995538,59.51794621788383,62.182928884356215,69.28954932828265,19.54320622079763,14.213240887852862,1.776655110981551,12.436585776871198,8.883275554908039,8.883275554908039,8.883275554908096,47.96968799650335,44.41637777454014,56.880717013426406,{}
71,43,674,0,22.489133333333005,9.217583713530962,152.37455758891204,5.716502747308048,13.160377631280165,40.13782879575168,39.93377140475319,45.33730903144586,73.1176233118454,60.091293915407775,55.13536524291601,57.84694058273158,70.50095883520407,18.981027378708745,8.134726019446589,6.327009126236248,11.750159805867384,9.038584466051816,10.846301359262156,9.94244291265693,50.6160730098901,43.38520543704868,52.454948176224654,{}
72,43,675,0,22.52249999999967,6.425945977373427,141.51678037073512,9.087659952278225,10.840922906541548,37.59632537110913,37.59632537110924,44.875574648485255,70.61796855424627,59.77803778410763,56.14045753966252,53.4671024187262,67.72499639705325,16.040130725617814,8.911183736454404,5.346710241872643,7.128946989163524,10.693420483745228,10.693420483745228,11.584538857390667,53.46710241872614,40.99144518769003,51.80763274622658,{}
73,43,676,0,22.555866666666336,4.080230898639273,134.21417022609933,9.304357998717466,11.54063574893902,35.09947335473305,36.902976118899474,49.805565389275976,73.03499334744966,61.55606778199551,59.30387874614166,54.742041919515486,71.16465449537009,13.685510479878872,8.2113062879273,6.386571557276852,4.5618368266262905,10.948408383903086,11.099428047334827,10.948408383903145,58.39151138081655,40.14416407431139,49.40281835784816,"{'happy': (['m1', 'm3', 'm12', 'e1', 'e2'], 4.683374424395255, 84)}"
74,43,677,0,22.589233333333,2.639100088346181,145.42614904999428,9.515410689613525,14.211988918267192,39.893208189321086,37.74005401433749,49.4082955721625,71.52399452944923,57.487572410116975,56.91682984533702,48.51926478618896,70.91277161058383,11.19675341219738,9.33062784349795,9.330627843497837,1.8661255686995448,11.351198686117211,11.351198686117211,11.196753412197497,57.84989262968685,37.32251137399152,52.78200176692293,"{'happy': (['m1', 'm3', 'm12', 'e1', 'e2'], 4.683374424395255, 84)}"
75,43,678,0,22.622599999999668,4.202153630340927,153.31815365778763,10.120126074873134,14.312019548011287,40.56765295644348,42.02153630340938,49.43561839812942,72.54041873073443,58.34792834060169,57.317437132973055,46.98150584669929,77.04966958858688,13.15482163707577,7.517040935471982,11.275561403207805,1.8792602338679671,11.27556140320786,10.120126074873186,10.335931286273876,60.13632748377506,33.826684209623465,51.60272033579738,"{'happy': (['m1', 'm3', 'm12', 'e1', 'e2'], 4.683374424395255, 84)}"
76,43,679,0,22.65596666666633,4.072103783774019,146.43729099802013,9.806924569394557,13.257809388951074,39.31214982479378,39.31214982479375,50.00569974767503,75.54822605150615,62.29120996451587,59.18575566769289,49.16970470854483,76.48620732440315,13.658251307929165,10.01605095914806,8.194950784757452,2.7316502615857416,11.07731990470239,12.877122825315697,11.837151133538612,60.09630575488825,32.77980313902992,53.59111364688322,"{'happy': (['m1', 'm3', 'm12', 'e1', 'e2'], 4.683374424395255, 84)}"
77,43,680,0,22.689333333333,8.21812755834343,140.55160623529926,8.218127558343582,13.994966939550016,39.66896216400541,41.090637791717725,48.65381383622931,78.50355327356216,64.6312759579908,58.804133978305686,51.45361723101746,79.01805503334822,17.457477274809435,10.106960527521323,8.269331340699182,8.269331340699182,9.895936025437289,11.177861962183604,11.02577512093228,60.64176316512771,29.402066989152843,54.07752740717161,"{'happy': (['m1', 'm3', 'm12', 'e1', 'e2'], 4.683374424395255, 84)}"
78,43,681,0,22.722699999999666,6.640820600710553,136.5690975809616,8.236924206636806,15.736621600853873,37.56615423524602,39.37387624831136,46.95769279405748,76.9171727096666,61.22534076115731,56.1758834772379,51.571302864349605,75.51512205136896,17.497406328975785,10.130077348354348,10.130077348354462,8.288245103199074,11.203428167925937,11.648769925265,11.050993470932042,62.622296335281646,34.99481265795151,46.63146789848497,"{'happy': (['m1', 'm3', 'm12', 'e1', 'e2'], 4.683374424395255, 84)}"
79,43,682,0,22.75606666666633,14.00487236997667,140.30203110262272,5.815206731275591,14.00487236997667,39.69703926818956,41.11972113686557,47.741395210776965,81.41289423785695,67.46642355629734,57.92628975705588,51.49003533960524,77.2350530094078,18.38929833557336,12.872508834901282,3.677859667114717,9.19464916778668,11.185773487410074,11.63041346255102,11.03357900134398,58.845754673834506,31.261807170474583,48.37469120791418,"{'happy': (['m1', 'm3', 'm12', 'e1', 'e2'], 4.683374424395255, 84)}"
80,43,683,0,22.789433333333,5.322168490305522,142.92029218534006,8.415087260272356,17.8510957980454,40.22552546225208,39.91626367729061,48.37760404788448,79.1420949858105,61.29165069871982,56.450121451684936,54.56845073662873,77.14849931730271,18.81670715056157,9.408353575280785,11.290024290336987,7.526682860224582,11.900730532030328,11.445756119903049,11.29002429033693,62.09513359685343,35.75174358606711,49.24803555200432,"{'happy': (['m1', 'm3', 'm12', 'e1', 'e2'], 4.683374424395255, 84)}"
81,43,684,0,22.822799999999663,9.4379529865304,144.01462734439932,7.78273541061574,16.127581133009276,40.74748078809127,41.911312836487305,48.52980374850443,81.18834144519113,65.08767114248754,58.51530851648874,54.74012732187657,81.16639568416167,20.763496570366897,9.437952986530377,11.32554358383652,9.437952986530377,11.481765357836691,13.741866974360963,12.269338882489537,62.2904897111008,35.86422134881565,49.40297369775699,"{'happy': (['m1', 'm3', 'm12', 'e1', 'e2'], 4.683374424395255, 84)}"
82,43,685,0,22.85616666666633,10.605566068553216,138.44702908141468,6.557919350920005,13.85186952215338,37.49633842697953,37.09719394807996,46.76222045700646,77.08103925233223,63.26843332362425,55.47460704946411,50.92750811098347,74.57242259108295,17.27897596622654,10.003617664657554,6.365938513872948,8.184778089265137,9.094197876961346,11.063569217819657,10.003617664657554,58.20286641255262,32.73911235706083,47.84619902877443,"{'happy': (['m1', 'm3', 'm12', 'e1', 'e2'], 4.683374424395255, 84)}"
83,43,686,0,22.889533333332995,11.807555378342869,139.95813711169205,8.34920247726201,12.523803715892988,39.91058517291312,39.91058517291314,47.597777418754646,79.75564467845808,67.46858220692441,59.74202975061564,54.14121446149545,76.54447561797633,18.66938429706738,11.201630578240495,5.600815289120192,9.33469214853369,11.356143126593963,11.807555378342922,11.201630578240383,61.60896818032239,37.33876859413476,50.71753953055203,"{'happy': (['m1', 'm3', 'm12', 'e1', 'e2'], 4.683374424395255, 84)}"
84,43,687,0,22.92289999999966,9.340900452027586,140.36237643795067,7.7027038404179535,11.815408330121398,38.51351920208965,39.630084312103335,48.03076116379995,76.22998921397226,64.41836038640726,57.91358280257123,52.30904253135464,76.59538370662642,17.747710858852543,8.406810406824775,8.406810406824889,6.538630316419358,9.525886735883278,11.363695853767847,11.209080542433185,63.51812307378782,39.231781898515976,50.99139293439397,"{'happy': (['m1', 'm3', 'm12', 'e1', 'e2'], 4.683374424395255, 84)}"
85,43,688,0,22.956266666666327,6.704812091047165,141.24243760880347,7.667245960258423,12.474443822753264,37.92814476928793,39.753286139490825,47.80966101395635,72.92779830926324,60.57209943657308,55.78740873835704,50.20866786452132,72.52363135986411,14.876642330228492,7.438321165114416,7.438321165114189,5.5787408738356135,9.482036192321956,11.76101842479924,11.157481747671396,63.22572990347135,39.05118611684992,50.75666409926092,"{'happy': (['m1', 'm3', 'm12', 'e1', 'e2'], 4.683374424395255, 84)}"
86,43,689,0,22.989633333333,6.682391644733383,135.2827295597328,8.288486740756491,14.114784309719932,35.98578031270787,39.315744685344114,47.25164446535301,75.6253448693207,61.60860684966195,56.5275403379585,48.187411435636704,70.42775517516122,12.973533848056036,12.973533848055922,3.706723956587439,3.706723956587439,9.98065970038852,9.450328893070605,9.266809891468595,63.0143072619864,37.06723956587439,52.715036314803946,"{'happy': (['m1', 'm3', 'm12', 'e1', 'e2'], 4.683374424395255, 84)}"
87,43,690,0,23.02299999999966,5.191249412964909,145.44765490399857,8.208086023490573,13.977866821878097,41.40814664412768,41.04043011745276,46.79328985541829,73.1395275334773,59.24623556316477,55.06151494107257,47.71997961559623,73.41535325476343,14.683070650952686,9.176919156845427,7.341535325476343,3.670767662738172,9.358657971083655,11.16420399816706,10.094611072529972,60.567666435179774,36.70767662738166,50.09622927223208,"{'happy': (['m1', 'm3', 'm12', 'e1', 'e2'], 4.683374424395255, 84)}"
88,43,691,0,23.056366666666325,6.655725001773222,138.38590278961752,7.611112726123634,14.0584580819773,39.46224545420945,39.462245454209565,47.45963821443864,74.13800191205604,60.12864061741804,55.37897946757141,47.99511553856189,70.14670732559046,12.92176187576672,11.075795893514282,7.383863929009522,3.691931964504761,11.228572709049937,9.412616564933373,9.229829911261902,60.91687741432861,36.91931964504767,52.21180255561388,"{'happy': (['m1', 'm3', 'm12', 'e1', 'e2'], 4.683374424395255, 84)}"
89,43,692,0,23.08973333333299,5.248187023526556,143.391764550186,9.461303708274976,12.44716843566281,41.86231109282806,41.49056145220927,47.30651854137458,73.40429645810393,61.20385213866975,57.52094381569884,48.24337223252155,74.22057266541788,14.844114533083598,9.277571583177291,7.422057266541742,3.711028633270871,7.650481517333673,9.461303708274922,8.349814424859517,61.23197244896977,38.96580064934437,46.72065669955411,"{'happy': (['m1', 'm3', 'm12', 'e1', 'e2'], 4.683374424395255, 84)}"
90,43,693,0,23.123099999999656,7.566423877973191,138.98119937582334,7.353242274745071,13.582146527841164,38.12523371704793,38.12523371704793,43.721157445667394,71.06891148668738,57.56894545470957,52.61098472889228,44.585580278722205,65.98665881250884,12.483962478042145,12.483962478042258,5.350269633446601,3.566846422297772,3.566846422297772,6.430223833649949,5.350269633446658,58.85296596791324,37.45188743412661,52.20893396733321,"{'happy': (['m1', 'm3', 'm12', 'e1', 'e2'], 4.683374424395255, 84)}"
91,43,694,0,23.15646666666632,5.179431237419879,148.7227480889744,9.337352452128773,13.946045410363428,41.31387863519518,40.94699923617821,44.89255405108955,72.44263672990468,58.6271808141714,54.93616426003598,45.7801368833633,71.41701353804672,14.649643802676223,10.987232852007196,7.324821901338055,3.662410950669027,5.790780165828351,7.550253597013651,7.324821901338055,56.76736973537044,40.2865204573597,47.92723383039323,"{'happy': (['m1', 'm3', 'm12', 'e1', 'e2'], 4.683374424395255, 84)}"
92,43,695,0,23.189833333332988,5.135331928041942,147.15436785029283,8.11967271679817,14.971936718237757,40.59836358399087,40.598363583991,44.51032470212837,71.82583729713485,56.86670045482965,52.65280643445226,45.39035037452789,68.9933325692823,13.617105112358333,11.801491097377266,8.170263067415021,4.539035037452777,5.446842044943367,7.262456059924432,7.262456059924432,58.09964847939568,39.94350832958452,51.1281548792533,"{'happy': (['m1', 'm3', 'm12', 'e1', 'e2'], 4.683374424395255, 84)}"
93,43,696,0,23.22319999999965,4.096804075068391,146.68618289742173,7.554133460582559,15.108266921164926,41.33510867873518,40.9680407506846,44.91562307555802,70.22165980911002,55.116861820490605,52.21617469340197,43.97151553128583,67.78941977739908,11.908952123056563,11.90895212305668,8.244659162116022,0.9160732402350504,7.328585921880972,9.342150655678076,9.160732402351186,56.79654089457762,38.47507608987519,53.25845297588999,"{'happy': (['m1', 'm3', 'm12', 'e1', 'e2'], 4.683374424395255, 84)}"
94,43,697,0,23.25656666666632,3.682883722075985,141.98221303557867,7.592459296493463,14.024003401304771,42.98889309499246,42.98889309499248,44.538536736583545,66.5471713495268,52.730870129536,51.560372109062655,44.1946046649108,68.13334885840425,11.969372096746724,8.28648837467074,10.127930235708732,2.762162791556989,9.389547982579092,7.592459296493437,8.28648837467074,57.08469769217652,38.67027908179699,57.557946807096265,"{'happy': (['m1', 'm3', 'm12', 'e1', 'e2'], 4.683374424395255, 84)}"
95,43,698,0,23.289933333332986,1.851653425688255,153.45281023191126,7.63456265614932,15.82053380411038,43.22728447208223,45.05267230749896,42.94878089036151,66.47925772016697,50.84466332155894,49.99464249358232,44.43968221651767,66.6595233247765,12.961573979817672,9.258267128441162,11.109920554129417,3.70330685137651,11.263168076874743,11.263168076874726,12.035747266973544,55.54960277064709,40.736375365141214,55.82665986476756,"{'happy': (['m1', 'm3', 'm12', 'e1', 'e2'], 4.683374424395255, 84)}"
96,43,699,0,23.32329999999965,3.598751000300922,152.4380118983382,7.19750200060173,11.380249892760215,40.23525935384114,40.23525935384103,44.11223261767164,63.28585513130161,51.93310673088258,50.3825140042128,44.98438750376147,64.77751800541648,11.695940750977911,6.297814250526585,9.896565250827509,2.699063250225663,10.79625300090271,10.796253000902766,11.695940750978025,57.58001600481475,41.3856365034606,54.10109037948962,"{'happy': (['m1', 'm3', 'm12', 'e1', 'e2'], 4.683374424395255, 84)}"
97,43,700,0,23.35666666666632,3.975546089632132,159.43872947823192,7.330544783075895,14.66108956615179,46.53257396037832,46.769727311298,39.27549809961667,63.45947933846439,48.81996497322547,47.1148339117342,39.11420173804345,58.67130260706517,9.778550434510862,13.334386956151093,6.222713912870631,2.6668773912302868,10.66750956492092,12.445427825741092,11.556468695331091,51.5596295637846,39.11420173804351,58.698234581220326,"{'happy': (['m1', 'm3', 'm12', 'e1', 'e2'], 4.683374424395255, 84)}"
98,43,701,0,23.390033333332983,4.091870878141459,154.80040214410474,7.545037094905454,16.57081408523635,44.26035079115068,46.07671910556195,40.63126823200921,67.11167230243782,50.61364751089838,48.49341762498318,42.08862661790988,60.388029495262,10.979641726411272,14.639522301881698,7.319761150940849,3.659880575470424,9.14970143867606,9.330901235871442,9.14970143867606,56.72814891979158,43.91856690564509,58.672349002433606,"{'happy': (['m1', 'm3', 'm12', 'e1', 'e2'], 4.683374424395255, 84)}"
99,43,702,0,23.42339999999965,4.090458552556571,152.7226261273563,9.32768063802343,14.74835805140328,44.5090010958431,46.06081554183897,40.28634462827107,66.48725501299155,51.74066280237824,50.30598860464136,43.90340823677786,60.367186325569605,11.89050639746074,13.719815073993118,6.402580367863493,0.9146543382662458,5.784781961350631,7.54243289520201,8.23188904439587,53.04995161943998,43.90340823677792,56.708568972504736,{}
100,43,703,0,23.456766666666315,4.13219612578981,161.4520468289392,9.2398714336274,15.23878635518927,48.36611562460846,46.53080359749514,41.03168799170316,69.26822933336716,54.098638453195285,51.74328002831339,46.199357168136885,60.98315146194068,12.935820007078291,14.783794293803908,5.543922860176394,3.695948573450892,5.543922860176394,7.619393177594594,7.391897146901897,51.743280028313336,44.35138288141138,59.25056299649552,{}
101,43,704,0,23.49013333333298,4.054868663917248,147.59944729958747,9.246523205205945,14.953616766187425,43.67227205295904,43.67227205295915,40.54868663917227,68.6459445420607,53.70213927988134,50.77498704517484,45.33480986176335,59.841949017527554,12.69374676129371,14.507139155764207,3.6267847889411087,3.6267847889411087,7.25356957788216,7.476808383093754,7.253569577882104,52.58837943964551,43.52141746729285,54.431986650016135,{}
102,43,705,0,23.523499999999647,7.611842268479134,159.4537485388835,9.413518785502992,18.55350674756133,44.65224023845745,48.141517516673474,40.78263013145195,76.25263099826131,57.70488787413984,53.53814474564285,46.1535730565887,60.92271643469712,12.923000455844772,22.153715067162693,1.1368683772161605e-13,3.6922858445270776,9.413518785503047,9.413518785502992,8.307643150185925,53.53814474564291,46.1535730565887,51.692001823379314,{}
103,43,706,0,23.55686666666632,20.160728443413845,166.45990992951678,5.771999762626594,16.828126476466835,47.77179833639921,47.597129384698334,40.32145688682781,82.86388681226971,66.11396782284802,55.670631006745566,47.45693135001261,58.408530892323256,12.77686613269566,29.204265446161685,9.126332951925631,5.475799771155266,2.581316767069102,4.081420173160357,4.5631664759628165,49.28219794039774,43.806398169242414,51.14004819015332,{}
104,43,707,0,23.59023333333298,20.057418453938137,161.7794333846548,5.742422198680595,16.443794702098906,43.73298454322763,47.24865543404174,39.99134301737231,82.03829431236564,65.5994768148414,55.38535697413499,47.21374692877089,54.477400302427895,10.895480060485625,30.87052683804245,10.89548006048551,5.447740030242812,9.07956671707126,9.259377573062851,9.079566717071316,50.845573615599335,49.02966027218508,50.87799030592823,{}
105,43,708,0,23.623599999999644,16.538826570283078,162.71438800229865,7.530472512522504,16.538826570283064,47.80166815903615,47.52171454700391,43.98572591452925,84.5096105974439,67.97084259085045,59.35825537341634,51.13942001402029,58.44505144459458,10.958447145861442,29.22252572229729,7.305631430574294,3.652815715287147,7.530472512522504,7.305631430574294,7.305631430574294,49.31301215637666,49.31301215637666,52.99730830705632,{}
106,43,709,0,23.65696666666631,18.540165444751345,160.07806560918212,7.272051183694316,12.855291762814687,43.78354605513656,45.4866656215291,40.16121532968355,78.70126788044647,65.85122421259976,56.35839667363064,49.08634548993632,54.540383877707086,11.817083173503306,26.36118554089171,9.999070377579528,4.54503198980899,5.454038387770709,5.454038387770709,4.545031989808933,49.08634548993638,50.90435828585993,49.086345489936434,{}
107,43,710,0,23.690333333332976,12.570787221094198,154.83005418526588,7.1111111111112,14.332902663641809,42.81455850237268,42.70368764253975,42.99870799092557,76.95950514458086,62.627253169097095,56.000000000000114,48.0,55.111111111111086,8.888888888888914,24.88888888888892,7.111111111111086,1.7777777777777146,2.514157444218867,1.7777777777778283,1.7777777777778283,44.44444444444446,48.0,42.70368764253986,{}
108,43,711,0,23.72369999999964,4.140822249141654,155.65306220652243,5.856006984112354,12.962824044553829,42.75286175955867,42.59213614639134,48.28987067969972,70.7584016107202,57.8827115714348,55.55496019094528,51.85129617821565,57.40679219731021,6.481412022277027,15.740572054101108,0.9259160031823512,0.9259160031824648,14.929946941862214,14.929946941862228,14.814656050918757,42.5921361463914,46.295800159121086,46.332821996432216,{}
109,43,712,0,23.757066666666308,0.0,144.70905196316968,5.633740729245915,13.278854243655411,39.61463029255456,41.356756512511645,47.2846556496653,66.15482005116303,52.88252645803267,52.58158013962839,50.703666563213005,56.33740729245892,6.572697517453435,12.206438246699577,2.8168703646229005,0.9389567882075198,13.145395034907096,11.422902337757334,12.206438246699465,46.94783941038247,52.58158013962839,46.98538267060892,{}
110,43,713,0,23.79043333333297,0.0,151.76366098526884,7.816226201365112,13.40471734687917,41.74875491978547,41.74875491978558,47.73284141823627,68.90076874531731,55.49617738318795,54.975685908029845,53.07997260085642,58.76711252237669,8.530709882280576,12.322136496627309,4.739283267933615,2.843569960760192,15.1657064573875,13.269993150214075,14.217849803800846,53.07997260085642,54.975685908029845,39.809979450642345,{}
111,43,714,0,23.82379999999964,1.9045675710466408,150.65358225975075,7.852733266551618,17.246592877434686,42.07327280767623,41.943749854431225,46.065343970487824,72.99738175038094,55.75538208288995,54.28017577483058,53.3278919893072,60.946162273494,11.427405426280188,15.23654056837347,3.809135142093396,3.809135142093396,13.33197299732683,11.427405426280131,12.379689211803507,51.423324418260506,53.3278919893072,45.749282989549656,{}
112,43,715,0,23.857166666666306,1.8341678147733087,145.1891837391919,9.170839073866432,16.60909597074798,40.51809136055286,42.34505222898963,46.183165516491336,72.11802306963098,55.51199114280801,55.02503444319859,51.35669881365197,60.527537887518406,10.087922981252971,15.590426425573014,4.585419536933159,2.75125172215985,12.839174703412992,11.156807257981882,11.005006888639684,51.35669881365203,49.52253099887872,44.05822281341896,{}
113,43,716,0,23.89053333333297,2.618885938637783,146.48213575788463,9.259160031824194,16.76905202876349,40.78236951430924,42.75286175955868,46.62793849605031,74.64973470931109,57.88271157143469,56.48087619412775,53.703128184580464,61.11045621003984,11.110992038189124,16.666488057283573,3.703664012729746,3.703664012729746,7.407328025459378,7.407328025459378,7.407328025459378,46.295800159121086,49.999464171850775,46.2958001591212,{}
114,43,717,0,23.92389999999964,4.008305798419993,152.53697113852584,7.1702753918988265,14.452152083942687,41.38466550342964,43.17077464376847,43.35645625182816,67.19144900948916,52.75149725567652,51.08821216727927,46.60679004734243,53.77706543924137,7.1702753918988265,16.133119631772388,1.792568847974735,1.792568847974735,10.75541308784824,10.755413087848297,10.755413087848297,50.1919277432919,48.39935889531722,44.850058247237385,{}
115,43,718,0,23.957266666666303,1.8003229618994965,156.88655153862538,7.201291847598213,16.302617793032585,43.35751843616944,45.15187017757695,43.54400324704295,67.21741513474727,50.92082298740051,50.40904293318704,45.00807404748844,54.00968885698603,6.301130366648408,17.103068138045614,2.7004844428493016,0.9001614809498051,14.514667749014306,12.60226073329676,11.702099252346954,48.60871997128743,46.80839700938793,48.6420478599964,{}
116,43,719,0,23.99063333333297,3.538126256694796,148.86432345282063,7.076252513389591,16.019547960863797,40.84199382568995,42.604681951698495,42.604681951698375,66.05028831728944,50.03666137606095,49.53376759372679,44.2265782086846,53.07189385042159,6.191720949215892,16.806099719300164,2.6535946925210965,0.8845315641736988,5.307189385042136,5.307189385042193,4.422657820868494,45.995641337032055,45.995641337032055,49.659968480030905,{}
117,43,720,0,24.023999999999635,3.6333246253495872,160.37126126889714,7.2666492506991744,16.74879895559377,43.75102211160214,43.751022111602246,43.93919941921296,68.40885510560292,51.671190466825706,50.86654475489422,43.59989550419505,56.3165316929186,6.3583180943618345,17.258291970410482,2.724993469012248,0.90833115633734,5.744790647441324,7.2666492506991744,6.358318094361778,47.23322012954469,47.23322012954469,49.04988244221943,{}
118,43,721,0,24.0573666666663,2.569996787104447,142.1651978028568,9.086310778946086,18.26325863665153,41.95475478353214,41.95475478353214,45.7574918999669,75.05974695750947,56.80216177908871,55.42649575157077,49.06607820630859,59.96965114104376,9.086310778946086,19.98988371368125,1.8172621557891944,1.8172621557891944,7.49276381775656,9.086310778946029,9.086310778946029,49.06607820630853,47.24881605051934,54.54814396769272,{}
119,43,722,0,24.090733333332967,9.26138196363194,149.33529699248945,7.265225746984015,18.253653779138617,45.55273368736231,47.36347716407828,43.93059192881988,78.62740006662506,60.37682357281028,55.39734632075295,49.04027379214199,59.9381124126179,10.897838620476024,23.61198367769793,0.0,3.632612873492008,7.265225746984015,7.488823287193016,7.265225746984015,45.40766091864998,43.59135448190398,43.59135448190398,{}
120,43,723,0,24.12409999999964,5.208163358038004,147.72283099184395,7.365455255991719,16.674258515181048,42.511184771799385,44.34591304044402,46.18116951171957,74.2277483842077,57.555507290827975,55.24091441993846,49.71682297794462,60.76500586193231,9.206819069989706,18.413638139979525,1.8413638139979869,1.8413638139979869,9.3891500191992,11.048182883987693,11.968864790986686,47.87545916394663,49.71682297794462,57.11196992813348,{}
121,43,724,0,24.1574666666663,2.545551320319463,144.2791002608206,8.999883002281535,16.299481356766968,43.2369216617434,45.14318347677346,45.32225273779508,72.55937646892403,56.26186718959665,54.89928631391695,50.39934481277612,59.39922781505754,9.89987130250961,17.09977770433477,2.6999649006844493,2.6999649006844493,10.948830220669086,10.79985960273774,11.699847902965873,48.5993682123198,44.99941501140722,59.39922781505766,{}
122,43,725,0,24.190833333332964,4.024870036529231,147.8722133432159,7.19990640182516,16.299481356766968,41.43857326164596,43.3491769480149,48.73251741584254,74.3457886520578,58.04750117513923,56.69926291437309,52.19932141323238,61.199204415513805,8.099894702053348,17.09977770433477,2.6999649006844493,2.6999649006844493,10.948830220669103,12.59983620319406,11.699847902965928,48.59936821231986,44.99941501140728,55.799274614144906,{}
123,43,726,0,24.22419999999963,1.7922629227488187,145.35020257735886,9.138783616585064,16.52384769544056,39.4704965305251,41.37760267113939,48.52367751585535,74.2654587394082,57.79874254367992,57.35241352796265,55.56015060521384,62.72920229620922,10.753577536493026,14.33810338199055,5.37678876824657,3.584525845497751,9.13878361658512,10.901909750939415,10.753577536492967,44.80657306872081,44.80657306872081,53.7977504382705,"{'others': (['m1', 'm3', 'm12', 'e1', 'e2'], 4.654321966969562, 162)}"
124,43,727,0,24.257566666666296,10.81113096828565,140.58964812854524,8.886694914058694,16.094489010385878,37.366412271469976,39.14183084647185,48.28346703115752,84.00629882837985,67.91202717737539,62.20686439841131,56.87484744997607,63.9842033812231,12.441372879682149,23.10540677655285,3.5546779656235685,5.332016948435239,7.109355931247023,9.062686155626272,8.88669491405875,47.98815253591727,49.76549151872899,53.34978357687966,"{'others': (['m1', 'm3', 'm12', 'e1', 'e2'], 4.654321966969562, 162)}"
125,43,728,0,24.29093333333296,12.79621697376516,146.68282921164732,9.227483286174616,19.988329894436053,39.976659788872105,41.661464084937656,45.38600074916387,87.33359493661105,67.3475001530049,60.62355503108097,57.90906749237581,63.338042569786126,15.382096052662405,26.24004620748281,2.714487538705157,6.333804256978624,5.428975077410257,5.7226422016350575,6.333804256978567,50.67043405582888,52.48009241496561,56.21604004735412,"{'others': (['m1', 'm3', 'm12', 'e1', 'e2'], 4.654321966969562, 162)}"
126,43,729,0,24.324299999999628,16.691245263409545,153.08879604548636,7.372958746111522,18.524329589519,42.43456429911152,42.43456429911151,48.242199278889565,90.7877411706618,72.26345907193166,63.59176918521166,58.983669968891945,64.51338902847556,13.824297648959032,28.570215141182075,8.29457858937542,6.45133890284751,5.52971905958367,7.599871920884843,7.372958746111522,49.76747153625263,53.45395090930839,59.098760166073966,"{'others': (['m1', 'm3', 'm12', 'e1', 'e2'], 4.654321966969562, 162)}"
127,43,730,0,24.357666666666294,16.53796461189451,153.50807130236467,7.305250681053167,14.724203476646151,40.34456554664323,43.86953576730216,45.80368874726091,84.32740427115674,69.61581939313035,61.18147445382101,56.615692778162725,62.0946307889526,13.697345026974745,24.65522104855472,6.392094345921692,6.392094345921578,9.31240394359438,10.957876021579864,10.957876021579864,51.13675476737279,54.789380107899376,60.3789022816231,"{'others': (['m1', 'm3', 'm12', 'e1', 'e2'], 4.654321966969562, 162)}"
128,43,731,0,24.39103333333296,14.65804475963709,156.39945129250924,7.272426765433238,16.463656312474278,41.85595929871635,43.67242138982464,45.59788384334107,83.94850480239145,67.49070643370894,59.997520814824384,58.17941412346613,61.81562750618275,14.544853530866476,23.6353869876582,5.454320074074985,7.272426765433238,11.05911125827886,11.059111258278842,10.908640148149914,47.270773975316274,52.7250940493912,60.025061564870114,"{'others': (['m1', 'm3', 'm12', 'e1', 'e2'], 4.654321966969562, 162)}"
129,43,732,0,24.424399999999626,9.228900116196687,157.47485293450575,9.049681111824157,18.099362223648427,41.66786097683683,45.28458981565044,47.19736229641695,83.43393733478679,65.38355460956461,60.63286344922199,59.727895338039616,61.53783156040447,13.574521667736237,22.624202779560505,2.714904333547338,6.334776778276932,10.85961733418901,12.7981817634934,12.669553556553865,47.05834178148575,52.48815044858026,58.03096987506832,"{'others': (['m1', 'm3', 'm12', 'e1', 'e2'], 4.654321966969562, 162)}"
130,43,733,0,24.45776666666629,9.312889305903733,155.3413299873914,7.305631430574408,16.538826570283064,42.16589970690014,42.04706649821095,45.80607603461284,78.87460275964644,62.339128938159526,57.53184751577282,56.618643586951066,62.09786715988173,13.69805893232683,19.177282505257608,0.913203928821872,6.392427501752422,10.958447145861498,10.958447145861442,11.871651074683257,45.66019644108951,51.13942001402023,56.73635399174,"{'others': (['m1', 'm3', 'm12', 'e1', 'e2'], 4.654321966969562, 162)}"
131,43,734,0,24.49113333333296,2.582930762704331,146.1582816757505,7.305631430574294,14.724970901840262,38.52811596478196,40.34666830460177,45.80607603461284,69.78694625210956,55.06551540826758,53.87903180048556,56.61864358695095,60.2714593022381,12.784855003505072,10.958447145861442,7.305631430574408,5.479223572930778,11.10960528151664,10.958447145861442,11.8716510746832,47.48660429873309,52.965827871663805,60.52000245690266,"{'others': (['m1', 'm3', 'm12', 'e1', 'e2'], 4.654321966969562, 162)}"
132,43,735,0,24.524499999999623,1.8348623853211168,156.06041229332047,5.504587155963236,12.974436352046723,44.07490697051128,44.036697247706456,45.87155963302757,64.3249473136077,51.40890174723632,51.37614678899081,53.211009174311926,58.71559633027528,10.09174311926597,8.256880733944968,6.422018348623737,6.422018348623737,11.16103216568479,11.009174311926586,11.009174311926586,45.87155963302752,51.37614678899081,53.33740129816012,"{'others': (['m1', 'm3', 'm12', 'e1', 'e2'], 4.654321966969562, 162)}"
133,43,736,0,24.55786666666629,3.686283686550041,145.7131568877529,7.599468502818431,13.032980960684286,40.71633412971283,40.590988524537366,46.11539418539025,70.25731780027269,57.25618603719685,55.29425529825016,57.137397141525184,62.666822671350246,13.823563824562484,10.137280138012557,4.607854608187495,6.450996451462515,11.211394142297976,11.05885105965001,11.05885105965001,46.07854608187512,53.45111345497514,55.41699519466741,"{'others': (['m1', 'm3', 'm12', 'e1', 'e2'], 4.654321966969562, 162)}"
134,43,737,0,24.591233333332955,9.355605394499776,150.49712829591,7.339140687388976,14.792510968188614,42.2399267544366,44.0730522392221,46.01617800596203,77.40967120301109,62.62506423356016,57.795732913187976,58.713125499111584,62.38269584280613,14.67828137477784,16.51306654662517,1.834785171847216,9.173925859236078,9.355605394499776,11.008711031083408,11.008711031083408,45.86962929618096,53.20876998356988,53.33515678866767,"{'others': (['m1', 'm3', 'm12', 'e1', 'e2'], 4.654321966969562, 162)}"
135,43,738,0,24.62459999999962,1.8599622199011487,152.61893899690338,7.668820692310519,13.151918984428518,44.79382196783929,42.81954592839017,46.499055497527706,68.91906730243689,55.82985736120924,54.86888548708271,57.65882881693426,63.2387154766376,13.94971664925822,8.369829989555,6.509867769653852,6.509867769653852,11.159773319406668,11.15977331940661,12.089754429357184,46.499055497527706,53.93890437713213,57.77870177131333,"{'others': (['m1', 'm3', 'm12', 'e1', 'e2'], 4.654321966969562, 162)}"
136,43,739,0,24.657966666666287,1.817881366751408,145.4759492754076,9.089406833757494,14.543050934011944,41.8507719367112,41.8507719367112,43.62915280203583,67.28617204974378,52.74989310639671,52.718559635793326,56.35432236929637,59.9900851027993,14.543050934011944,9.089406833757494,7.271525467005972,7.271525467005972,11.057740662203305,12.72516956726048,12.72516956726048,45.44703416878741,54.536441002544905,58.42728405018074,"{'others': (['m1', 'm3', 'm12', 'e1', 'e2'], 4.654321966969562, 162)}"
137,43,740,0,24.69133333333296,3.6175401120829065,146.55502872343334,7.23508022416604,14.582770399210949,41.64101381192757,41.64101381192757,45.36372222087544,70.75042859882542,56.188445401036105,54.26310168124485,56.0718717372863,59.68941184936932,12.6613903922904,12.661390392290514,5.42631016812436,7.235080224165927,10.852620336248949,11.002318722814588,11.757005364269672,41.60171128895439,52.45433162520334,57.99357973836456,"{'others': (['m1', 'm3', 'm12', 'e1', 'e2'], 4.654321966969562, 162)}"
138,43,741,0,24.72469999999962,5.772901379319356,149.79538915730683,9.127758533088354,12.908599911560264,43.96510706742469,43.85125679327233,45.67528910683222,73.22715483314438,60.35374440458029,57.50487875845658,58.41765461176533,63.89430973161837,15.517189506250132,11.866086093014928,4.563879266544063,6.38943097316178,9.308523775116102,11.104397518135931,10.953310239706012,41.9876892522064,52.94099949191241,51.24567843657967,"{'others': (['m1', 'm3', 'm12', 'e1', 'e2'], 4.654321966969562, 162)}"
139,43,742,0,24.758066666666284,9.104575487588995,151.81411054511958,7.362028388333909,12.498879096898577,39.32275128416547,41.1065436718924,43.00183850691269,71.5113882468989,59.03140338525895,54.45940177934381,57.13773301439346,60.70884132779304,16.069987410298154,12.498879096898577,1.7855541566998454,8.927770783499,12.625774523782544,12.498879096898577,12.498879096898577,44.63885391749494,53.56662470099389,53.833791568825056,"{'others': (['m1', 'm3', 'm12', 'e1', 'e2'], 4.654321966969562, 162)}"
140,43,743,0,24.79143333333295,11.24187754893376,151.12905515283288,7.109987646268337,10.664981469402504,41.03670283107628,42.65992587760991,42.69694100464121,71.29956444778966,60.66969581499944,55.10240425857967,56.879901170146695,60.434894993280864,15.9974722041037,12.442478380969646,1.7774969115670274,8.887484557835364,12.56880119707231,12.568801197072291,12.44247838096959,42.659925877609965,53.32490734701247,51.82249492291874,"{'others': (['m1', 'm3', 'm12', 'e1', 'e2'], 4.654321966969562, 162)}"
141,43,744,0,24.824799999999616,10.955931781474575,149.53835422264478,9.005720449305045,14.40915271888798,41.46545088617549,41.42631406680289,41.582640335735725,75.84078597640092,61.4768235825014,55.83546678569087,57.63661087555192,61.23889905527392,18.01144089861009,16.21029680874892,1.8011440898610545,10.8068645391661,10.955931781474558,12.736011998347845,11.707436584096511,41.42631406680295,54.03432269582993,56.298359405004405,"{'others': (['m1', 'm3', 'm12', 'e1', 'e2'], 4.654321966969562, 162)}"
142,43,745,0,24.85816666666628,7.291752478092637,150.33373095373662,8.842548724422272,12.379568214191067,40.71415184439128,40.71415184439139,40.71415184439128,69.06251330910729,56.70273596439825,53.05529234653318,56.59231183630209,58.36082158118654,16.800842576402147,11.495313341748895,2.652764617326625,9.726803596864327,10.757424810650368,12.505252332022833,12.379568214191124,40.67572413234217,53.05529234653329,53.52481736036223,"{'others': (['m1', 'm3', 'm12', 'e1', 'e2'], 4.654321966969562, 162)}"
143,43,746,0,24.891533333332948,4.043830018670572,144.67646097922557,10.850734573441857,18.084557622403167,39.78602676928711,39.78602676928699,43.55338220515741,76.14865861311614,58.12434212988181,56.06212862944983,57.87058439169016,57.87058439169016,14.467646097922511,18.084557622403167,1.808455762240328,5.425367286720984,12.787713329560114,12.787713329560171,13.563418216802404,43.40293829376765,56.06212862944989,52.72509276789549,"{'others': (['m1', 'm3', 'm12', 'e1', 'e2'], 4.654321966969562, 162)}"
144,43,747,0,24.924899999999614,0.0,145.3158664115101,7.488823287193016,14.530451493967917,38.185656075245134,39.95874160841197,47.258883417360494,69.01964459634792,54.48919310238,54.48919310238,58.12180597587189,56.30549953912589,9.989685402102964,11.805991838848968,4.540766091864953,4.540766091864953,12.843225981358744,12.71414505722197,13.622298275594972,39.95874160841197,56.305499539126,54.97140775078528,"{'others': (['m1', 'm3', 'm12', 'e1', 'e2'], 4.654321966969562, 162)}"
145,43,748,0,24.95826666666628,2.5803498207727014,146.0122359344988,7.298331424407365,14.596662848814615,38.31623997813847,40.14082283424034,47.43915425864759,71.18211963228022,56.59148964311732,55.64977711110589,58.38665139525858,54.73748568305496,9.12291428050912,14.59666284881473,3.649165712203626,3.649165712203626,12.90174910386328,12.901749103863226,13.684371420763682,41.965405690342095,56.56206853915677,53.41386455926106,"{'others': (['m1', 'm3', 'm12', 'e1', 'e2'], 4.654321966969562, 162)}"
146,43,749,0,24.991633333332945,5.692025792448661,135.04623588004424,8.999883002281535,16.199789404106696,37.79950860958206,39.59948521003844,46.93764713201248,77.58713479791199,61.436974721673565,58.49923951482947,61.199204415513805,57.59925121460128,12.59983620319406,17.999766004562957,0.0,5.3999298013688986,12.727756601597484,10.948830220669103,11.699847902965873,43.19943841095096,55.79927461414496,54.26862286654112,"{'others': (['m1', 'm3', 'm12', 'e1', 'e2'], 4.654321966969562, 162)}"
147,43,750,0,25.02499999999961,14.715769711042723,147.89165526503783,7.301066361540393,20.077932494236165,38.33059839808709,41.981131578857344,45.6316647596276,87.63180746951883,67.55952510628828,60.23379748270838,65.70959725386376,62.05906407309351,18.25266590385104,23.728465675006305,1.8252665903851264,10.951599542310646,12.906583835345543,12.906583835345543,13.68949942788828,41.981131578857344,56.583264301938186,53.21520841901908,"{'others': (['m1', 'm3', 'm12', 'e1', 'e2'], 4.654321966969562, 162)}"
148,43,751,0,25.05836666666628,25.506489827966,150.84370589564026,9.086310778946086,19.98988371368125,45.43155389473009,49.06607820630848,47.28375048490413,101.83156226137253,81.85752437174177,69.05596191998973,69.05596191998973,67.23869976420053,20.89851479157585,33.61934988210032,9.994941856840684,13.629466168418958,12.84998393552229,14.538097246313612,13.629466168419016,45.43155389473009,56.335126829465366,56.45224780168992,"{'others': (['m1', 'm3', 'm12', 'e1', 'e2'], 4.654321966969562, 162)}"
149,43,752,0,25.091733333332943,14.264456602995534,148.6307305638011,8.846440444059226,19.462168976930343,40.69362604267235,40.69362604267224,44.37351952034012,86.85745001046035,67.4421428765445,60.15579501960258,65.46365928603814,63.694371197226246,20.34681302133617,22.116101110148065,2.6539321332177224,11.500372577276949,10.762159291927638,10.76215929192762,10.61572853287106,40.69362604267235,51.30935457554341,51.58316866992309,"{'others': (['m1', 'm3', 'm12', 'e1', 'e2'], 4.654321966969562, 162)}"
150,43,753,0,25.12509999999961,10.85937096384143,148.17737590598583,7.141078356915045,16.16630370587067,39.316484335697126,41.09999243672972,44.77433351168402,78.63296867139412,62.7135502318408,57.12862685531991,62.48443562300611,62.48443562300611,17.852695892287443,16.06742630305871,1.785269589228733,10.711617535372396,12.623762327897648,10.711617535372454,11.60425232998682,42.84647014148993,53.55808767686239,52.0491054706152,"{'others': (['m1', 'm3', 'm12', 'e1', 'e2'], 4.654321966969562, 162)}"
151,43,754,0,25.158466666666275,7.393846856609113,148.8847203948002,7.173085075162362,16.13944141911543,41.40088214723738,43.07585406793593,44.97501461414498,75.50928504807925,59.42198569662516,55.59140933250888,60.971223138880646,64.55776567646183,17.93271268790602,12.552898881534247,7.173085075162476,10.759627612743657,10.908043280459864,12.680342746688362,11.656263247138895,44.83178171976516,53.79813806371817,55.851116266067336,"{'others': (['m1', 'm3', 'm12', 'e1', 'e2'], 4.654321966969562, 162)}"
152,43,755,0,25.19183333333294,3.586146132996987,143.49066514454188,7.172292265994201,16.236967197965342,43.1829178338545,43.0710930855025,44.86267379067306,71.81252034966572,55.61417807514527,53.792191994956056,57.37833812795316,60.96448426095026,14.34458453198829,12.55151146548974,7.172292265994088,7.172292265994088,10.906837662984254,8.965365332492695,10.758438398991244,41.24068052946637,51.99911892845762,52.12263244909153,"{'others': (['m1', 'm3', 'm12', 'e1', 'e2'], 4.654321966969562, 162)}"
153,43,756,0,25.225199999999607,3.737297802238686,147.63508960648463,9.528277210860956,16.92133548759251,43.01952834814471,43.01952834814471,46.7535805687613,76.81942677120102,59.91344156107808,57.92811593469844,61.665413736937126,63.53406263805641,15.883515659514046,14.01486675839476,4.671622252798215,8.408920055036901,11.366547518011524,11.21189340671583,13.080542307835117,44.84757362686338,56.05946703357921,56.33906710737985,{}
154,43,757,0,25.258566666666272,9.83335493801015,146.18333052524383,9.13004085314401,12.782057194401546,40.3378389298573,42.037865012125,43.97610017654818,75.22178546888972,62.51245030828689,57.5192573748069,58.43226146012137,63.91028597200773,17.34707762097355,13.6950612797159,2.73901225594318,8.21703676782954,10.95604902377272,11.10717408031917,10.95604902377272,45.650204265719765,54.78024511886372,54.90184403678628,{}
155,43,758,0,25.29193333333294,9.270082722375673,147.3600025676976,9.090063979617868,12.855291762814687,40.16121532968367,41.85379766347582,43.78354605513656,74.89241872755008,62.05258788282114,57.267403071592526,58.17640946955419,63.63044785732495,17.271121561273958,13.635095969426745,2.72701919388544,8.181057581656091,9.270082722375673,11.05854011464659,11.817083173503192,45.45031989808922,54.540383877707086,54.81240742991421,{}
156,43,759,0,25.325299999999604,5.775307757656067,144.38269394140335,9.31240394359438,12.913980737101088,40.34456554664313,40.2203644344342,43.98343349884483,71.80916502053508,58.896813906584825,55.702536443031136,56.615692778162725,62.09463078895271,15.52365769723815,11.871032356711568,4.565781675658286,6.392094345921578,11.109026279286567,11.109026279286567,11.87103235671151,45.6578167565828,52.96306743763608,51.429431747439104,{}
157,43,760,0,25.35866666666627,2.594859970031504,148.80339828578934,11.009058486232448,14.792977847016568,42.36064196131905,42.36064196131905,44.18887299514154,71.93427358317435,57.14586300052439,55.962713971681865,55.04529243116247,62.38466475531743,14.67874464830993,12.843901567271246,5.504529243116167,3.6696861620774825,11.009058486232448,12.974299850157184,13.761323107790645,45.8710770259687,53.21044935012373,56.99838955983338,{}
158,43,761,0,25.392033333332936,2.5946415980237507,146.8782584783201,11.15997548879968,14.79173293503295,40.529597400117495,42.237705085405686,42.35707707591481,70.31909561991174,55.52775504344973,54.12331572698258,55.04066006133826,60.54472606747208,15.594853684045916,11.925476346623212,6.421410340489501,4.586721671778264,11.15997548879968,12.842820680978887,12.842820680978887,45.8672167177819,53.20597139262702,56.99359282594094,{}
159,43,762,0,25.4253999999996,4.121084214430836,149.46531033566745,9.215024444468554,13.032012546967088,42.5490719278237,40.71330870854445,44.57634133690642,70.63783584662082,57.60680236755866,55.29014666681155,55.29014666681155,62.66216622238642,14.744039111149732,11.058029333362356,5.529014666681178,5.529014666681178,11.0580293333623,11.0580293333623,11.979531777809145,46.075122222343,51.60413688902412,53.478908284007886,{}
160,43,763,0,25.458766666666268,2.594887270409371,148.8049638380947,9.355999107509664,12.97443635204674,40.53343492545783,40.408652377147234,46.01811451003463,70.32575374949276,57.352292139771606,55.96330275229343,55.04587155963293,62.3853211009174,12.844036697247702,11.009174311926586,5.504587155963236,3.669724770642233,11.16103216568479,11.009174311926586,11.926605504587144,45.87155963302752,51.37614678899087,55.16806010412078,{}
161,43,764,0,25.492133333332934,1.851851851851848,150.10284540118107,11.1111111111112,13.094570021973071,42.75331992820445,42.63283123415312,44.59849843997137,68.91775579973476,55.8326423395605,55.55555555555554,55.55555555555554,61.111111111111086,13.888888888889028,10.185185185185103,6.481481481481524,4.629629629629676,9.442628728875508,11.26437505610779,12.03703703703701,44.44444444444446,51.85185185185185,57.52675765558912,{}
162,43,765,0,25.5254999999996,2.5708724836452594,147.3493495056413,9.089406833757494,14.656228134579898,40.15831196437614,41.8507719367112,45.59223273095172,71.26929650225256,56.61759341118994,55.445381685920665,56.35432236929637,61.80796646955093,13.63411025063624,11.81622888388472,4.544703416878747,4.544703416878747,10.907288200508958,10.907288200509017,10.907288200509017,47.26491553553888,50.90067826904192,58.2857105829772,{}
163,43,766,0,25.558866666666265,4.083759278877879,153.45374177622406,9.31240394359438,14.61050136210656,42.163702135578376,43.86953576730216,43.983433498844846,71.5998423128177,57.08505370291191,54.78938010789943,56.615692778162725,60.26831811868942,14.610501362106447,12.78418869184327,3.652625340526584,5.478938010789875,11.109026279286551,12.784188691843156,12.784188691843156,45.6578167565828,52.96306743763608,56.73339704820743,{}
164,43,767,0,25.59223333333293,7.565013063843259,159.6684833490548,9.173925859236192,14.678281374777953,42.2399267544366,44.03484412433375,44.18747835712841,75.4273020818295,60.7975938361042,56.87834032726437,55.04355515541715,58.7131254991117,12.843496202930623,18.34785171847249,1.1368683772161605e-13,5.504355515541647,9.355605394499776,11.008711031083465,11.008711031083465,44.03484412433375,53.20876998356994,57.14405942900447,{}
165,43,768,0,25.6255999999996,4.065410152224435,158.26929421124228,10.908640148149855,16.362960222224842,41.85595929871635,43.63456059259954,45.48901488455592,76.44700852207508,60.10760810155355,58.179414123466245,56.36130743210788,61.815627506182864,13.63580018518735,17.27201356790397,0.9090533456791264,4.545266728395745,10.908640148149914,12.726746839508223,12.726746839508223,45.45266728395791,52.7250940493912,58.29293503945755,{}
166,43,769,0,25.658966666666263,5.571808874576881,155.09257862210316,8.80980336540108,12.333724711561558,40.56338088898776,42.3237477496821,42.43363217801612,68.91946954690246,56.62997520859604,53.73980052894683,52.85882019240671,56.38274153856719,12.333724711561558,14.095685384641795,0.0,5.2858820192407165,10.717588362071432,12.458943401190448,11.452744375021496,44.04901682700557,51.09685951932647,46.34994871765313,{}
167,43,770,0,25.69233333333293,3.992342047858084,155.37341776520054,12.498007491818043,12.498007491818155,42.88749172109365,44.671435363019285,41.2198441274155,69.83746328648664,57.38427530777067,55.34831889233715,51.7774596089605,55.34831889233715,12.498007491818043,16.068866775194692,0.0,1.7854296416883244,12.498007491818043,12.624894069692596,12.498007491818043,44.63574104220737,53.56288925064882,53.830037487689374,{}
168,43,771,0,25.725699999999595,2.525154904756496,150.0290563335847,10.713324940198843,14.39559783485966,42.89048267430753,41.06774560409531,42.85329976079515,69.72811886839192,55.38097063017788,54.45940177934392,51.78107054429415,55.35217885769373,10.713324940198731,16.069987410298268,1.7855541566997315,1.7855541566997315,10.861101920191755,10.861101920191777,10.713324940198788,44.63885391749494,55.35217885769373,55.46725627683551,{}
169,43,772,0,25.75906666666626,1.7928389121334476,157.78001052364183,12.549872384934474,16.234846840008025,41.27425133634519,43.02813389120354,41.27425133634507,71.80314247465358,55.606915514127344,54.68158682007129,51.992328451871,53.785167364004565,11.65345292886775,18.82480857740154,0.8964194560667238,0.8964194560668375,10.90541335758618,10.9054133575862,11.653452928867637,43.02813389120365,55.57800627613807,56.03876447128537,{}
170,43,773,0,25.792433333332927,2.594450567735377,150.47813292865146,9.354424553626565,14.79064389483192,42.234595337613015,44.06748944993178,42.19473256767617,68.10123870138501,53.32842495994468,52.28477731212058,51.36750051717104,55.036607696968986,11.007321539393844,14.67642871919179,1.834553589898973,3.669107179797948,11.159153836461508,12.972252838676832,12.841875129292816,44.02928615757526,55.03660769696904,55.31110619629629,{}
171,43,774,0,25.825799999999592,2.5346425326899027,155.92687427914836,8.961314613744094,14.338103381990663,44.842404000531424,44.80657306872092,43.051632764834,68.20025545706378,53.88723941130417,52.87175622109055,53.767887682465016,53.767887682465016,10.753577536493026,14.338103381990663,1.7922629227489324,3.584525845497751,9.13878361658512,10.901909750939344,10.753577536492967,39.429784300474296,50.18336183696732,50.4705821515696,{}
172,43,775,0,25.85916666666626,5.7481114045081805,158.15142753705473,7.27084971305419,14.541699426108266,43.66295086529724,43.66295086529724,43.625098278324685,70.91408487865131,56.378395595590376,53.62251663377424,54.53137284790592,52.71366041964234,9.99741835544944,17.26826806850363,0.908856214131788,2.72656864239525,11.05671304949879,12.853167842722122,12.723986997844747,39.9896734217977,54.53137284790597,56.81623594546591,{}
173,43,776,0,25.892533333332924,2.582069588407105,158.8445056448627,9.309784297817906,14.606391323665548,42.0330475963236,43.81917397099664,41.99337505553842,67.55455987195319,52.94816854828764,52.03526909055847,51.12236963282942,51.12236963282942,9.128994577290996,16.43219023912377,0.0,1.825798915458222,11.105901230808232,11.105901230808232,11.867692950478272,41.99337505553848,54.773967463745805,53.44946416469383,{}
174,43,777,0,25.92589999999959,4.02564452426114,162.03906805651258,9.00161480949771,16.20290665709581,45.04406611565329,45.00807404748832,41.407428123689215,70.23567278521085,54.03968590948308,52.209365895086535,52.20936589508642,50.409042933186925,9.9017762904474,18.903391099945225,0.9001614809498051,2.700484442849188,10.95093705507801,10.95093705507801,11.702099252346954,39.607105161789775,54.00968885698603,54.27906553481485,{}
175,43,778,0,25.959266666666256,3.97330953946108,159.9324955281551,9.060539786411104,14.2153443614136,44.42295112941747,44.45847528633756,40.90772545394735,67.54626217083938,53.33714843414855,51.53062331012427,51.53062331012427,49.7537052649476,9.773049248471809,16.880721429178607,0.8884590225883358,2.665377067765008,9.060539786411104,10.808570504611604,11.549967293648535,35.538360903534,51.53062331012427,50.258831974287546,{}
176,43,779,0,25.99263333333292,4.025644524261191,162.03906805651258,7.2012918475981,14.4025836951962,45.04406611565317,45.00807404748844,43.24524154911549,68.50696086400737,54.12957732605172,52.209365895086535,54.00968885698603,52.20936589508642,9.9017762904474,15.302745176146004,2.7004844428493016,4.500807404748798,10.95093705507799,10.95093705507799,10.801937771397206,39.607105161789775,54.00968885698603,50.69755491484936,{}
177,43,780,0,26.025999999999588,3.954508008432349,157.43710407073206,7.074038979537818,12.37956821419118,44.212743622111134,44.212743622111134,42.444233877226566,65.45875497837696,53.08475932594828,51.28678260164884,53.05529234653318,49.51827285676438,8.842548724422272,14.148077959075522,0.0,3.537019489768909,10.611058469306611,12.505252332022833,12.379568214191124,38.90721438745777,53.05529234653329,49.801686589680166,{}
178,43,781,0,26.059366666666254,3.98900549636475,158.8105200775255,7.135749961993383,12.487562433488506,42.81449977196053,42.81449977196053,42.85164901953265,66.00568714843916,53.51812471495066,51.734187224452285,53.51812471495066,49.95024973395391,8.919687452491758,14.27149992398688,0.0,3.567874980996635,9.09633207508084,10.851268123597634,10.703624942990132,35.67874980996709,49.95024973395391,53.785049686089,{}
179,43,782,0,26.09273333333292,4.022061177896082,158.37935209400467,7.194881762750924,14.501747809957411,44.96801101719291,44.9680110171928,41.409654292040806,66.57695890121808,52.2867953126494,50.364172339256015,53.96161322063142,48.56545189856831,9.892962423782478,15.289123745845473,0.8993602203438513,4.49680110171937,10.941189299096717,10.941189299096733,10.792322644126273,37.77312925444198,53.96161322063142,54.23075011823774,{}
180,43,783,0,26.126099999999585,4.062892818197749,165.43508869186525,7.491604192517951,12.718866337500003,45.424522633928746,43.60754172857162,41.79056082321438,65.41131259285737,52.69244625535737,50.87546535000024,52.69244625535737,47.24150353928587,8.176414074107242,15.44433769553575,0.9084904526785068,2.7254713580357475,11.0522633693738,9.264821092241588,9.993394979464313,39.97357991785725,54.509427160714495,49.36038565995187,{}
181,43,784,0,26.15946666666625,4.042177857293151,162.78488114035278,7.230867572841362,14.461735145682836,43.38520543704874,45.19292233025908,41.616768182777136,66.88552504878339,52.42378990310056,50.616073009890215,54.231506796310896,48.80835611667976,9.94244291265693,15.365593592288064,0.9038584466051134,4.519292233025908,11.433005494616204,10.99591258340708,10.846301359262156,36.15433786420721,52.42378990310044,52.92012087722765,{}
182,43,785,0,26.19283333333292,4.042177857293151,159.17149982827775,7.453407691919635,10.846301359262156,45.22906221794597,45.22906221794586,41.5774885438384,63.27009126236271,52.42378990310056,50.616073009890215,54.231506796310896,48.80835611667976,9.94244291265693,11.750159805867384,0.9038584466051134,6.327009126236248,11.43300549461624,10.99591258340708,11.750159805867328,37.9620547574176,54.23150679631084,45.767736175222815,{}
183,43,786,0,26.226199999999583,2.535457104689347,163.2369737978783,7.392064204443774,14.45432941079937,44.8209728033371,46.61381171547055,41.23529497907021,64.56709657575904,50.19948953973756,49.30307008367083,51.99232845187112,46.61381171547066,8.067775104600742,15.239130753134532,0.8964194560668375,4.482097280333846,13.052064294109943,10.905413357586124,11.65345292886758,39.44245606693664,55.57800627613801,52.48457449274972,{}
184,43,787,0,26.25956666666625,2.5686451962717487,163.5583694165039,7.488823287193016,14.643530642939998,45.40766091864998,45.44397252854616,41.77504804515797,65.41225333680185,50.85658022888799,49.94842701051493,52.672886665634,47.22396735539599,8.17337896535696,15.438604712341087,0.908153218372945,4.540766091864953,11.04816073697801,10.897838620476024,10.897838620476024,38.142435171665966,56.30549953912595,54.97140775078527,{}
185,43,788,0,26.292933333332915,3.610459760115077,162.63107491965732,5.415689640172673,12.636609160402712,43.36310976803802,43.36310976803802,43.47569267434933,65.08848896547151,52.47601744869177,50.54643664161108,54.15689640172605,46.93597688149589,7.220919520230154,14.441839040460309,0.0,3.610459760115077,9.20490238493414,10.980784672988754,10.831379280345232,36.10459760115072,55.96212628178358,49.27318657535898,{}
186,43,789,0,26.32629999999958,3.622877797385968,154.2384644205549,7.468753913663687,14.604287296556908,41.702455183837344,41.702455183837344,39.85165577124553,65.31235831607562,50.75262597839601,48.90885026471051,54.34316696078941,45.28597246732443,9.962913942811385,15.397230638890392,0.9057194493465204,4.528597246732488,8.101001029129684,9.23656229211656,9.962913942811385,38.04021687255255,61.58892255556134,49.74041019441158,{}
187,43,790,0,26.359666666666246,5.395452201588682,149.804114741331,7.415339775040606,14.4998421059445,41.52122894373452,41.52122894373452,41.40421256560907,68.5550421031165,54.074288027885416,51.256795915092994,55.75300608308362,43.16361761270991,8.09317830238308,18.884082705560672,2.697726100794398,4.4962101679906255,8.043065261402178,7.415339775040551,7.193936268785024,34.17119727672872,64.74542641906493,49.74361143974622,{}
188,43,791,0,26.393033333332912,3.9576424380527606,158.7207059925335,11.193903221834857,16.31777780051848,46.32301709133593,44.56523296288198,37.33632408801594,68.38824455349264,52.08473971526424,49.55752212389382,54.86725663716811,35.39823008849555,7.964601769911383,22.12389380530988,6.19469026548677,2.6548672566370897,7.50909856127305,6.381506682237166,5.30973451327435,26.54867256637169,65.48672566371681,54.52361699380296,{}
189,43,792,0,26.42639999999958,4.000120005400281,163.22254285456327,10.881502856970856,16.492917297411594,46.82020427007627,47.05882352941181,40.00120005400277,69.85909259050726,53.3682573282417,50.98387942632155,57.24505760148372,30.41143685078828,4.47227012511587,24.15025867562599,8.050086225208702,0.8944540250231512,7.589694078641987,8.00024001080051,7.155632200185437,21.466896600556368,66.18959785171552,57.27300246895307,{}
190,43,793,0,26.459766666666244,5.54566902892473,160.62348487179406,9.443934055111225,16.637007086774478,42.41621189162215,44.39999913416537,39.21380176568952,70.60662526275222,54.024039357010864,49.980294050441216,57.87191942682671,28.05911244937056,4.384236320214086,25.428570657242062,11.399014432556784,0.8768472640427944,6.323035542513466,6.323035542513371,3.5073890561712915,22.798028865113565,68.3940865953407,51.068355506774125,{}
191,43,794,0,26.49313333333291,3.907733510219309,160.39806178278118,11.05273945658372,13.309260752120228,45.97195619359295,46.26994102440625,39.42746257147978,67.45793944150186,54.25983314416353,50.6801550474637,59.41811281426772,27.96146485377301,5.242774660082318,20.97109864032996,8.737957766804243,1.747591553360735,8.737957766804085,6.301030954210177,4.368978883402065,19.223507086969,64.66088747435026,46.43466187654357,{}
192,43,795,0,26.526499999999576,3.9350184832557016,161.8723314789834,10.70440757026596,14.511631138657728,44.55441946012565,46.59301169694421,39.70275699735157,67.44855848863568,52.94025929200731,50.15412228128275,58.0731942204327,24.63711269957753,2.6396906463833147,23.75721581744972,9.67886570340545,0.8798968821276958,8.79896882127765,6.3450266512651226,4.39948441063882,24.63711269957753,72.15154433447697,55.64956507208901,{}
193,43,796,0,26.55986666666624,6.306872352760546,159.56224058599054,8.919264417429876,13.321599161029608,44.28650212687989,46.31283577740594,38.20335944038389,65.30910797029127,52.007801755438855,47.22871497719041,57.72398497212168,22.73975165568436,3.498423331643721,20.99053998986244,10.495269994931276,1.7492116658218038,7.822712383626729,6.306872352760546,4.37302916455468,19.24132832404058,69.96846663287477,53.65833305450636,{}
194,43,797,0,26.593233333332908,3.958650132519138,163.2193263124208,9.533691995015824,15.125980917836046,45.13555597663858,46.87282479445373,40.37046854640421,67.76117535437575,52.63665112937528,48.68495937498335,60.192313409070266,24.78507022726421,3.5407243181806507,21.24434590908368,8.85181079545157,1.7703621590902685,11.335848849905007,8.851810795451502,7.081448636361188,23.014708068174,72.58484852270249,52.63665112937538,{}
195,43,798,0,26.626599999999573,5.587878510280791,157.35608756195822,9.010183363212454,14.57140440968109,44.7379386913017,45.05091681606226,40.294764979761446,67.0545421233695,52.53794575462726,48.59366429718875,60.079439494706094,26.505635071193865,4.4176058451989775,20.320986887915296,7.951690521358159,0.8835211690397955,8.835211690397955,7.902453574132261,7.068169352318364,19.4374657188755,68.91465118510405,53.15831971791469,{}
196,43,799,0,26.65996666666624,3.954971898479501,159.23367170763274,6.377200566564033,11.186349795268606,44.780342879630254,45.09361765604103,43.75564709445191,60.44770562121851,49.270759906833725,46.87100587473935,61.90510209871229,28.29947524512568,2.653075804230525,11.496661818332312,2.653075804230525,2.653075804230525,10.313304925230735,9.524833634401526,8.843586014101788,21.2246064338442,70.74868811281402,53.7061302008954,{}
197,43,800,0,26.693333333332905,4.0068978014381536,158.8470945724919,6.460928569256972,14.776708966475164,45.36827619458282,47.44410653349873,43.92992880643666,64.03519141647611,49.30275672478253,47.48638807342354,62.7178710403706,32.25490510647637,4.4798479314549695,13.43954379436525,0.8959695862911303,4.4798479314549695,10.44871111381465,9.137132808166983,8.959695862910053,21.50327007098417,71.6775669032807,56.125182621239496,{}
198,43,801,0,26.72669999999957,5.617445665344033,155.72588810045858,7.944267845823487,15.177502408584033,44.72841506152506,46.72958537772398,41.81130884690553,70.27422282162902,55.154048585920805,50.62718036397234,63.95012256501764,33.7514535759816,7.993765320627176,18.652119081463525,6.217373027154508,6.2173730271543945,11.91640176873518,11.234891330688084,9.770157614099958,21.316707521672527,69.27929944543581,53.93918012952301,{}
199,43,802,0,26.76006666666624,21.37161832937309,152.63399258661508,6.334002465358586,16.665862969659976,44.47700824815161,44.78816095307436,41.34865947605528,85.21528788217363,68.60274188708263,56.21555856680868,66.75597579808527,35.13472410425538,10.540417231276592,31.62125169382989,15.810625846914943,10.540417231276592,11.784544720172342,11.784544720172368,9.662049128670333,24.59430687297879,72.02618441372363,57.22215954053463,{}
200,43,803,0,26.793433333332903,21.54425727914205,154.39805445530237,7.181419093047278,18.184403531773512,44.40608538284861,46.11527685701122,39.71801021228376,86.61594928860768,68.43991465827219,55.73599898816303,64.44474883006353,34.83499936760188,11.321374794470556,33.9641243834119,18.28837466799098,11.321374794470556,11.152641438082483,11.01579402921474,9.57962482609048,22.64274958894123,71.4117487035839,52.39744384870907,{}
201,43,804,0,26.82679999999957,23.722262891292488,156.22652168050598,5.622715549515518,16.392891943811865,46.5362516252363,47.07660356874252,41.850533214671295,87.55924029798446,71.16678867387746,57.78691025807154,67.56623353251439,35.56117554342859,10.6683526630286,33.783116766257194,17.780587771714295,10.6683526630286,7.543664512117045,6.410882091880423,5.3341763315143,24.892822880400104,71.12235108685735,56.50759192557344,{}
202,43,805,0,26.860166666666235,23.323430093394062,158.6040828289381,5.607501124610737,16.822503373832213,44.89504219941156,46.646860186788025,41.73729046048751,87.32231501259503,70.5966352931071,57.63054549110837,63.83691192861227,35.46495107145131,8.866237767862799,35.46495107145131,21.27897064287083,8.866237767862799,7.523252219121677,6.393534978497005,5.319742660717679,26.59871330358845,69.15665458932995,54.62638680209663,{}
203,43,806,0,26.8935333333329,24.60387352599277,161.9656855308596,6.320363392447295,14.977240474797505,44.13823898022445,46.11300454111055,39.197229794477046,84.23301371318074,69.45766815825068,56.09450902408378,66.6122294660995,38.56497495405756,14.023627256020973,29.80020791904451,15.776580663023536,12.270673849018294,9.439942995937043,8.938343628725333,8.764767035013051,24.541347698036645,70.11813628010475,51.55590640033997,{}
204,43,807,0,26.926899999999566,14.612526316295488,155.87813916435155,9.03561096843309,14.612526316295488,44.44226377487944,43.11532889067986,41.101908470664966,79.24755059202853,64.67299333601976,56.70493125572136,67.33710586616917,44.30072754353239,15.062247364800896,22.15036377176625,7.974130957835882,11.518189161318332,7.518082765807122,8.860145508706523,7.0881164069651845,26.580436526119456,67.33710586616928,53.8066941996946,{}
205,43,808,0,26.960266666666232,3.4875690802659847,152.91707876266847,7.79844153970106,14.898901641922947,41.99589293009417,43.73389377352384,40.44678075020122,66.01094015849883,51.31587859916529,48.82596712372333,61.03245890465416,41.85082896319148,11.334599510864336,13.078384050997329,0.8718922700664962,7.8470304305984655,7.398251239537825,7.798441539701061,6.975138160531856,26.156768101994658,64.52002798492015,49.10541850212226,{}
206,43,809,0,26.99363333333289,0.0,151.52951932581715,9.64630697954019,14.44171459436692,41.54829604739512,41.548296047395255,43.13959627616554,66.87956913192282,52.43876930497887,51.946952865036224,62.694598285388565,44.78185591813474,10.747645420352228,12.538919657077829,1.7912742367253711,7.165096946901485,10.44483390482148,8.010821919324064,7.165096946901599,28.660387787606226,66.27714675883936,51.69929017726498,{}
207,43,810,0,27.026999999999564,3.992660251504879,149.4983374800329,7.362101738323136,12.62590031797624,41.22312949338953,43.18722378692344,42.890910004422736,66.45111014763673,53.83432793024891,51.78158645387282,64.28059008066964,44.6392986671317,11.606217653454223,11.606217653454337,0.8927859733425976,8.035073760083606,8.92785973342634,7.362101738323081,7.142287786741122,30.354723093649568,67.8517339740402,56.37998204379847,{}
208,43,811,0,27.06036666666623,1.7807172882866098,145.1257278081795,9.07991220116581,16.125080867575495,42.77429710799877,43.06980526505519,42.77429710799888,69.65313857270654,53.540101521812176,52.53116000445698,62.32510509003362,46.29864949545356,11.574662373863362,15.136096950436697,0.8903586441433617,6.232510509003305,8.903586441433346,9.589456072337343,8.903586441433276,30.272193900873447,64.10582237832023,54.85649828144421,{}
209,43,812,0,27.093733333332896,1.8091585276545168,154.6380831109215,9.224934635693176,14.585902357483144,41.767668000172776,43.75770707244933,41.61064613605413,67.03658654681139,52.49678042348736,51.561018038153975,65.12970699556286,48.8472802466722,15.377847485063398,9.95037190209996,4.522896319136294,9.950371902099846,9.742616833652436,7.45935170300656,8.141213374445385,32.56485349778143,59.7022314125993,52.96232409462996,{}
210,43,813,0,27.12709999999956,2.549244888079776,150.49183866712562,9.191433157686202,14.532931869740814,41.61598360714716,40.02395659604786,39.69789041756148,64.89318050158886,50.50465254325451,49.57117954982493,63.09059215432251,46.86729702892535,15.32200095176404,9.914235909964988,2.703882520899469,9.914235909964871,13.123041253235586,12.746224440398937,12.618118430864511,32.44659025079443,59.485415459789806,53.04634985784213,{}
211,43,814,0,27.160466666666228,3.951111128427754,150.8579555200265,7.0679624558561045,14.245933768602509,42.554769195772735,42.73780130580742,42.44457107588658,67.1688891832711,53.12738719504943,51.24272780495744,60.0776808747778,45.94175596306536,10.60194368378427,14.135924911712436,0.0,7.067962455856218,11.17542988853146,10.748184298009212,10.60194368378427,33.57282166531695,56.54369964684963,51.99878410731252,"{'happy': (['m1', 'm3', 'm12', 'e1', 'e2'], 5.894255240715433, 76)}"
212,43,815,0,27.193833333332893,0.0,154.28348361440175,7.255881401320266,16.42620015140086,41.72131805759159,41.76073357706488,43.53528840792183,67.14141160022596,50.79116980924209,50.79116980924209,59.86102156089248,54.41911050990223,13.604777627475528,9.976836926815396,6.3488962261552615,8.162866576485385,11.472555830113212,11.033950878059713,10.8838221019804,36.279407006601446,56.23308086023224,54.90070494628439,"{'happy': (['m1', 'm3', 'm12', 'e1', 'e2'], 5.894255240715433, 76)}"
213,43,816,0,27.22719999999956,1.7850740279970978,137.45070015577642,7.140296111988391,14.280592223976782,39.31217754632063,39.31217754632063,46.446240388603606,69.64076889598589,55.36607889839625,54.44475785391137,58.907442923904114,58.907442923904114,12.495518195979685,10.710444167982589,5.355222083991293,7.140296111988391,11.289799440964012,12.622379501167329,12.495518195979685,42.84177667193029,53.55222083991288,57.56690765402431,"{'happy': (['m1', 'm3', 'm12', 'e1', 'e2'], 5.894255240715433, 76)}"
214,43,817,0,27.260566666666225,11.395595171777993,142.44493964722432,7.207207207207261,14.41441441441441,39.80310276463879,43.280764502574094,45.18895929363757,77.81197434842949,63.47356740111184,57.65765765765764,59.45945945945937,64.86486486486478,17.117117117117118,15.315315315315388,2.702702702702709,9.909909909909857,9.187422547014018,10.81081081081078,10.81081081081078,45.045045045045015,50.45045045045043,55.88490961899389,"{'happy': (['m1', 'm3', 'm12', 'e1', 'e2'], 5.894255240715433, 76)}"
215,43,818,0,27.29393333333289,4.097663845083183,147.3336674721156,9.344111232962186,15.111437596314431,40.48193252749512,40.68879096444091,45.95964319490065,74.12129106164556,59.0973484122494,56.80846042060477,54.97592943929499,69.63617728977374,16.49277883178854,10.995185887858952,7.330123925239377,7.330123925239377,12.827716869168851,12.957950836186187,13.743982359823748,51.31086747667536,45.81327453274588,55.00646314308712,"{'happy': (['m1', 'm3', 'm12', 'e1', 'e2'], 5.894255240715433, 76)}"
216,43,819,0,27.32729999999956,2.565341471179535,137.25176236571096,9.249470213411794,16.723980289079257,42.07472847624352,42.07472847624351,45.92606106376744,73.99576170729422,57.27667035173199,55.32609568506723,50.79116980924198,68.93087331254276,14.511762802640646,12.697792452310525,7.255881401320266,5.441911050990257,7.255881401320323,7.479191356149522,7.255881401320266,52.6051401595721,41.721318057591645,56.26233083925064,"{'happy': (['m1', 'm3', 'm12', 'e1', 'e2'], 5.894255240715433, 76)}"
217,43,820,0,27.360666666666223,1.8010527979331528,140.3550634707034,9.698966143220598,16.60488634047609,40.27276487244653,42.0460009229628,45.5990147589209,72.08712417533549,55.48295081116946,54.03158393799367,46.827372746261176,68.44000632145855,12.607369585531842,12.607369585531842,7.204211191732497,1.8010527979331528,5.403158393799345,6.493788212765755,5.403158393799345,57.63368953385992,41.42421435246183,52.50926112412282,"{'happy': (['m1', 'm3', 'm12', 'e1', 'e2'], 5.894255240715433, 76)}"
218,43,821,0,27.39403333333289,4.00160096064038,140.38720331099552,9.6371312868277,16.49902343229363,40.37454746825793,42.12148353869315,45.06023013114303,73.37238448792806,56.873435540119296,54.58189577760504,46.52882918746661,73.37238448792812,15.211348003594937,11.632207296866568,9.842636943502612,4.473925883410288,4.001600960640482,5.061669329096721,3.5791407067281966,59.05582166101533,37.58097742064615,52.38888886530459,"{'happy': (['m1', 'm3', 'm12', 'e1', 'e2'], 5.894255240715433, 76)}"
219,43,822,0,27.427399999999555,3.975074923104583,139.80740301211745,9.573248128869755,16.864814603111032,38.375431776701504,40.10691039695293,47.06730430277614,75.94369977271056,59.093737082614304,55.99778778541429,46.22039626732612,74.66371704721905,14.221660389946464,12.443952841203211,8.888537743716597,3.555415097486616,7.329675994926556,9.573248128869809,7.999683969344915,58.664349108529336,31.99873587737966,52.04161045194623,"{'happy': (['m1', 'm3', 'm12', 'e1', 'e2'], 5.894255240715433, 76)}"
220,43,823,0,27.46076666666622,3.596132192248433,137.8895143060186,8.041196037942584,16.08239207588527,38.43826284467443,38.8149124137948,49.37320560048291,73.91779521463545,58.041618144608506,55.74004897984946,46.74971849922861,75.51877603721539,12.586462672869176,8.990330480620855,10.788396576745072,3.59613219224832,10.788396576745072,11.371968494559308,10.788396576745072,61.134247268222,34.163255826359375,47.29973410848751,"{'happy': (['m1', 'm3', 'm12', 'e1', 'e2'], 5.894255240715433, 76)}"
221,43,824,0,27.494133333332886,3.587011185245956,144.9303449569023,11.343125337877131,17.014688006815827,40.46333051272254,40.46333051272254,49.24797845922637,78.34150680800545,61.34733004459651,59.18568455655725,46.63114540819663,77.12074048278669,13.451291944672109,13.451291944672109,9.864280759426263,2.690258388934467,8.020800846261947,9.658323198791972,8.967527963114776,62.77269574180309,32.283100667213034,51.01254560804385,"{'happy': (['m1', 'm3', 'm12', 'e1', 'e2'], 5.894255240715433, 76)}"
222,43,825,0,27.527499999999552,4.050999017255613,141.08879953723672,9.756097560975578,18.91430485701681,41.312246077063016,40.872954031347376,47.96629174639605,79.13458348425627,60.2224298858415,57.06734783002082,45.29154589684185,76.08979710669439,13.587463769052649,15.399125604926212,9.96414009730529,0.9058309179368962,9.75609756097562,11.457955502725934,10.869971015242072,63.4081642555787,32.609913045726216,51.87809998641213,"{'happy': (['m1', 'm3', 'm12', 'e1', 'e2'], 5.894255240715433, 76)}"
223,43,826,0,27.56086666666621,4.961675642343794,144.24103977406196,9.446748979245676,18.893497958491203,38.31268296983748,38.31268296983741,46.44536555333013,78.80321885311356,60.00346183804652,56.13495188399145,42.10121391299356,75.43134159411352,13.156629347810394,16.665063840560038,7.893977608686214,2.6313258695620334,8.94478797034576,10.670486936251152,10.525303478248418,63.15182086949045,29.82169318837049,48.51925167210533,"{'happy': (['m1', 'm3', 'm12', 'e1', 'e2'], 5.894255240715433, 76)}"
224,43,827,0,27.594233333332884,13.525400007231658,139.1278849282604,6.403358210565142,17.491295963251442,37.08338464610831,39.31281668350155,47.81951031687039,84.82009682325553,67.39340002885986,57.71909090838972,44.39930069876141,78.14276922982003,15.095762237578924,18.6477062934797,4.439930069876141,6.215902097826643,11.232233338143304,12.929271523767666,12.431804195653172,62.15902097826592,28.41555244720729,48.76652324723478,"{'happy': (['m1', 'm3', 'm12', 'e1', 'e2'], 5.894255240715433, 76)}"
225,43,828,0,27.62759999999955,16.142029010067013,143.1325645395727,6.507059922983604,17.121207262692483,37.68394615830522,41.15426045565604,48.15630171639436,87.32002207507134,70.19926968548795,59.55621236611751,46.9230764096684,81.21301686288757,17.144970226609644,18.94970393467372,4.511834270160534,6.316567978224612,11.414138175128356,13.13865971559582,11.730769102417128,63.16567978224589,30.68047303709085,49.55629195970355,"{'happy': (['m1', 'm3', 'm12', 'e1', 'e2'], 5.894255240715433, 76)}"
226,43,829,0,27.660966666666216,16.970562748477114,145.7779132790698,6.449806198638808,15.999999999999975,37.90514476954287,39.06916943063926,48.1663783151692,87.12290169639664,71.28534211182547,59.92662179699437,41.1436507859961,76.92073842599268,12.521980673998767,23.25510696599781,1.7888543819998404,1.7888543819998404,9.121403400793069,11.31370849898476,11.627553482998906,67.97646651599365,32.19937887599701,49.47726750741193,"{'happy': (['m1', 'm3', 'm12', 'e1', 'e2'], 5.894255240715433, 76)}"
227,43,830,0,27.69433333333288,16.840218683821856,144.65825177842444,7.938555218663202,17.482854342322362,38.76909485905489,40.478847969697696,47.79643174224932,89.81449964705003,72.43251934318218,61.24146443663017,42.60275786896011,78.10505609309348,14.200919289653257,24.85160875689337,1.7751149112067424,3.5502298224132574,12.551957910995917,12.92303161968496,12.425804378446683,65.67925171464674,30.17695349051337,52.56858277893461,"{'happy': (['m1', 'm3', 'm12', 'e1', 'e2'], 5.894255240715433, 76)}"
228,43,831,0,27.727699999999547,13.493915114569187,146.54930807025224,7.923899795690137,17.450579121188742,38.697522958653096,42.59787121905012,47.70819441133774,86.29414286900095,68.91970995362813,59.35656827670039,40.75227075713758,77.96086579626308,13.28878394254491,22.14797323757466,0.8859189295030774,2.6577567885090048,9.034635817993964,10.77766893852541,9.745108224532885,63.786162924215205,28.34940574409564,46.91189602247423,"{'happy': (['m1', 'm3', 'm12', 'e1', 'e2'], 5.894255240715433, 76)}"
229,43,832,0,27.761066666666213,16.00224047050975,146.24769655912428,6.4507093611751865,15.286118746083671,37.357606526841614,41.30469345917598,47.73927241461266,84.86469563156464,69.59135023613031,59.04046084919082,39.36030723279396,76.93150959136995,11.629181682416402,22.36381092772376,0.8945524371089277,2.683657311326897,10.88270009166658,13.024880087753749,11.629181682416402,64.40777547184462,26.83657311326857,51.636678601954735,"{'happy': (['m1', 'm3', 'm12', 'e1', 'e2'], 5.894255240715433, 76)}"
230,43,833,0,27.79443333333288,15.489652542278993,146.9253784163413,7.691596593836798,14.616282360114928,38.41522811108656,40.13084329175822,46.61020098486728,83.17758292809697,68.7957313572999,58.01365450296919,38.071460767573626,77.95584823836487,12.690486922524428,19.94219373539568,0.0,1.8129267032177268,11.027602620510208,13.198305620636514,11.784023570915622,65.26536131584038,27.19390054826681,51.914320275015605,"{'happy': (['m1', 'm3', 'm12', 'e1', 'e2'], 5.894255240715433, 76)}"
231,43,834,0,27.827799999999545,5.526199784506389,149.79750787030798,9.91983219890598,14.028761232158262,44.2862845405825,44.2862845405825,51.38012131526325,76.97105629589605,62.95449554159384,58.94613103473466,38.68339849154461,81.05093017276022,10.13136627159497,11.973432866430583,8.28929967675947,2.763099892253308,13.410447233774915,13.02537780605367,11.973432866430528,71.84059719858294,29.47306551736733,62.14074531820733,"{'happy': (['m1', 'm3', 'm12', 'e1', 'e2'], 5.894255240715433, 76)}"
232,43,835,0,27.86116666666621,5.994233324303748,154.14622914485403,5.994233324303748,16.9542521265183,45.0565430626889,47.388575328206514,51.03905762354004,77.43937016853711,60.56845766755469,55.91851888728365,36.015317249436976,79.61280655138694,8.529943559077196,14.21657259846188,10.4254865722055,0.947771506564095,10.207811524707983,11.988466648607478,11.373258078769595,68.23954847261729,28.43314519692388,52.871720406790885,"{'happy': (['m1', 'm3', 'm12', 'e1', 'e2'], 5.894255240715433, 76)}"
233,43,836,0,27.89453333333288,5.940594059405953,148.51485148514848,8.855714762375406,18.78580788218843,43.24817756008227,45.15546238016394,50.9107331967621,80.19190784679837,61.41806898721114,57.42574257425736,37.623762376237664,79.20792079207922,8.910891089108986,16.831683168316772,8.910891089108986,2.97029702970292,12.523871921458912,12.523871921459,11.881188118811906,73.26732673267321,31.68316831683165,52.83827352129244,"{'happy': (['m1', 'm3', 'm12', 'e1', 'e2'], 5.894255240715433, 76)}"
234,43,837,0,27.927899999999543,5.934706488369443,150.82667316134976,10.087061397213722,18.76718974782702,45.67111293190475,47.56000695914855,51.3579805585649,81.97154823068014,63.21073807006294,59.34706488369409,37.58647442633958,81.1076553410486,9.891177480615625,17.80411946510833,9.891177480615625,3.9564709922462953,8.846938089668708,9.891177480615578,6.923824236431074,73.19471335655606,31.65176793797019,60.941213300502696,"{'happy': (['m1', 'm3', 'm12', 'e1', 'e2'], 5.894255240715433, 76)}"
235,43,838,0,27.96126666666621,3.715107962461048,151.59279416454385,8.307233947813486,16.614467895626923,43.48422383653087,45.23439541277029,48.224906206304496,74.16271184589525,57.61412617617507,53.869065455684336,33.43597166214886,78.01726721168063,9.287769906152334,13.002877868613496,11.145323887382917,3.715107962461048,5.253956066192568,6.697506126268848,4.643884953076167,70.58705128675871,27.8633097184574,51.81210558448793,"{'happy': (['m1', 'm3', 'm12', 'e1', 'e2'], 5.894255240715433, 76)}"
236,43,839,0,27.994633333332875,5.883880097865519,153.09399226978704,10.019886751733669,16.642126067557253,45.30969729383845,47.07104078292444,47.83706695545282,74.28617081237759,57.71003664513511,54.88906463633941,35.35227891832028,78.14714287207642,10.233554423724286,12.094200682583278,12.094200682583278,2.790969388288431,8.321063033778652,9.303231294294756,7.4425850354358545,70.7045578366405,27.909693882884422,59.13226315313758,"{'happy': (['m1', 'm3', 'm12', 'e1', 'e2'], 5.894255240715433, 76)}"
237,43,840,0,28.02799999999954,3.721292517717984,151.84515130235457,8.3210630337786,16.642126067557253,42.95635458023547,45.30969729383833,49.64823465573944,75.35043052958358,58.83880097865569,55.81938776576885,35.35227891832028,80.0077891309353,9.303231294294733,13.02452381201283,11.163877553153725,1.860646258858992,10.019886751733765,10.019886751733765,9.30323129429479,68.84391157778157,26.04904762402549,55.97422686423004,"{'happy': (['m1', 'm3', 'm12', 'e1', 'e2'], 5.894255240715433, 76)}"
238,43,841,0,28.061366666666206,5.879492724552519,154.76585024575078,10.012415324205817,16.62971670187238,44.69961437807081,47.03594179642041,47.801396773966594,74.23077859534935,57.66700458627945,54.84813606312639,35.32591814235252,78.08887168309514,10.225923672786166,12.085182522383889,12.08518252238366,2.7888882743962995,9.4803971549177,10.012415324205817,9.296294247987476,66.93331858551011,26.029623894365045,58.233696807607046,"{'happy': (['m1', 'm3', 'm12', 'e1', 'e2'], 5.894255240715433, 76)}"
239,43,842,0,28.094733333332872,3.873603777749395,142.86457808102534,8.661641364947634,18.37411603608124,42.300391754321865,44.16587833961079,50.282301550829885,78.43449848802355,60.07208917286123,56.167254777366566,36.79923588861948,75.53527366611377,7.74720755549879,17.43121699987239,9.684009444373489,3.873603777749509,12.249410690720804,10.42999737035976,9.6840094443736,73.59847177723896,29.05202833312063,57.78035466753648,"{'happy': (['m1', 'm3', 'm12', 'e1', 'e2'], 5.894255240715433, 76)}"
240,43,843,0,28.12809999999953,6.136802971581892,151.67962371383496,8.678749992022674,18.4104089147456,46.65584927053123,48.00847283110952,49.89337813842892,76.77138064689541,58.38031979560791,55.30788358438156,34.93129489539888,77.62509976755302,7.762509976755382,15.525019953510537,9.70313747094417,3.881254988377577,10.450598885463284,12.273605943163746,11.64376496513296,73.74384477917539,29.1094124128324,56.00988496962773,"{'happy': (['m1', 'm3', 'm12', 'e1', 'e2'], 5.894255240715433, 76)}"
241,43,844,0,28.161466666666204,3.6982778991233545,146.30417284192603,8.269600782124778,16.539201564249606,42.69068771524921,44.45631548010133,47.541214950961525,73.152086420963,56.72367476066407,53.6250295372879,35.13364004167136,75.81469693202769,9.245694747808216,12.94397264693157,11.09483369736995,1.8491389495616204,9.95791799468106,11.694981581492089,12.01940317215076,70.26728008334277,27.73708424342476,57.41271218130776,{}
242,43,845,0,28.19483333333287,5.763844336776432,141.95916833127853,9.815473216402154,16.302613664953075,39.80809846489424,42.08001131186647,46.46959866416226,72.1056696161213,55.91226104157533,53.76928473948431,36.45375236575205,74.73019234979176,10.02478190058173,11.847469518869502,11.847469518869389,0.9113438091438866,11.527688673552792,13.26936615496473,11.847469518869389,65.61675425835364,25.51762665602644,56.14942970335609,{}
243,43,846,0,28.228199999999536,5.732506606258577,146.43160476480531,8.106988588964347,16.21397717792864,43.582133140406974,45.31944394434824,46.606371609381874,70.6983325531833,54.53418831492123,51.66416609655698,36.255555155478646,74.3238880687311,9.97027766775659,9.970277667756704,13.59583318330442,0.9063888788870144,11.4650132125173,13.1972212814377,12.68944430441752,65.25999927986146,25.37888860883504,50.56317799430877,{}
244,43,847,0,28.2615666666662,5.815759890259653,152.59029011976187,6.630986505151252,14.827336583401848,44.21507714848621,45.9776189446779,47.28323668052078,71.72508555369751,57.041902758681125,52.41448559693288,36.78209515574224,77.24239982705888,11.034628546722727,9.195523788935589,12.873733304509756,1.8391047577871404,9.90388221826883,12.337089768465844,11.034628546722727,66.2077712803362,27.58657136680677,53.07976221052596,{}
245,43,848,0,28.294933333332867,4.043168911048782,144.3133802193247,9.73724016808527,16.172675644194925,42.97947506996377,42.97947506996377,46.48765214850536,71.53096005188134,55.46661909205952,53.34072312475098,37.97136222439895,75.94272444879789,11.753040688504484,9.944880582580597,13.56120079442826,0.9040800529619446,10.99860854109309,12.129506733146243,10.84896063554254,65.0937638132553,27.122401588856405,53.54718931475071,{}
246,43,849,0,28.328299999999533,4.410703651022659,148.7918042815231,10.62238103456288,19.42713437243418,40.66467839854792,44.98052797047943,48.79761407825747,78.03331337452232,58.647433226486974,56.217009196071785,39.45053276917315,76.9285388998876,10.84889651152264,14.793949788439932,8.876369873063936,0.9862633192293516,14.360210687512158,14.36021068751207,13.807686469210466,72.98348562297036,31.56042621533857,62.68787723972879,{}
247,43,850,0,28.3616666666662,4.050126758294504,147.60475683497353,9.753996883220102,14.602939699159483,41.30335074613582,41.303350746135685,44.80838844692103,68.27797818254065,53.85298070542734,51.62124486951279,36.22543499614926,72.45086999229864,10.867630498844846,9.056358749037258,10.867630498844846,0.0,11.455488381820532,11.45548838182048,10.86763049884479,63.39451124326132,25.357804497304528,54.4888827490874,{}
248,43,851,0,28.395033333332865,5.467154783886485,141.45510992758014,7.513885548521625,14.692537005845589,41.55677019867061,41.55677019867065,45.0833132911301,68.69690225379978,54.18339924632552,51.02677798294087,36.44769855924346,72.89539711848693,10.93430956777297,9.111924639810924,10.93430956777297,0.0,11.085134755588514,11.525774291844666,10.934309567773028,65.60585740663822,30.98054377535692,55.75425785373901,{}
249,43,852,0,28.42839999999953,4.024014543619728,139.23322920977793,9.69111034268629,14.508790770233484,37.576626162034266,39.835711599414445,43.78601211341211,66.58497845866181,52.4049686653442,51.28842935329351,35.991880247925224,70.1841664834543,9.897767068179403,9.89776706817952,9.897767068179403,0.8997970061981277,9.176164985753298,9.69111034268629,9.897767068179462,62.98579043386928,28.79350419834026,53.29351142953359,{}
250,43,853,0,28.4617666666662,5.374954625683017,142.09502421700262,6.45989150206422,13.64481162783866,39.13026032486936,39.13026032486936,43.59276346554412,64.5989150206422,50.991296811648766,48.37459163114761,34.04137929599278,68.08275859198557,8.062431938524583,9.854083480418922,9.854083480418922,0.8958257709472264,10.89819086638603,11.331399291477544,11.645735022313374,64.49945550819683,30.458076212204105,53.058301632459205,{}
251,43,854,0,28.495133333332863,5.658300444421116,149.58569786529537,7.77659013127587,16.114846729755396,43.00970076371013,43.00970076371016,46.23831349711976,71.57246835965529,55.47186953785793,52.81080414793075,37.72200296280767,73.55790577747496,10.373550814772102,12.259650962912474,10.373550814772102,0.9430500740701292,11.928744726609246,11.928744726609226,11.316600888842345,64.12740503677298,28.29150222210575,55.85532020542804,{}
252,43,855,0,28.52849999999953,4.149681251883024,147.18212171056908,8.2993625037661,15.855909800025673,42.31861135708346,44.11171678388794,45.909804942396526,69.28849422836085,53.43268545386485,51.03433150291789,35.260083583834216,70.52016716766843,8.351072427750182,12.06266017341693,10.206866300583556,0.9278969364166868,11.288353433627922,11.737071011876726,11.134763237000245,66.80857942200163,33.404289711000786,53.14184920310588,{}
253,43,856,0,28.561866666666194,5.872961678954551,151.34703150656122,9.46986616032254,12.458433086512658,42.35052894461207,44.14498676927576,45.52965957303456,66.96206578893047,54.62170102929444,52.9300162216922,39.00106458440473,76.14493561717109,13.00035486146828,5.57158065491501,13.00035486146828,1.857193551638261,11.745923357909245,11.745923357909245,11.143161309829908,65.00177430734124,29.715096826213085,49.55610493604033,{}
254,43,857,0,28.59523333333286,5.6699670361477805,145.68615923038053,9.14254713395596,13.655088864881582,40.8867137580427,40.8867137580427,42.20223158769612,64.64757075737892,51.029703325330026,49.30752775382837,35.86002018460249,69.92703935997486,11.654506559995752,8.068504541535617,11.654506559995752,0.8965005046150054,11.33993407229556,13.05324437878618,12.551007064610872,62.7550353230543,28.688016147681992,47.47222015020228,{}
255,43,858,0,28.62859999999953,5.750486902658798,144.22147780237847,9.27238151748998,13.84900638249445,41.46735077284059,41.46735077284059,44.58018379303493,67.28315418926428,53.48261976499224,51.82621336200077,38.18773616147428,72.73854506947487,11.820013573789652,8.183086320315965,11.820013573789652,0.9092318133684784,11.500973805317578,11.500973805317525,10.91078176042123,63.64622693579042,27.276954401053047,57.79167813260536,{}
256,43,859,0,28.661966666666192,5.516789500671962,144.51695496600587,8.223944227373153,14.00487236997667,40.1628338009211,42.45499196978192,46.55798470607315,69.7824807753059,55.83809831999027,53.32896517316249,40.456456338261205,77.2350530094077,12.872508834901282,7.35571933422932,12.872508834901282,1.8389298335573585,13.003197554346348,11.63041346255102,11.953043918122605,66.20147400806377,29.422877336917225,58.44210436042363,{}
257,43,860,0,28.69533333333285,5.728977751362967,144.12677984071777,8.101998034511226,13.797205486566796,39.5672917421282,39.56729174212809,46.188495265755975,67.64076684175218,53.86457879798262,51.632362322399786,39.85656038922093,76.08979710669439,12.681632851115864,5.434985507620922,14.493294686989543,1.8116618358737924,11.019908732823696,11.457955502725934,10.869971015242072,63.4081642555787,25.3632657022315,54.0470680123303,{}
258,43,861,0,28.728699999999524,4.074934289030891,146.74290446772395,8.14986857806173,13.878726084733715,42.07258651934081,42.07258651934078,44.67585201294231,65.70634109109307,51.86544603593946,50.11506540764776,36.44732029647116,72.89464059294232,10.934196088941349,7.289464059294232,12.756562103764963,0.0,9.292279870493651,11.52565467465323,10.934196088941349,63.78281051882453,29.15785623717693,50.40415347337633,"{'neutral': (['m1', 'm3', 'm12', 'e1', 'e2'], 4.037383234239498, 60)}"
259,43,862,0,28.76206666666619,5.626799874741892,150.57458512566384,9.563720786796615,14.284143719379015,43.301587539027054,44.58250205975545,42.31546382256705,67.62571821718655,53.38051062640283,50.64119887267634,37.51199916494545,73.14839837164357,14.0669996868545,8.440199812112724,12.19139972860728,0.9377999791236108,11.408829147855403,11.862335694756172,12.19139972860728,67.52159849690173,31.885199290203616,52.31545572990296,"{'neutral': (['m1', 'm3', 'm12', 'e1', 'e2'], 4.037383234239498, 60)}"
260,43,863,0,28.795433333332856,5.819759619793201,143.32450464772174,7.588038182211525,15.724124612673458,38.42804507912001,40.19427841042551,45.11721491995917,68.09367458292226,52.37783657813938,50.6101635413612,40.48813083308892,71.77441374956675,11.962402291594458,8.28166312495,11.962402291594458,0.920184791661086,9.384080417582656,11.194531143332934,11.042217499933315,62.57256583295555,27.60554374983332,54.158171460883466,"{'neutral': (['m1', 'm3', 'm12', 'e1', 'e2'], 4.037383234239498, 60)}"
261,43,864,0,28.82879999999952,4.063144341190395,141.51179869538404,8.126288682380894,12.189433023571288,37.46033989000312,37.942023890888194,46.3269732645595,68.95384599829197,56.91303583633224,53.60425500084284,41.79314796675885,72.68373559436316,11.811107034084102,8.176920254365768,8.176920254365882,2.7256400847886653,11.052947585887384,13.228639557259372,12.7196537290136,63.598268645067776,32.707681017463415,55.59236791747135,"{'neutral': (['m1', 'm3', 'm12', 'e1', 'e2'], 4.037383234239498, 60)}"
