,video_id,frame_seq,time_seconds,m1,m3,m4,m5,m6,m7,m8,m9,m10,m11,m12,m13,m14,m15,m16,m17,e1,e2,e3,b1,b2,b3
0,211,0,0.0,8.305179742141148,142.43265751314368,20.24348415936312,32.479643165609666,34.77224310861869,39.11066950641143,44.36039908349423,105.22679506357112,72.76622267750987,68.48626663317623,60.42905879397904,80.57207839197201,26.185925477390924,34.243133316588114,2.0143019597992406,4.028603919598595,10.847348024853332,14.664339617531963,13.092962738695405,66.47196467337693,44.3146431155846,51.354824996424206
1,211,1,0.0333666666666666,6.34201992205992,137.31608203381765,20.155254614795354,30.349066908923824,32.338083338177725,36.980013081681825,50.17816422416222,106.76466086892948,76.44699330463726,73.20158190753602,66.1822521355806,82.22643447147891,24.06627350384747,32.088364671796626,2.005522791987346,4.011045583974578,10.22619985129826,12.684039844119804,12.033136751923735,66.1822521355806,44.12150142372042,52.4895546122145
2,211,2,0.0667333333333332,2.0359200223870175,138.98043665570714,22.487471649383654,28.575499234458476,32.638280848597226,36.87207982631798,54.9698406044472,106.04388019018104,77.47204043253996,77.36496085070348,69.22128076115575,81.4368008954774,20.35920022386938,30.538800335804012,2.035920022386904,0.0,12.38401802685912,14.396128537832714,14.251440156708554,65.14944071638195,48.86208053728649,51.263156301680425
3,211,3,0.1000999999999998,1.9955896315248083,142.0377655194582,19.95589631524922,26.019305451269485,31.991735498478224,36.14166538226403,53.88092005117301,99.85927325759114,73.86377887101503,73.83681636642223,67.85004747184746,77.82799562947207,18.958101499486702,26.940460025586503,0.9977948157624041,0.9977948157624041,14.110949609168376,16.088957969186037,13.969127420674454,63.85886820879756,47.894151156598184,48.26687390755815
4,211,4,0.1334666666666664,2.8842737373456324,147.35223557505282,22.52689802232871,28.62559949950713,34.731254999372396,38.96439254023116,53.02672748035684,106.22980262886628,77.60786902218898,76.48085694282247,69.34264362815895,81.57958073901057,22.43438470322792,30.592342777129033,2.039489518475193,2.039489518475193,10.399396852473297,12.898864284843768,11.217192351614017,63.2241750727332,48.94774844340634,53.183379896918105
5,211,5,0.166833333333333,10.399396852473409,151.41750373648748,24.473874221703113,32.88578034580176,34.731254999372396,39.23036417762488,48.990219382800866,116.3224415768167,83.61907025748587,78.52034646129766,71.38213314663426,83.61907025748587,28.552853258653727,38.75030085103003,2.039489518475193,6.118468555425807,10.399396852473396,12.89886428484384,11.21719235161396,63.2241750727332,48.94774844340634,51.353033916656564
6,211,6,0.2001999999999996,12.343156051012079,153.0535208362373,24.35042825926064,36.750417694364955,38.76785655681695,43.0458823672992,44.68854624715864,117.973294549367,81.26949098185084,75.08048713272024,68.99288006790516,85.22649890741218,32.46723767901415,40.584047098767655,0.0,8.116809419753508,10.346942404859227,10.346942404859284,10.146011774691942,64.93447535802835,50.730058873459654,47.066997590038255
7,211,7,0.2335666666666662,20.243484159362986,151.9296516802914,20.14301959799309,38.48318490739464,38.48318490739462,40.73673606915256,44.36039908349423,123.13630692725893,84.69654713814667,74.52917251257406,68.48626663317623,84.60068231157061,32.228831356788874,46.3289450753839,4.028603919598595,10.071509798996544,8.305179742141258,10.847348024853195,9.064358819096867,64.45766271357763,46.3289450753839,46.7213855024142
8,211,8,0.2669333333333328,14.144257421490964,143.4230492330831,22.09403638842804,40.205533766928674,38.215679130946036,42.761531363707874,48.00720162040511,124.27643940030232,84.1078012830618,77.01155259939992,70.01050236309084,90.01350303825961,32.00480108027011,44.006601485371334,0.0,10.001500337584389,8.945613852730366,10.771945527300629,9.001350303825916,64.00960216054017,42.0063014178545,46.69747526643033
9,211,9,0.3002999999999994,10.235338030665124,142.23635909268705,24.171272656166305,36.63006024505172,36.354019685400665,42.91149213255687,48.21735940004546,118.70344750244712,82.3243882036015,77.28162505166608,68.24870783783501,90.32917213831104,31.113381514307207,39.14264125993475,1.003657468203528,7.025602277424241,8.276371506685683,12.695374360643807,11.040232150238069,66.24139290142807,40.14629872813822,51.1766901533257
10,211,10,0.333666666666666,4.434055742971294,146.10869683301974,19.928601975600152,28.391809797948017,35.91311434232016,38.5023131125388,55.558559215380654,107.7393430269605,79.54157175191965,77.33583044699594,67.4209803896888,87.2506805043032,21.812670126075773,29.744550171921674,3.9659400229228368,1.9829700114613615,10.678620319325281,10.678620319325145,9.914850057307149,63.45504036676596,37.67643021776729,48.61310738761284
11,211,11,0.3670333333333326,2.8320402809616723,143.58472153840452,20.12542754144618,26.339497171237912,36.267811528825,38.51991236105252,54.10605359699956,102.61994775323186,76.3338620085956,75.09580827230752,66.08431127963058,86.10986015224603,22.0281037598769,26.033213534400033,4.005109774523021,2.0025548872615673,12.66526916649636,14.160201404808939,13.016606767200017,66.0843112796307,38.04854285796921,51.05533223593595
12,211,12,0.4003999999999992,0.0,143.75702703683615,22.100393072346208,28.296653742737956,36.23739788367396,40.46520423350739,56.060234624623995,106.34799555769366,78.13668904172094,78.03414741087306,68.02976953768427,90.03940085869976,23.010069108334392,27.011820257609884,7.003064511232196,3.0013133619567043,14.56659405814029,14.566594058140227,13.005691235145548,64.02801838840873,38.016635918117686,48.68340389278229
13,211,13,0.4337666666666658,6.321000756851012,145.03907792078095,24.06965378308553,32.230906204618016,36.20118311097078,40.424764294127215,50.01186024898235,112.38234507510438,80.17959613523276,76.95672401069464,67.9617822432109,85.9516657781785,26.98482530245144,34.98032909577023,2.998313922494731,2.998313922494731,16.483153334940287,16.48315333494023,14.991569612472972,65.96290629488118,41.97639491492441,50.607496889452136
14,211,14,0.4671333333333324,7.967202793769843,146.27196324090826,23.984456492399552,32.116821228168504,36.07304488561546,42.579835605581856,47.84469461576979,111.82502005517242,79.77155580653232,75.68842654081368,69.71302444548633,85.64743003302601,29.877010476636997,33.860611873521975,1.9918006984424892,5.975402095327354,18.036522442807605,18.036522442807605,16.930305936760988,65.72942304860135,41.82781466729176,46.499055497527685
15,211,15,0.5004999999999991,8.001200270067557,142.92000503201604,22.00330074268561,30.270032746344015,38.21567913094602,40.453565322282564,48.04885646695803,108.18276689619277,78.03734329207025,74.0111024981245,68.01020229557389,84.01260283570889,28.00420094523622,32.00480108027011,2.0003000675168323,4.000600135033778,18.44185540039784,18.1134875032076,18.002700607651946,64.00960216054011,42.006301417854445,48.6694012001787
16,211,16,0.5338666666666656,4.008577511464637,145.19685288955336,20.14285270392071,30.330392551783362,36.299213222388275,40.534231549261676,48.10293013757507,102.39542283074147,72.18222718240499,70.15010645063035,64.1372401834335,80.17155022929182,24.051465068787593,30.064331335984434,4.008577511464637,4.008577511464637,18.478629288726186,18.14960661119413,18.038598801590695,64.1372401834335,42.09006387037823,48.766450173065664
17,211,17,0.5672333333333321,4.520712045619912,144.69103715143558,20.217238881416165,28.591493419835547,36.61497690019013,38.88863545505968,48.563474297996855,101.40915431746954,72.89429143525054,70.76033608495686,64.69516442053202,82.89067941380665,25.27154860177029,27.293272489911942,5.0543097203541265,5.0543097203541265,20.617619113461682,20.21723888141628,20.21723888141628,64.69516442053202,42.45620165097415,49.19066525358676
18,211,18,0.6005999999999987,2.0217238881416506,144.9591536056826,20.318073616072173,30.59423398114575,36.89299894019012,40.88683528071039,50.5430972035407,101.40915431746954,70.87576901011784,70.76033608495686,62.67344053239037,82.89067941380665,22.238962769557816,28.304134433982767,6.065171664424838,2.0217238881416506,20.617619113461682,20.217238881416222,21.228100825487104,66.71688830867362,44.477925539115745,46.89353584639114
19,211,19,0.6339666666666652,2.8714996190317366,145.58531386999664,20.304568527918832,30.726387716592008,34.7558228804542,39.05661738410424,48.773247307469255,101.84719759581283,71.18192139272327,70.05076142131986,62.944162436548254,83.24873096446697,24.365482233502576,28.42639593908632,6.0913705583756155,4.060913705583744,22.7011977411146,22.427128968908118,22.335025380710647,67.005076142132,42.63959390862942,51.40706152760264
20,211,20,0.6673333333333318,2.830798912437645,141.0294813220209,20.116605960605057,28.30798912437693,34.26319298765744,38.5030279236818,48.0819340942829,98.59148782458202,70.31558626506838,69.05786019702691,64.05366742912645,80.06708428640798,24.020125285922404,26.021802393082567,6.005031321480601,4.003354214320439,20.11660596060509,22.10924628842343,22.018448178762128,64.05366742912639,42.03521925036421,50.67841656654282
21,211,21,0.7006999999999983,2.0217238881416506,144.4507216485956,22.238962769557816,30.59423398114575,36.89299894019012,38.88863545505966,48.563474297996855,101.40915431746954,70.87576901011784,70.76033608495686,64.69516442053202,80.868955525665,24.260686657699466,28.304134433982767,6.065171664424838,2.0217238881416506,22.330670221595764,24.344779411261023,23.249824713628698,64.69516442053197,44.477925539115745,46.893535846391366
22,211,22,0.7340666666666649,0.0,141.61284474450628,22.234319164631607,30.46222778733954,34.457021218576635,38.7208410676629,48.3120161596172,100.8310409662501,70.48377485217203,70.45502356610848,66.42902221947372,80.52002693269537,25.16250841646729,27.175509089784782,5.03250168329339,3.019501009976011,24.239737994923853,22.143007406491222,22.143007406491222,64.41602154615634,48.31201615961726,46.691202387576375
23,211,23,0.7674333333333314,2.8449041619051365,141.51789813997095,22.128161271797353,30.241746064305772,34.433918955692164,38.69488005832981,46.311684464748936,100.76343717657416,70.52264366688048,69.4019603524556,66.38448381539229,80.46604098835428,27.15728883356951,27.157288833569623,7.040778586480997,5.029127561772157,22.4909421912806,22.128161271797467,22.128161271797467,64.3728327906835,46.26797356830377,48.44697214711232
24,211,24,0.800799999999998,2.8362375320767796,142.8996561032579,20.05522791987289,30.34906690892374,34.329020508454356,36.32156256951522,48.17431061382345,100.59651146862954,70.30780562229795,69.19053632356156,66.1822521355806,78.21538888750433,24.066273503847583,28.077319087821934,4.011045583974692,4.011045583974692,22.422426466543723,24.149692379638523,23.063512107853853,62.17120655160602,44.12150142372042,46.517754223727415
25,211,25,0.8341666666666645,2.8504246446927475,143.6144529039454,20.256072992589754,30.500875643261715,38.34854154420983,40.512145985179316,48.373310292563815,101.09970417404912,70.65949152478795,69.53663354556056,68.52885624779879,80.62218382093965,26.202209741805405,26.202209741805405,6.046663786570434,6.046663786570434,24.27049129071557,26.202209741805405,25.194432444043628,62.48219246122818,46.35775569704026,44.75257469101842
26,211,26,0.867533333333331,2.8468128532716896,143.27701101988586,22.14300740649128,28.46812853271609,36.289885725946945,38.45832386406523,46.34275570907935,98.9651404533241,70.56995842810173,69.44852322944973,68.4420228927911,78.507026259378,27.17550908978467,25.16250841646729,7.045502356610882,7.045502356610882,24.489210138240132,24.1560080798086,23.14950774314991,62.403020872838965,44.2860148129825,48.4794759898478
27,211,27,0.9008999999999976,4.504116109322252,141.36037633425678,20.243484159362986,28.48653150262873,36.31334500161997,40.48696831872598,46.32894507538401,99.02911559310425,70.61557775359385,68.48626663317634,68.48626663317623,78.55777643217277,27.193076457290545,25.17877449749119,5.035754899498329,7.05005685929757,24.255407559169967,24.17162351759157,23.16447253769195,62.443360753778336,44.31464311558466,46.3727135736436
28,211,28,0.934266666666664,2.8468128532717696,143.27701101988586,24.23973799492378,30.262035731844367,34.28016622079175,38.45832386406523,44.286014812982444,100.83104096624997,70.56995842810173,69.44852322944973,70.45502356610848,80.52002693269537,31.201510436419426,25.16250841646729,9.05850302992826,9.05850302992826,24.489210138240132,24.1560080798086,24.1560080798086,62.403020872838965,44.2860148129825,48.4794759898478
29,211,29,0.9676333333333308,4.501206344290557,143.27701101988563,20.230406392072272,30.26203573184438,38.29994986029356,40.46081278414452,46.29901548629982,100.83104096624999,70.56995842810173,68.4420228927911,70.45502356610848,80.52002693269537,29.188509763102047,25.16250841646729,7.045502356610882,9.05850302992826,24.239737994923832,24.1560080798086,23.14950774314991,62.403020872838965,46.29901548629988,46.47372937309567
30,211,30,1.0009999999999972,4.484485293308723,142.7447665452864,22.060750711860237,32.150976174595165,36.15507630310947,40.31050922959072,44.16705796804377,102.45846747126903,70.30780562229796,68.18777492756783,70.19329771955518,80.22091167949156,31.08560327580301,27.07455769182843,7.01932977195554,9.024852563942773,22.15172326569695,22.06075071186018,22.060750711860237,60.16568375961873,46.127024215707706,46.301089076534765
