,video_id,frame_seq,time_seconds,m1,m3,m4,m5,m6,m7,m8,m9,m10,m11,m12,m13,m14,m15,m16,m17,e1,e2,e3,b1,b2,b3
0,275,0,0.0,6.676875252493859,154.6529203513338,18.88505507269997,28.718326344709546,43.52790120529598,48.14763216548591,34.37131904859276,87.05580241059135,58.3988076077617,54.29453333401261,28.32758260905007,61.37642898627519,11.80315942043751,40.13074202948758,7.08189565226246,11.80315942043751,29.859893883724464,24.073816082742955,25.966950724962544,80.26148405897516,37.770110145400054,64.2161299067932
1,275,1,0.0333666666666666,10.47637458643173,148.8972590211044,19.317480250172483,23.889809695165678,43.195198993395344,47.779619390331355,29.6316620492658,83.02155055794164,59.26332409853135,51.53694861262875,28.1110628796157,60.907302905833944,16.398120013109065,35.13882859951957,2.3425885733013274,7.027765719903982,25.23045108507526,28.111062879615588,28.111062879615474,84.33318863884688,37.48141717282084,67.08152803480758
2,275,2,0.0667333333333332,6.625841062845873,148.8972590211044,19.317480250172594,29.631662049265653,40.03017108804868,44.447493073898556,34.10860447801274,88.89498614779714,59.26332409853149,53.879537185930076,32.79624002621824,65.59248005243649,16.398120013109178,35.13882859951957,2.3425885733013274,7.027765719903869,23.88980969516559,23.425885733012933,21.08329715971172,89.01836578544953,37.4814171728209,72.73350850678374
3,275,3,0.1000999999999998,19.539907191408243,141.3816478675144,19.539907191408243,29.972849402274132,39.07981438281649,43.692560754025855,27.633601757601227,95.95993923631323,66.00835364757505,52.13035964202152,33.173865226740986,66.34773045348197,26.0651798210107,40.28255063247127,2.369561801910095,2.369561801909981,17.087153154335287,17.087153154335287,14.217370811460341,90.04334847258275,37.912988830561176,69.00268122938726
4,275,4,0.1334666666666664,15.116419586083989,139.20244525688295,19.709399784730135,29.077013637569507,39.418799569460184,40.84231665868804,27.873300481798832,90.69851751650364,62.1430107464466,50.192431756745236,28.681389575282992,66.92324234232694,23.901157979402456,38.24185276704395,0.0,0.0,15.116419586083989,15.116419586083845,14.340694787641496,90.82440032172946,38.24185276704395,69.60122262844192
5,275,5,0.166833333333333,6.718183648678903,137.10691986664037,19.586702838091483,30.044630647547184,39.173405676182966,40.58806094301926,25.582081175931727,81.17612188603852,51.16416235186345,45.12949554475563,28.502839291424607,61.75615179808665,21.377129468568455,30.878075899043324,2.3752366076187172,2.3752366076187172,17.12807476025685,15.022315323773592,14.251419645712303,95.00946430474869,38.003785721899476,64.6134213395896
6,275,6,0.2001999999999996,6.696026146024579,128.8006346057714,19.522103172047224,29.94553928325263,39.044206344094285,44.91830892487894,25.497707919526764,80.90839176280338,50.995415839053805,44.980652201134376,28.408832969137393,66.28727692798736,23.674027474281274,28.408832969137393,9.469610989712464,0.0,14.97276964162646,14.972769641626314,14.204416484568696,89.96130440226841,28.408832969137393,65.94820934930239
7,275,7,0.2335666666666662,4.7186350019533165,128.36074964110878,24.06041195248178,29.843268106330992,34.35218134162551,40.316035129475495,31.653565876132305,89.52980431899297,59.686536212661984,54.26430252246291,37.74908001562642,75.49816003125284,28.3118100117199,28.311810011719672,9.437270003906633,1.1368683772161603e-13,14.921634053165496,19.45543052179001,16.515222506836494,89.65406503711267,28.311810011719842,74.60817026582728
8,275,8,0.2669333333333328,6.775769133151461,131.82310654954617,24.430383040283623,30.302160763142766,34.880406457821245,34.880406457821685,30.302160763142908,90.90648228942847,60.60432152628571,55.09871147076751,33.53834611264108,76.65907682889383,26.35155765993227,31.142749961738105,2.395596150902975,2.395596150902975,17.274889514769498,21.42686336022328,19.164769207223458,91.03265373431145,23.95596150902935,75.75540190785694
9,275,9,0.3002999999999994,14.923710973497478,134.31339876147737,24.063760885889703,29.847421946995027,35.94105543078592,43.509720389519835,27.517963357589917,95.55837544684442,65.7321283306535,54.271855491045926,37.75433425464064,80.22796029111146,35.39468836372566,30.675396581895598,2.3596458909150897,7.078937672745155,21.105314459656267,19.458138494594877,18.877167127320263,84.94725207294152,18.87716712732032,65.73212833065338
10,275,10,0.333666666666666,19.754591932991808,140.91319305531508,19.754591932991808,34.880406457821515,39.50918386598334,40.93596497116605,32.14029504033476,106.05756267099979,71.22619414026921,57.49430762167037,43.120730716252865,86.24146143250562,35.933942263544054,35.93394226354394,2.395596150902975,11.97798075451476,21.426863360223074,24.430383040283623,21.560365358126433,86.24146143250562,19.164769207223458,66.73358669020777
11,275,11,0.3670333333333326,28.816852661851033,145.3250548971748,21.186571439715685,29.96233667023246,39.066107457214386,49.460549037262425,31.779857159573677,110.90112793269007,80.95377580326074,61.58699813416786,42.63715255442389,90.01176650378386,37.89969115948804,37.89969115948793,0.0,14.212384184808002,21.186571439715685,19.533053728607122,18.949845579743965,85.2743051088479,18.949845579743965,64.43644144949465
12,275,12,0.4003999999999992,24.61471239755229,148.08221553424227,21.58853090120939,35.14358214741431,39.8072840822685,45.79618978830172,36.76394337894364,117.55346596723061,82.48966074907878,65.16912054976979,43.446080366513115,91.7195029959721,33.79139584062125,43.446080366513115,0.0,9.654684525891753,21.58853090120934,24.61471239755229,24.136711314729496,86.89216073302623,19.30936905178362,51.992067332818785
13,275,13,0.4337666666666658,30.53079319220119,143.52720389557948,24.61471239755229,35.14358214741418,39.80728408226853,45.796189788301675,28.148000515191157,117.55346596723061,82.48966074907894,62.755449418296735,43.446080366513115,91.7195029959721,43.446080366513115,43.446080366513115,0.0,14.48202678883763,21.58853090120939,24.614712397552342,24.136711314729496,82.06481847008035,19.30936905178362,56.502592554116134
14,275,14,0.4671333333333324,15.091653558090846,146.39681850966195,24.33456016667123,25.700159934143873,34.743595636065045,36.34551473402385,32.0142317107323,96.6337326807515,70.94682485703893,59.65499862718946,38.17919912140121,85.90319802315275,33.40679923122616,28.63439934105088,4.772399890175166,4.772399890175166,25.700159934143823,29.029375231556724,26.248199395963297,81.13079813297753,23.861999450875715,55.85950856845159
15,275,15,0.5004999999999991,0.0,146.57960678205183,24.61471239755229,25.996033666409275,36.76394337894384,41.24483037453918,36.763943378943814,87.02615026632921,61.061586384402126,57.92810715535086,43.446080366513115,86.89216073302623,31.37772470914831,16.89569792031068,12.068355657364691,2.413671131472938,25.996033666409275,29.363576637972304,26.550382446202548,82.0648184700803,19.309369051783563,58.32899849345154
16,275,16,0.5338666666666656,4.844660455324629,142.48573862738044,24.703018198432236,26.08929498653111,35.269660491016026,36.89583480270468,36.89583480270454,89.06799877316739,62.98058591922171,58.135925463897024,43.6019440979228,87.20388819584548,31.490292959610883,16.956311593636542,16.956311593636656,7.266990682987171,26.08929498653094,24.703018198432204,24.22330227662377,82.35922774052074,24.223302276623713,62.980585919221674
17,275,17,0.5672333333333321,19.877603396600993,145.0320047229473,24.582510565089553,25.96202474088143,36.71584749522046,44.44767242458033,36.715847495220295,106.71798107170568,80.81513829457435,67.49437749626532,53.031296604208364,91.59951231636,38.56821571215153,28.926161784113788,4.82102696401887,9.642053928037853,21.56028802581161,21.56028802581166,19.28410785607582,81.95745838832221,24.105134820094747,56.42867387532944
18,275,18,0.6005999999999987,44.57888045760768,156.4526480488281,20.297693581733807,26.510702142387707,45.38702263521839,51.39672898520548,31.135240663083607,121.78616149040285,95.58569592293176,71.38225009480573,59.074965595701315,93.53536219319369,46.76768109659679,41.84476729695518,7.384370699462693,22.153112098387965,11.007969903370766,13.92410292369405,9.845827599283552,78.76662079426842,29.537482797850657,48.48507798317156
19,275,19,0.6339666666666652,43.65308541645333,152.21435025683448,19.876159799998216,29.32303245555032,44.444444444444265,49.16145055599752,32.338083338177725,123.93921718732933,94.71127243938736,69.89981418601144,62.668798925389524,91.59285996787696,48.206768404145805,43.38609156373127,9.641353680829184,24.103384202072903,15.244318679334063,15.244318679334151,12.051692101036451,77.1308294466333,33.744737882902086,50.32934379433468
20,275,20,0.6673333333333318,34.408681717473726,158.42946823028035,20.063536785963276,29.59946721438517,49.62490650138868,48.90392522711756,29.59946721438517,113.60077207099022,84.0022974096845,65.69265287011115,58.3934692178766,87.5902038268149,43.79510191340739,38.92897947858444,4.866122434823069,19.464489739292162,6.881736343494651,10.88098055110107,9.732244869646081,72.99183652234575,34.06285704376137,46.16409080185532
21,275,21,0.7006999999999983,33.786475360676604,146.08061376951352,19.900743804199813,29.3593009078241,43.7070781215881,48.507125007266566,24.611128165658993,107.16878517017683,77.82722078980393,60.33299171549413,62.746311384113824,82.05286873307193,48.266393372395214,33.78647536067672,0.0,24.133196686197607,10.792693660942152,10.792693660942152,9.653278674479054,67.57295072135332,33.78647536067666,39.8014876083998
22,275,22,0.7340666666666649,29.1040436535811,149.01786545169784,23.923376515698237,29.10404365358114,43.32707763086364,43.06207772825701,19.72772165912888,101.49829057877525,72.40527581766843,57.41610363767563,57.41610363767575,71.7701295470946,45.45441537982663,35.885064773547356,2.3923376515698465,21.53103886412839,14.354025909418908,15.13047182227793,11.961688257849119,62.20077894081538,38.277402425117145,34.8329619913833
23,275,23,0.7674333333333314,14.5811140943581,146.1348064715705,24.783128432351734,34.36801551125116,44.01253462251235,43.74334228307407,20.039824516740225,93.49110988400913,59.128969642109915,51.03389933025346,58.32445637743251,68.04519910700458,43.74334228307441,29.1622281887162,4.860371364786033,14.5811140943581,14.581114094358156,14.5811140943581,12.150928411965083,63.18482774221849,43.743342283074355,44.810409876597916
24,275,24,0.800799999999998,14.564994642813872,150.81784507297982,29.531801222434176,29.129989285627857,43.96387867519594,43.694983928441616,19.419992857085276,92.37264082578275,63.301432071464035,55.832479464119956,58.2599785712556,67.96997499979818,43.694983928441616,29.129989285627857,4.854998214271291,14.564994642813872,14.564994642813872,14.564994642813929,14.564994642813929,58.2599785712556,38.83998571417038,44.76087187655175
25,275,25,0.8341666666666645,14.441071045706394,149.30202078529288,24.068451742844104,29.280535284732462,38.509522788550385,43.32321313711918,24.545101019745555,91.96542497996258,62.76284339658108,55.35743900854129,62.57797453139449,67.39166487996329,40.9163679628349,26.47529691712839,7.220535522853197,16.847916219990793,9.627380697137653,15.22222545224725,12.034225871421995,57.76428418282558,43.32321313711918,43.589820042025416
26,275,26,0.867533333333331,19.47602254417859,151.0176866471241,24.345028180223267,29.214033816267943,43.821050724402085,43.821050724402085,20.075424529139898,92.63915020091744,63.48406650689518,53.55906199649121,58.428067632535885,63.29707326858056,41.38654790637952,31.64853663429028,2.434502818022338,17.041519726156253,15.397147750097956,14.607016908134028,14.607016908133971,53.55906199649121,43.821050724401914,48.93290104078561
27,275,27,0.9008999999999976,14.804664203952143,157.91641817548907,25.163090556046857,34.54421647588822,44.41399261185643,49.34888067984048,19.739552271936077,93.89264895697798,59.42392140638338,51.81632471383239,59.21865681580846,59.21865681580846,39.47910454387238,34.54421647588822,0.0,14.804664203952143,14.804664203952143,14.804664203952086,14.804664203952086,54.283768747824354,44.413992611856315,44.41399261185643
28,275,28,0.934266666666664,19.27570946363744,149.46445276890918,24.094636829546744,28.913564195456047,43.37034629318396,48.42962065460467,24.094636829546744,96.37854731818697,67.46498312273093,57.82712839091221,67.46498312273093,62.64605575682151,40.96088261022942,31.323027878410812,2.4094636829547653,16.866245780682675,14.456782097728023,9.637854731818663,12.047318414773315,48.18927365909349,43.37034629318413,53.00820102500256
29,275,29,0.9676333333333308,19.51074434719021,166.12800188755807,24.38843043398765,29.266116520785204,48.7768608679753,49.020138491187055,20.111214944471843,92.80430704016084,63.59724573774797,53.654546954772854,63.40991912836796,53.654546954772854,39.02148869438031,34.14380260758276,4.877686086797553,14.633058260392659,14.633058260392602,14.633058260392602,14.633058260392602,48.77686086797536,48.77686086797536,43.89917478117786
30,275,30,1.0009999999999972,19.506393963766868,161.2230307249788,19.506393963766868,29.25959094565019,48.76598490941706,49.00920828810997,24.86587086526892,92.78361411774975,63.583065222709656,53.64258340035883,63.395780382242265,53.64258340035883,34.136189436592076,34.13618943659185,4.87659849094166,14.629795472825208,14.629795472825151,14.629795472825094,14.629795472825094,43.8893864184754,48.76598490941706,49.009208288109974
