,video_id,frame_seq,time_seconds,m1,m3,m4,m5,m6,m7,m8,m9,m10,m11,m12,m13,m14,m15,m16,m17,e1,e2,e3,b1,b2,b3,label_measures
0,214,0,0.0,31.04082721457769,155.7421069617866,18.10714920850376,31.14842139235749,41.70985828738767,46.84777423906323,28.571428571428545,108.7660033871199,77.64516832748537,62.081654429155606,49.147976423081445,62.08165442915549,27.160723812755464,53.0280798249039,16.813781407896386,9.053574604251708,21.330768218708567,23.28062041093324,21.987252610325868,82.7755392388741,64.66839003037046,80.35551650709142,"{'others': ['m1', 'm3', 'm12', 'e1', 'e2']}"
1,214,1,0.0333666666666666,28.47016955940853,155.63654433786127,20.86671319324672,33.74596324876789,41.49195805467867,44.30280036475229,26.01106027129793,108.98123781038124,75.23600436865216,60.822634967827184,49.17574742079648,59.5285363514904,28.47016955940853,54.3521418861435,18.1173806287145,7.764591698020581,20.866713193246863,23.437122755320026,21.999676477724847,80.23411421287847,67.29312804951098,85.44971478939217,"{'others': ['m1', 'm3', 'm12', 'e1', 'e2']}"
2,214,2,0.0667333333333332,31.25991233072193,161.8453260885963,18.420079990292063,31.36826590459542,42.00424506658286,47.1784242565164,26.17985257090821,107.09023262411948,75.72422968735964,59.91483196721708,46.88986849608296,57.30983927299019,26.04992694226837,54.70484657876341,18.23494885958769,5.209985388453674,23.5892121282582,23.589212128258083,23.444934248041363,80.75477352103167,70.33480274412432,88.56975160371212,"{'others': ['m1', 'm3', 'm12', 'e1', 'e2']}"
3,214,3,0.1000999999999998,28.27200712753745,157.30692549299624,20.561459729118155,30.949095250775702,43.76863024682353,46.54798421236704,26.210821096681368,105.6591977379934,74.7123352152654,60.39928795428455,46.26328439051576,59.11419672121463,26.986915894467643,52.68874055586525,16.70618602990851,6.425456165349488,20.72147350217644,20.72147350217644,21.84655096218808,79.6756564503329,66.82474411963403,87.42399247920964,"{'others': ['m1', 'm3', 'm12', 'e1', 'e2']}"
4,214,4,0.1334666666666664,28.43685301238054,160.61366798811716,20.842294412390142,31.129550461072203,44.02383245262599,46.81939202612893,25.980621439138258,106.27526591682324,75.1479612021893,60.75145870826736,46.53303220207715,56.87370602476096,25.85168455670953,54.28853756909007,18.096179189696727,5.170336911341906,18.27990145514492,18.27990145514492,18.096179189696613,82.72539058147049,67.21437984744477,82.76577398176762,"{'others': ['m1', 'm3', 'm12', 'e1', 'e2']}"
5,214,5,0.166833333333333,31.22285569003861,164.43543290138854,18.398244155362608,31.331080817632053,44.30883941610248,47.12249723096415,28.738976090334678,109.5584157355884,78.23040722791946,62.44571138007712,46.83428353505781,59.84380673924056,24.71809408794718,55.94094977798591,19.51428480627408,6.504761602091435,7.80571392250954,8.22794491960582,7.805713922509767,83.26094850676964,65.04761602091378,83.62604089688215,"{'others': ['m1', 'm3', 'm12', 'e1', 'e2']}"
6,214,6,0.2001999999999996,33.627562815792544,166.055531711263,20.85492914369396,33.72690590612583,44.05051997958389,49.21600133649992,25.996371056934198,114.08061221040916,80.35551650709142,63.375022229762976,49.147976423081445,62.081654429155606,29.747459413970432,58.20155102733327,19.400517009111127,9.05357460425182,7.760206803644451,9.326607846248232,7.760206803644451,82.7755392388741,62.081654429155606,77.98911317080284,"{'others': ['m1', 'm3', 'm12', 'e1', 'e2']}"
7,214,7,0.2335666666666662,38.88716294555098,166.27700629878703,20.693884809718497,33.72690590612583,46.63303923124096,49.41951427084383,28.92058322067553,122.01607427739825,88.29070872543655,68.54849343219257,54.32144762551116,69.84186123280006,33.62756281579266,59.49491882794064,20.693884809718497,12.93367800607416,8.179976204483813,9.326607846248232,7.760206803644451,77.6020680364444,62.08165442915549,83.1385031493934,"{'others': ['m1', 'm3', 'm12', 'e1', 'e2']}"
8,214,8,0.2669333333333328,40.916976101224655,161.12062268611552,20.418646750775,33.278322752158935,45.9419551892438,48.762212304252806,28.535926339555004,122.93653301020356,89.65913582442049,68.91293278386559,58.70360940847809,68.91293278386559,35.7326318138563,58.70360940847809,22.9709775946219,15.313985063081304,10.523529660702527,10.523529660702527,10.209323375387498,76.56992531540618,63.80827109617178,86.92925614707883,"{'others': ['m1', 'm3', 'm12', 'e1', 'e2']}"
9,214,9,0.3002999999999994,41.145859220676016,162.33804667635346,20.733032644518595,36.09435340450786,43.79304587668161,48.92833513418432,28.75154319064618,126.42835242251556,90.33659834335138,69.43363743489067,64.29040503230624,74.57686983747521,41.145859220676016,56.575556428429536,18.001313409045792,18.00131340904568,13.112721191860537,15.642530671528254,14.14388910710727,77.14848603876749,64.29040503230624,85.01904731421322,"{'others': ['m1', 'm3', 'm12', 'e1', 'e2']}"
10,214,10,0.333666666666666,44.09849525956165,166.05475823536912,23.30597525992914,33.66418648656429,44.09849525956177,49.26960232565044,28.952080535072128,129.71049070847096,96.12788352823418,73.80225498977552,67.32837297312858,77.68658419976373,44.02239771319944,56.97016174649343,20.71642245327041,20.716422453270297,18.126869646611453,18.310903498290894,18.126869646611567,75.097031393105,56.97016174649343,78.07405086373609,"{'others': ['m1', 'm3', 'm12', 'e1', 'e2']}"
11,214,11,0.3670333333333326,46.42672091056808,165.14022931069096,23.32025293368815,36.14593334538926,46.426720910567965,48.99825522958992,28.328202319104665,134.13781483189467,97.99651045918006,74.68344247763946,69.53286023780231,79.83402471747672,46.3552401585348,59.2316957581279,20.602328959348824,23.1776200792674,15.45174671951156,15.664884328850556,15.45174671951156,72.10815135772089,51.50582239837206,75.08199317733813,"{'others': ['m1', 'm3', 'm12', 'e1', 'e2']}"
12,214,12,0.4003999999999992,46.059311119207,164.0859841110725,23.171377854539717,35.915179901033774,43.50046050147307,48.68545334248415,25.588506177337194,130.60169003691195,94.71204560619763,71.64781729654419,66.5301160610768,76.7655185320117,46.059311119207,58.85356420787559,20.4708049418698,23.029655559603498,17.911954324136104,18.093806238429053,17.911954324136104,71.64781729654419,53.7358629724082,77.14839132375671,"{'others': ['m1', 'm3', 'm12', 'e1', 'e2']}"
13,214,13,0.4337666666666658,49.31509405696704,166.20808032625047,23.327494190761627,36.3796648340297,46.72693135159965,49.31509405696681,26.048712796619476,135.00519404282986,98.63018811393395,73.87039827074534,69.982482572285,80.35025776817918,49.246932180496856,59.614707376390925,20.735550391788134,23.32749419076174,18.32781036708598,18.32781036708598,18.14360659281465,69.98248257228511,51.83887597947046,78.14613838985854,"{'others': ['m1', 'm3', 'm12', 'e1', 'e2']}"
14,214,14,0.4671333333333324,49.0175612836424,165.205297060111,23.329441466250067,33.49197570669344,46.3735048246524,49.0175612836424,28.33936405950976,134.06695489415188,100.6079586187214,76.00102179595808,69.5602572369786,79.86548053134584,46.373504824652514,59.25503394261136,20.61044658873436,23.186752412326317,18.217233182721596,18.217233182721596,18.034140765142524,69.5602572369786,51.52611647183608,77.67465926720102,"{'others': ['m1', 'm3', 'm12', 'e1', 'e2']}"
15,214,15,0.5004999999999991,46.38986520788319,162.69146443225483,23.337671997981253,33.60276898225089,43.88838544934945,49.03485447920004,28.34936207148405,131.5389798395749,97.96806473455244,74.73922727936724,69.58479781182461,79.89365674690976,46.38986520788319,56.69872414296822,20.617717870170168,23.19493260394165,18.223660148235517,18.22366014823559,18.040503136399025,67.00758307805336,48.96707994165433,69.7754414507595,"{'others': ['m1', 'm3', 'm12', 'e1', 'e2']}"
16,214,16,0.5338666666666656,46.426720910567965,164.9996074732339,23.177620079267516,36.14593334538926,43.77994903861622,48.99825522958992,25.881355443359023,131.56688245749947,95.42487482701404,72.10815135772089,66.95756911788362,74.68344247763946,45.06759459857551,60.51934131808719,21.889974519308225,21.889974519308,18.02703783943025,18.21005814423945,18.02703783943025,72.10815135772089,54.08111351829064,75.08199317733813,"{'others': ['m1', 'm3', 'm12', 'e1', 'e2']}"
17,214,17,0.5672333333333321,41.55202008156267,166.20808032625047,23.327494190761627,33.79481249683657,44.13921239148706,49.31509405696704,28.628954995922367,127.24305915632438,93.45386270319956,72.5744263712586,67.3905387733115,77.75831396920557,44.06304458254988,54.43081977844395,18.14360659281465,20.73555039178825,20.735550391788134,20.89691897642873,20.735550391788134,72.5744263712586,54.43081977844395,72.75932966805965,"{'others': ['m1', 'm3', 'm12', 'e1', 'e2']}"
18,214,18,0.6005999999999987,36.17293255241619,167.83585361837137,23.194932603941535,33.50379153902668,43.88838544934922,49.03485447920025,28.466267153318032,121.238711597908,87.77677089869867,69.58479781182461,61.85315361051085,72.16201254559599,38.658221006569306,54.12150940919685,18.04050313639891,15.463288402627768,18.040503136399025,20.77816945637671,20.61771787017028,72.16201254559599,59.27593887673959,75.13807567653448,"{'others': ['m1', 'm3', 'm12', 'e1', 'e2']}"
19,214,19,0.6339666666666652,38.49632726786744,166.76281379724242,23.046638387921234,30.728851183895017,43.60778994930028,48.72135560309551,28.28427124746197,120.46358541001536,89.77202455911656,70.42028396309286,61.457702367790034,71.70065276242178,38.411063979868686,53.775489571816365,17.92516319060553,15.364425591947452,17.925163190605417,15.576358715042195,16.644794391276378,71.70065276242178,56.33622717047422,72.11102550927971,"{'others': ['m1', 'm3', 'm12', 'e1', 'e2']}"
20,214,20,0.6673333333333318,38.74403292349308,165.26358081463533,20.61771787017028,30.926576805255426,41.23543574034056,43.88838544934922,28.46626715331792,118.66387766296738,87.77677089869856,68.29619044493893,59.275938876739474,69.58479781182461,36.081006272797936,54.12150940919696,20.61771787017028,15.463288402627654,12.886073668856511,12.886073668856396,12.886073668856396,72.16201254559599,56.69872414296822,67.2055379645018,"{'others': ['m1', 'm3', 'm12', 'e1', 'e2']}"
21,214,21,0.7006999999999983,38.65822100656919,165.1228539396888,20.77816945637671,33.60276898225091,38.7440329234933,43.88838544934945,28.349362071484165,121.238711597908,87.66319297202635,68.29619044493904,59.27593887673959,67.00758307805336,34.792398905912364,57.98733150985379,21.906325237055853,11.597466301970826,10.30885893508514,10.626128567237073,10.30885893508514,74.73922727936724,67.00758307805336,77.48806584698637,"{'others': ['m1', 'm3', 'm12', 'e1', 'e2']}"
22,214,22,0.7340666666666649,35.86135103209347,164.11761312257585,20.65167537306792,35.861351032093694,40.98440117953555,46.17854998343824,28.17677581093062,120.4189256483203,84.5691295130694,66.59965191674507,56.35355162186124,64.0381268430242,32.0190634215121,60.19583923244284,21.77296312662816,11.526862831744324,8.100253516589035,7.684575221162845,7.684575221162845,76.84575221162902,66.59965191674519,79.57236535811718,"{'others': ['m1', 'm3', 'm12', 'e1', 'e2']}"
23,214,23,0.7674333333333314,33.51422766543544,165.17428820720045,23.344941470595103,33.613235939233086,43.90205628233218,49.05012839048826,28.358192639983827,118.70084038182848,85.1136298283289,68.31746408723359,56.71638527996754,64.4504378181449,32.2252189090724,58.00539403633047,21.91314885816928,9.023061294540298,10.312070050903117,8.152407188015635,9.023061294540298,74.76250786904814,69.60647284359652,82.5368321013046,"{'others': ['m1', 'm3', 'm12', 'e1', 'e2']}"
24,214,24,0.800799999999998,31.145201507807656,163.59468187986306,20.76346767187169,33.740634966791504,41.52693534374339,46.71780226171131,28.667499550564944,114.22856194974216,80.50028817397464,64.88583647459916,54.5041026386632,59.69496955663124,28.54976804882369,57.09953609764716,20.76346767187169,7.786300376951999,12.97716729491981,12.97716729491981,12.97716729491981,77.86300376951897,72.67213685155104,83.09441443932191,"{'others': ['m1', 'm3', 'm12', 'e1', 'e2']}"
25,214,25,0.8341666666666645,25.45912219573802,160.4732720900797,20.525800518746784,30.550946634885463,40.81407772634626,45.82641995232848,28.005034415311684,104.41344409644675,73.87533636519491,61.10189326977104,50.91824439147581,56.01006883062348,25.45912219573802,50.91824439147581,15.275473317442676,5.091824439147672,15.275473317442788,15.486179454651852,15.275473317442676,73.83145436764005,71.28554214806616,84.01510324593528,"{'others': ['m1', 'm3', 'm12', 'e1', 'e2']}"
26,214,26,0.867533333333331,20.361936801824186,160.43103330302344,20.3619368018243,33.08814730296433,43.34391111960501,45.81435780410448,28.113117873162416,101.8414945657508,68.76865466623887,58.54056830524462,48.359599904332526,53.45008410478852,22.90717890205224,50.90484200456058,15.271452601368196,2.545242100227938,17.997579488327343,17.816694701596134,17.816694701596134,76.35726300684087,68.72153670615683,76.35726300684087,"{'others': ['m1', 'm3', 'm12', 'e1', 'e2']}"
27,214,27,0.9008999999999976,22.91320997616413,160.41267421312887,20.367297756590347,30.550946634885577,43.280507732754586,45.89708525251821,28.12051958326113,101.868307714765,71.3309903784709,59.82893715998421,48.372332171902144,50.91824439147592,21.640253866377293,52.19120050126276,19.0943416468034,3.8188683293607255,20.52580051874676,22.91320997616424,22.91320997616424,76.37736658721383,66.19371770891871,76.41978667745299,"{'others': ['m1', 'm3', 'm12', 'e1', 'e2']}"
28,214,28,0.934266666666664,22.90717890205224,157.88709344996877,20.361936801824186,33.088147302964444,43.34391111960501,45.81435780410448,28.11311787316253,104.38596103229834,71.3122150741859,59.813189355358645,50.90484200456058,55.99532620501657,25.45242100228029,50.90484200456058,15.271452601368082,5.090484200456103,20.52039784385917,22.90717890205224,22.90717890205224,76.35726300684087,68.72153670615671,78.90250510706869,"{'others': ['m1', 'm3', 'm12', 'e1', 'e2']}"
29,214,29,0.9676333333333308,30.74649768096356,156.3156968401281,17.935456980562094,30.74649768096356,43.55753838136502,46.11974652144545,28.30051390836276,107.64324003954192,76.90893581592097,61.49299536192712,53.80637094168617,56.36857908176648,26.903185470843027,52.52526687164618,16.654352910521993,8.967728490280933,23.201781512497785,23.059873260722725,24.340977330762826,76.86624420240878,69.17961978216795,79.42845234248921,"{'others': ['m1', 'm3', 'm12', 'e1', 'e2']}"
30,214,30,1.0009999999999972,25.615250737209635,151.3252237881088,20.492200589767776,33.39820084317738,40.98440117953555,43.54592625325654,28.29296919382528,107.70596141085488,74.32837824263095,61.476601769303215,53.79202654814037,61.476601769303215,29.457538347791115,49.949738937559005,14.088387905465424,11.526862831744324,23.19559608353914,23.19559608353925,24.334488200349256,79.40727728535,71.72270206418716,79.40727728534989,"{'others': ['m1', 'm3', 'm12', 'e1', 'e2']}"
31,214,31,1.0343666666666638,15.369150442325804,146.09677962856952,20.492200589767776,35.95271767961833,35.86135103209358,41.06437081885483,30.844846441158936,102.58899925476976,66.64889381028708,58.91507669558223,56.35355162186136,61.476601769303215,28.17677581093062,43.54592625325654,5.1230501474419725,7.684575221162845,20.65167537306792,25.615250737209635,24.334488200349256,79.40727728535,69.16117699046617,76.88843244386226,"{'others': ['m1', 'm3', 'm12', 'e1', 'e2']}"
