,video_id,frame_seq,time_seconds,m1,m3,m4,m5,m6,m7,m8,m9,m10,m11,m12,m13,m14,m15,m16,m17,e1,e2,e3,b1,b2,b3,label_measures
0,190,0,0.0,9.258614337949322,132.56318338464297,16.74051379370148,28.18823227572786,38.81659356349275,42.38942947203942,39.65687694843484,93.80664574123308,65.61919657366273,59.01231897254172,39.94680053525906,70.81478276705013,17.249754776589157,35.40739138352501,0.9078818303468096,0.9078818303468096,14.973170728395791,16.74051379370148,16.341872946242347,79.89360107051806,36.31527321387188,60.358780860802725,"{'others': ['m1', 'm3', 'm12', 'e1', 'e2']}"
1,190,1,0.0333666666666666,9.32222300391558,131.6966261412273,15.076039622223265,28.381891476291056,37.690099055558,41.24693715574516,38.73967601374371,91.41191732121057,63.04109399144672,55.76126956593839,40.22124362133263,71.30129551054426,19.19650263745416,31.99417106242379,2.7423575196362435,0.9141191732120432,15.620475279181564,16.85552471338566,16.454145117817916,80.44248724266532,34.73652858206003,62.53537301450309,"{'others': ['m1', 'm3', 'm12', 'e1', 'e2']}"
2,190,2,0.0667333333333332,9.437371027494518,131.5255251840576,15.813419264216671,28.312113082483663,37.7494841099781,39.9537284821872,39.95372848218707,93.3701913626326,65.09523592795053,58.30085305098498,38.86723536732336,70.3311878075375,15.731976220107072,36.09100426965745,2.7762310976660274,0.925410365888638,14.09543075284498,15.262258742401585,14.806565854218434,77.73447073464672,33.31477317199142,65.09523592795053,"{'others': ['m1', 'm3', 'm12', 'e1', 'e2']}"
3,190,3,0.1000999999999998,7.403282927109217,134.70364326213598,15.262258742401585,26.499720057789567,37.7494841099781,39.56602814533887,42.20520629272978,91.14235101945438,64.64638895588486,59.22626341687385,40.71805609910075,70.3311878075375,14.80656585421832,33.31477317199153,1.8508207317773893,1.8508207317773893,15.262258742401585,15.262258742401585,14.806565854218434,79.585291466424,37.01641463554603,66.06159719246178,"{'others': ['m1', 'm3', 'm12', 'e1', 'e2']}"
4,190,4,0.1334666666666664,7.596646374012587,128.7085390291182,15.193292748025009,28.18417834722635,39.38724003011743,41.56773309635359,42.01449244958395,92.94827687401452,64.80108826928998,58.9586360480356,42.37651965952568,71.85583768354343,16.582116388510144,33.16423277701995,1.1368683772161605e-13,1.1368683772161605e-13,15.741962725413392,14.854366259605897,14.739659012008872,77.38320981304679,35.00669015352116,66.14909522029716,"{'others': ['m1', 'm3', 'm12', 'e1', 'e2']}"
5,190,5,0.166833333333333,5.502503444319814,133.10044140461227,15.124935270837254,28.05737243619844,41.013239159752935,42.54320517003414,43.17118311215962,91.72673058301096,63.66966895755001,59.61045398013175,42.18585973978554,69.69837696138484,13.756258610799591,33.93210457330588,0.9170839073867684,2.751251722159964,13.35294324693098,14.787533676335762,14.673342518186246,77.03504822047802,33.01502066591917,64.50953600431487,"{'others': ['m1', 'm3', 'm12', 'e1', 'e2']}"
6,190,6,0.2001999999999996,7.484484315599843,135.4076429131671,13.6219670705408,26.790376795414048,38.16353157442239,40.00000000000003,44.47604031302247,92.14202718014468,65.35544959773854,59.875874524798405,43.0357848146989,69.23147991929818,13.09784755229964,33.680179420199124,1.8711210788999324,1.8711210788999324,15.42965969324836,15.42965969324836,14.968968631199688,80.45820639269795,35.55130049909906,64.00218814640137,"{'others': ['m1', 'm3', 'm12', 'e1', 'e2']}"
7,190,7,0.2335666666666662,4.119859939502439,139.11468290319831,15.193292748025009,26.379975033456454,37.57890446296857,39.387240030117205,41.1985993950241,79.54637690927441,53.1765246180875,53.431263918532295,35.00669015352116,62.64355080103781,8.291058194255015,28.55808933576725,2.763686064751596,6.448600817753913,15.193292748025009,15.193292748025009,15.660887700259424,77.38320981304679,33.164232777020004,66.14909522029691,"{'others': ['m1', 'm3', 'm12', 'e1', 'e2']}"
8,190,8,0.2669333333333328,4.133917037695737,135.96754159228715,17.044576593960418,26.469984379606856,43.15936095595213,42.88129499002768,41.33917037695837,88.83594385398332,62.365999302248106,59.15980486164767,42.52110974430923,70.2522682732066,15.714323166375152,30.504274381787127,2.773115852889646,2.7731158528897595,15.245132764718898,17.044576593960418,15.714323166375207,75.79849997898617,31.42864633275036,65.51965081353407,"{'others': ['m1', 'm3', 'm12', 'e1', 'e2']}"
9,190,9,0.3002999999999994,2.6026756245132177,137.15384416293475,15.176076364422885,24.553592734521175,41.52063033526547,42.96386051966927,42.96386051966938,84.83684595644407,60.2843951454479,57.97164187465,42.3285004164112,69.93404416624446,13.80277187491663,26.685358958172174,4.600923958305543,2.7605543749833714,15.724124612673553,15.17607636442294,15.643141458238915,73.61478333288892,29.445913333155545,64.72765847286766,"{'others': ['m1', 'm3', 'm12', 'e1', 'e2']}"
10,190,10,0.333666666666666,1.858696727529377,139.98343471065692,13.531516427259456,24.798107335787133,41.56172232311977,41.93410955521132,43.74852515011485,83.86821911042244,59.07030607824453,56.6902501896443,44.60872146070369,70.63047564611418,14.869573820234564,24.16305745788111,7.434786910117282,0.0,15.327205867186528,17.13633711208135,16.72827054776394,78.06526255623152,33.45654109552777,65.87237985157218,"{'others': ['m1', 'm3', 'm12', 'e1', 'e2']}"
11,190,11,0.3670333333333326,1.8388715365717871,138.4903464176864,16.651689983214357,26.32863361898419,39.31058352787477,42.928888266145336,41.48683286006188,84.76778941336165,58.440251653234014,57.00501763371949,42.294045341146784,68.03824685314908,14.71097229257282,27.583073048573965,3.677743073143233,3.677743073143233,15.16372315445311,15.163723154453056,15.6304080608586,75.39373299943549,31.26081612171714,65.16977329394776,"{'others': ['m1', 'm3', 'm12', 'e1', 'e2']}"
12,190,12,0.4003999999999992,1.86724352655142,140.2920093845169,13.59373806334213,26.73485869472456,39.61021679253622,43.59123904134064,41.75283455915456,83.85981723974314,57.12666707109358,55.083684033267446,44.81384463723453,69.0880104824032,15.87156997568718,25.20778760844439,6.535352342930082,0.9336217632757098,15.3976845774448,15.054198589899604,15.87156997568718,74.68974106205746,31.743139951374417,67.47960798646797,"{'others': ['m1', 'm3', 'm12', 'e1', 'e2']}"
13,190,13,0.4337666666666658,1.8487439019264684,138.5941541472668,15.245132764718951,26.469984379606856,39.21778049188508,39.21778049188486,39.52163059406896,83.02898017002413,56.560687389353085,54.53794510683144,44.36985364623581,66.55478046935366,16.638695117338443,25.8824146269709,5.546231705779519,0.0,15.245132764718898,17.044576593960418,17.56306706830162,73.94975607705965,31.42864633275036,63.23677092835433,"{'others': ['m1', 'm3', 'm12', 'e1', 'e2']}"
14,190,14,0.4671333333333324,1.851673265434556,137.63551030759493,15.269288915036428,24.3549592808716,39.279921675914245,41.11381864761189,41.40467293630249,81.34727525931035,57.04235701604741,55.55019796303088,42.58848510499036,68.51191082107141,14.813386123474857,24.071752450646727,5.5550197963031,0.0,15.820703314975592,15.269288915036428,15.739222756192078,74.06693061737445,31.478445512384155,65.12522039840192,"{'others': ['m1', 'm3', 'm12', 'e1', 'e2']}"
15,190,15,0.5004999999999991,1.8487439019264684,135.26186654713644,14.905049847926575,24.66532008010542,39.521630594069045,39.21778049188508,43.15936095595204,84.4979114366018,59.87761569769617,58.235432910684494,46.21859754816228,70.2522682732066,15.714323166375266,24.958042676007608,6.47060365674281,0.9243719509631774,15.245132764718898,14.905049847926549,14.78995121541186,73.94975607705965,33.27739023467683,66.81105704502038,"{'others': ['m1', 'm3', 'm12', 'e1', 'e2']}"
16,190,16,0.5338666666666656,0.0,133.75617945640406,15.280918168069476,24.373508277204078,41.14513136969488,39.30983768253552,41.43620717610912,81.04989912659443,56.6934541578194,55.59250558532676,46.3270879877723,70.41717374141388,17.604293435353497,21.31046047437519,8.338875837799037,0.926541759755537,17.084585891207457,17.08458589120741,16.677751675598074,75.97642429994647,35.20858687070688,68.33834356482971,"{'others': ['m1', 'm3', 'm12', 'e1', 'e2']}"
17,190,17,0.5672333333333321,0.0,138.66037238248785,13.253318663390267,26.506637326780503,40.06800674008374,39.75995599017087,41.61626475490827,81.37580829626214,54.86937951964052,54.35476670063508,46.8575575005475,69.34918510081025,16.86872070019706,22.491627600262746,9.371511500109476,1.8743023000218957,15.455892714656796,17.280213381458232,16.868720700197116,76.84639430089794,33.73744140039423,69.1208535258327,"{'others': ['m1', 'm3', 'm12', 'e1', 'e2']}"
18,190,18,0.6005999999999987,1.8306108938365924,137.2347831085005,14.758856862953238,22.27034270516898,37.02181416482557,38.83312130237326,39.51745804070592,76.84205920616161,54.61237275309804,53.08771592125913,45.76527234591299,67.7326030719513,18.306108938365128,18.30610893836524,9.153054469182509,3.661221787672957,17.36669980212031,16.57688668175971,17.390803491446945,76.88565754113387,34.78160698289389,62.61652662213491,"{'others': ['m1', 'm3', 'm12', 'e1', 'e2']}"
19,190,19,0.6339666666666652,2.590638800754149,137.3282942538957,16.588182095543164,24.09433362331652,37.04704065747368,38.85958201131288,39.1606568762561,78.32131375251222,54.248990959595005,54.03981877673925,45.79645659045696,67.77875575387634,18.318582636182786,20.150440899801083,9.159291318091393,1.831858263618301,16.88889870088801,18.6813620646516,17.40265350437363,75.10618880834943,34.80530700874732,64.42830675572192,"{'others': ['m1', 'm3', 'm12', 'e1', 'e2']}"
20,190,20,0.6673333333333318,0.0,136.2149893062673,14.972366214079171,22.592517143507088,39.394901568179165,39.70012396263629,39.70012396263609,77.24258765373327,54.6503199430426,53.85571061653639,42.71314979932197,68.71245837282231,16.71384122582174,20.42802816489313,9.285467347678718,0.0,15.86701355911804,17.121555803733045,16.713841225821625,76.14083225096527,35.28477592117906,67.11279891270766,"{'others': ['m1', 'm3', 'm12', 'e1', 'e2']}"
21,190,21,0.7006999999999983,0.0,139.8157517751289,15.202339001321867,24.585451886114303,40.0000000000001,42.16370213557836,40.30991055421594,79.99999999999997,55.48973879115952,54.6829244117597,45.254833995939066,69.76786907707265,17.91337179005916,21.68460795638748,8.485281374238525,0.9428090415819952,15.54920505292078,15.20233900132184,15.08494466531306,77.31034140972918,35.82674358011843,66.31909394904488,"{'others': ['m1', 'm3', 'm12', 'e1', 'e2']}"
22,190,22,0.7340666666666649,1.865658654125582,134.66385681930166,13.582200017921824,22.696717111284062,37.73061125146239,39.88322669578332,41.424344670265405,75.76044462920079,53.06478974701149,53.17127164258068,44.77580769901533,69.02937020264858,15.8580985600679,17.723757214193597,10.261122597691042,2.798487981188486,11.34835855564207,10.046879326323271,11.193951924753833,76.49200481915119,33.5818557742615,65.61710065496698,"{'others': ['m1', 'm3', 'm12', 'e1', 'e2']}"
23,190,23,0.7674333333333314,3.7431842154802553,135.0921354576353,13.625396212258249,24.61695074682554,39.70246412994774,40.01006944650423,39.4812787647642,73.85085224047654,49.233901493651,50.53298690898316,44.91821058576284,69.24890798638444,17.780125023531127,15.908532915791056,14.036940808050872,2.80738816161022,10.078831951912814,11.836987822508023,11.229552646440766,76.73527641734495,35.560250047062254,63.55150778283417,"{'others': ['m1', 'm3', 'm12', 'e1', 'e2']}"
24,190,24,0.800799999999998,6.038948490191328,135.62784591892645,13.503499336687613,23.23229870749631,38.62095239203519,40.82436378230946,42.40184800397516,73.78893278040199,50.56154478049153,52.51628772895936,45.83239656345541,68.74859484518322,15.277465521151726,15.27746552115184,13.367782331007788,1.9096831901439373,10.283958708339725,11.135270816124264,9.548415950719914,78.29701079590313,34.37429742259161,63.48081068184251,"{'others': ['m1', 'm3', 'm12', 'e1', 'e2']}"
25,190,25,0.8341666666666645,4.127793332835704,131.4298731347769,13.053228642218311,22.22884738711125,35.50862088418263,37.3331467187766,43.09542760024208,74.96236347647543,52.86154707318795,53.534153637887925,46.15013244645513,70.14820131861188,15.691045031794715,15.691045031794827,10.153029138220065,0.923002648929014,11.22881185654392,11.675162627939002,11.076031787149304,75.68621721218648,35.07410065930594,65.42259443807627,"{'others': ['m1', 'm3', 'm12', 'e1', 'e2']}"
26,190,26,0.867533333333331,4.207543630136255,134.32545971918478,11.445756119903084,22.891512239806204,38.37870277690995,38.0544351433456,43.64502672454428,74.55786308259475,51.668909884422455,52.68678002157253,45.16009716134784,71.50348717213421,15.053365720449278,15.053365720449278,13.17169500539319,1.8816707150562024,10.133106913335984,11.90073053203029,11.290024290336987,73.38515788719036,33.87007287101096,68.0009866983513,"{'others': ['m1', 'm3', 'm12', 'e1', 'e2']}"
27,190,27,0.9008999999999976,1.8918292753137396,130.63214710423685,11.507548229599983,23.01509645920001,34.522644688800106,36.39006268977431,43.88065277238571,76.51975862053271,53.50901237686492,53.91713434644339,47.29573188284508,69.99768318661074,15.134634202510483,17.02646347782411,9.459146376569151,1.891829275313853,9.646474391211132,10.187812434526723,9.45914637656898,75.67317101255213,37.83658550627604,64.23867808412076,"{'others': ['m1', 'm3', 'm12', 'e1', 'e2']}"
28,190,28,0.934266666666664,2.664861094716828,131.66139920548005,9.60829331899071,20.813230501348635,36.00029096243147,36.24602958966789,43.70697166313916,72.49205917933546,51.74224303805429,51.81938715234856,43.33985107287333,64.06760593381273,10.363877430469644,17.90124283444777,6.595194728480692,0.9421706754972092,7.769338424869345,8.427030707274977,7.537365403977958,77.25799539077423,41.455509721878855,59.88530496155483,"{'others': ['m1', 'm3', 'm12', 'e1', 'e2']}"
29,190,29,0.9676333333333308,1.9020681374618107,125.39231820663726,11.569828796627313,21.00902925755557,34.44791908739439,34.4479190873944,44.40422776891338,75.05340100019374,54.10038196199871,54.208941917664106,47.55170343654743,68.47445294862837,14.265511030964262,16.167579168426073,8.559306618578603,2.8531022061929434,6.014867579213831,6.858004199045082,6.657238481116622,74.18065736101397,39.94343088669984,59.05607610029674,"{'others': ['m1', 'm3', 'm12', 'e1', 'e2']}"
30,190,30,1.0009999999999972,3.877059430224449,131.62031482214385,9.88460084503676,23.58323182990889,37.28836358514615,37.03555820527354,49.079652296396674,78.71958400270762,55.137455891670285,56.217361738255136,48.46324287780613,69.78706974404076,10.66191343311732,18.41603229356633,8.723383718005039,0.9692648575561408,7.992762773806337,10.439301999406922,9.69264857556118,73.66412917426533,40.70912401735717,57.40797914261791,"{'others': ['m1', 'm3', 'm12', 'e1', 'e2']}"
31,190,31,1.0343666666666638,1.9357130076873543,127.02171765508405,13.68755794166736,25.46032950938566,35.0572536030227,36.98174508548047,43.28385870119498,80.51263122805602,55.05734049277344,55.167820719089605,48.39282519218386,65.81424226137005,14.51784755765516,22.260699588404577,6.774995526905741,0.9678565038436772,7.981149191577013,8.656771740238996,8.710708534593095,73.55709429211947,42.5856861691218,63.407529064327335,"{'others': ['m1', 'm3', 'm12', 'e1', 'e2']}"
32,190,32,1.0677333333333303,2.017912809561267,129.53994385096132,12.27448442740752,24.29888794808733,32.34960326644978,36.37844052144192,45.52618809496853,83.93158967334385,59.75884485020757,57.51051507249349,50.4478202390294,60.53738428683528,11.098520452586513,27.24182292907585,1.0089564047805195,1.0089564047806334,12.274484427407485,14.690627000592094,14.125389666928186,74.6627739537634,44.394081810345824,61.73626075608745,"{'others': ['m1', 'm3', 'm12', 'e1', 'e2']}"
33,190,33,1.1010999999999969,0.0,129.00643318480283,11.823315359366772,23.40574195121883,33.2714878031505,35.04129050068959,47.29326143746712,82.4659495589952,59.11657679683389,58.31223215015325,54.42475000680975,68.03093750851212,14.578058037538312,20.409281252553683,6.80309375085119,2.915611607507685,9.91117365382615,10.467366013348784,11.66244643003074,68.03093750851224,40.818562505107366,61.77305761608989,"{'others': ['m1', 'm3', 'm12', 'e1', 'e2']}"
34,190,34,1.1344666666666634,1.9531957843634016,125.55266475122124,13.672370490544496,25.46655731050838,31.3121104274083,35.211737757713344,45.59781470388845,86.49371981248396,61.05103910088704,59.57247142308643,56.64267774654127,68.36185245272225,17.578762059271526,23.438349412361845,5.8595873530905465,5.8595873530905465,9.95938341833662,9.95938341833662,9.765978921817464,70.3150482370857,44.923503040360345,59.75630051001969,"{'others': ['m1', 'm3', 'm12', 'e1', 'e2']}"
35,190,35,1.16783333333333,6.124840966209263,126.728141637831,14.436388602985827,24.58428392489037,32.66581848644978,34.76742774781092,45.33117971924749,90.40914428008722,65.8400620492231,62.26921648979453,59.20679600668996,65.33163697289922,17.353716070926225,27.56178434794197,1.020806827701449,5.1040341385077,10.41022786811792,10.994426006842035,11.22887510471702,71.45647793910854,44.91550041886825,58.06946470567888,"{'others': ['m1', 'm3', 'm12', 'e1', 'e2']}"
36,190,36,1.2011999999999965,2.063583539878209,130.1530783717793,12.552288634510884,26.905837553020195,35.14156139895075,35.14156139895075,51.95970587406618,89.33195703010672,62.45537091289459,62.93929796628288,61.907506196343775,68.09825681597817,13.413293009207791,23.731210708598496,5.158958849695296,3.0953753098172,10.522252737767417,10.522252737767372,11.349709469329696,72.22542389573448,49.52600495707509,60.72688452871972,"{'others': ['m1', 'm3', 'm12', 'e1', 'e2']}"
37,190,37,1.234566666666663,0.0,129.02227978879495,10.399613141586656,25.04558504545314,33.27876205307712,35.35868468139415,52.37111360878799,87.752031821604,62.70889114843165,62.39767884951948,62.39767884951948,66.55752410615412,12.479535769904032,22.879148911490347,4.159845256634753,4.159845256634753,10.60556606855314,9.30169676971506,9.35965182742791,68.63744673447133,45.75829782298087,60.63964395359218,"{'others': ['m1', 'm3', 'm12', 'e1', 'e2']}"
