,video_id,frame_seq,time_seconds,m1,m3,m4,m5,m6,m7,m8,m9,m10,m11,m12,m13,m14,m15,m16,m17,e1,e2,e3,b1,b2,b3,label_measures
0,256,0,0.0,27.34596759203555,157.81947758684396,19.04717832944664,32.76548561616503,46.25743308579899,48.97845856143431,27.345967592035528,106.15487275977124,73.66896955589951,59.86256046397534,48.97845856143442,48.97845856143442,21.768203805081956,57.14153498834003,21.768203805081956,5.442050951270517,24.639933652560625,24.639933652560707,24.48922928071721,76.18871331778678,70.74666236651626,84.3517897446925,"{'others': ['m1', 'm3', 'm12', 'e1', 'e2']}"
1,256,1,0.0333666666666666,29.84960170468057,154.03998968610108,16.21473575643165,29.84960170468045,45.941751309889696,48.644207269295066,29.84960170468045,105.43042359519958,75.86155384296971,60.805259086618776,51.34666322870032,51.34666322870032,21.61964767524228,54.04911918810558,18.917191715836907,8.107367878215882,24.471779531269437,24.322103634647533,24.322103634647533,75.6687668633478,70.26385494453729,86.52080627131387,"{'others': ['m1', 'm3', 'm12', 'e1', 'e2']}"
2,256,2,0.0667333333333332,30.24991224903703,156.1298290933568,13.693491865936494,32.86438047824754,43.90467487955888,46.55787234418381,32.97829548351928,109.68478436864036,76.87892687913492,61.620713396714,52.03526909055847,54.77396746374575,20.540237798904627,56.14331665033956,20.54023779890474,9.58544430615541,27.52357801429843,27.52357801429843,27.38698373187293,73.9448560760568,68.46745932968224,84.8996495688059,"{'others': ['m1', 'm3', 'm12', 'e1', 'e2']}"
3,256,3,0.1000999999999998,30.254876657284225,156.1554520506993,13.695739147957966,32.86977395509916,46.646006703504014,49.30466093264886,30.254876657284203,106.9671422416411,74.15961367292331,58.89167833621946,49.30466093264886,52.04380876224048,20.54360872193695,56.15253050662784,20.543608721937066,9.5870174035706,27.52809499525888,24.804038547245177,26.02190438112024,71.21784356938167,65.7395479101985,82.22007467737484,"{'others': ['m1', 'm3', 'm12', 'e1', 'e2']}"
4,256,4,0.1334666666666664,30.463442005943435,154.47432845480873,16.548182694186607,33.21108450319686,44.21459163161124,46.88651763352868,30.83571784023892,110.45903340281116,77.66684261975396,62.05568510319961,52.402578531590734,55.16060898062176,23.443258816764228,56.53962420513744,20.685228367733203,9.65310657160876,27.71786297202669,28.126502157385197,28.95931971482645,74.46682212383945,68.95076122577728,85.54341671564751,"{'others': ['m1', 'm3', 'm12', 'e1', 'e2']}"
5,256,5,0.166833333333333,24.65233046632443,150.65313062753808,16.43488697754958,32.86977395509928,41.17842114642731,46.56551310305736,30.624603736939203,104.23168350003785,71.42823647551677,58.89167833621946,54.78295659183209,54.78295659183209,24.65233046632443,49.30466093264886,13.695739147957966,10.956591318366463,30.254876657284168,30.254876657284225,30.13062612550766,73.95699139897329,71.21784356938167,84.95775103383362,"{'others': ['m1', 'm3', 'm12', 'e1', 'e2']}"
6,256,6,0.2001999999999996,19.368700049766325,150.65313062753808,16.43488697754958,32.86977395509928,41.17842114642754,46.56551310305736,33.32317156557504,101.6810635614474,68.96998004722016,58.89167833621946,54.78295659183209,54.78295659183209,21.913182636732813,46.56551310305724,10.95659131836635,8.217443488774848,30.254876657284168,30.254876657284225,28.761052210711853,71.21784356938167,68.47869573979006,82.17443488774802,"{'others': ['m1', 'm3', 'm12', 'e1', 'e2']}"
7,256,7,0.2335666666666662,13.96696823370284,150.65313062753808,19.368700049766325,30.13062612550766,41.0872174438739,43.9118802138509,33.32317156557504,96.02656920335124,65.96741531064183,58.89167833621946,57.522104421423705,57.522104421423705,24.65233046632443,38.3480696142824,5.478295659183232,8.217443488774848,30.254876657284147,30.254876657284147,28.7610522107118,73.95699139897329,71.21784356938167,79.48249971436533,"{'others': ['m1', 'm3', 'm12', 'e1', 'e2']}"
8,256,8,0.2669333333333328,16.66353941892978,150.69569750254524,16.436814032369853,30.258424159982404,41.09203508092446,43.91702905366618,33.32707883785963,96.0378286944145,66.25891564490783,57.52884911329432,57.52884911329432,60.26831811868931,26.02495555125222,36.98283157283208,4.109203508092492,9.588141518882368,30.62819459158445,30.258424159982347,28.76442455664716,73.96566314566417,71.22619414026917,82.2297153029197,"{'others': ['m1', 'm3', 'm12', 'e1', 'e2']}"
9,256,9,0.3002999999999994,14.06091157613828,148.9343991629463,19.303001443823973,33.20555964862424,38.606002887647946,44.12114615731184,33.20555964862425,99.31087107479858,66.41111929724862,59.28779014888778,60.66657596630375,63.4241476011357,28.954502165735903,37.22721707023186,1.3787858174159735,9.65150072191193,30.45837423747459,30.45837423747459,30.33328798315188,74.45443414046377,71.69686250563177,79.96957741012784,"{'others': ['m1', 'm3', 'm12', 'e1', 'e2']}"
10,256,10,0.333666666666666,22.06057307865592,148.90886828092744,19.303001443823973,33.09085961798394,41.36357452247989,44.12114615731184,33.547306829938435,107.68661483617971,74.6584192737937,63.4241476011357,66.18171923596776,66.18171923596776,33.09085961798394,41.36357452247989,5.515143269664009,13.787858174159965,30.458374237474647,30.45837423747459,30.33328798315188,77.21200577529572,71.69686250563177,80.01710762378042,"{'others': ['m1', 'm3', 'm12', 'e1', 'e2']}"
11,256,11,0.3670333333333326,21.904966605085637,147.88387538169982,19.16684577945,32.85744990762839,43.80993321017127,43.80993321017127,32.97134089005312,106.82181054493071,73.97995085642707,62.97677898962127,65.7148998152569,68.45302064089253,34.22651032044632,39.7027519717177,4.107181238453563,17.79778536663207,30.24353302782521,27.51777373323969,27.38120825635707,76.66738311779972,68.45302064089259,84.9258973509278,"{'others': ['m1', 'm3', 'm12', 'e1', 'e2']}"
12,256,12,0.4003999999999992,21.750597074298184,149.56006943102966,19.03177244001108,29.90707097716017,43.5011941485966,46.29991515847681,30.39738350583677,100.74336776793862,70.89827238067943,59.81414195432024,62.532966588607565,65.25179122289478,33.98530792859117,36.70413256287827,1.3594123171435513,17.672360122867417,16.312947805723695,16.312947805723695,16.312947805723695,76.12708976004399,67.97061585718211,81.61004019236024,"{'others': ['m1', 'm3', 'm12', 'e1', 'e2']}"
13,256,13,0.4337666666666658,19.03177244001097,149.6341885746384,19.03177244001108,32.62589561144739,40.872896528062086,46.29991515847681,30.39738350583677,100.74336776793862,68.1877749275678,58.45472963717657,59.81414195432024,65.25179122289478,32.62589561144739,38.06354488002205,2.71882463428733,13.594123171436308,16.537964611894413,19.03177244001097,17.67236012286736,76.12708976004399,67.97061585718211,81.61004019236024,"{'others': ['m1', 'm3', 'm12', 'e1', 'e2']}"
14,256,14,0.4671333333333324,16.19810847508552,145.88293033363934,18.89779322093318,29.696532204323372,40.4952711877138,43.19495593356146,29.81899265047996,94.52752516201606,64.84865294250267,56.69337966279932,59.39306440864687,64.79243390034208,32.39621695017104,32.39621695017104,0.0,16.19810847508552,13.498423729237912,13.498423729237912,13.498423729237857,75.59117288373244,67.49211864618968,81.17032182499821,"{'others': ['m1', 'm3', 'm12', 'e1', 'e2']}"
15,256,15,0.5004999999999991,13.863339864267594,144.12335262385758,19.03177244001108,30.030399628125096,40.78236951430927,43.5860746081349,30.03039962812512,92.4800116379347,62.76894088591855,55.73590500288935,59.81414195432024,62.532966588607565,31.26648329430384,31.266483294303725,1.359412317143665,14.953535488580089,11.210001144697802,13.59412317143648,13.59412317143648,78.84591439433132,73.40826512575671,81.61004019236024,"{'others': ['m1', 'm3', 'm12', 'e1', 'e2']}"
16,256,16,0.5338666666666656,27.20521955002573,144.2133266328025,16.32313173001546,29.925741505028327,40.80782932503871,43.528351280041306,30.04914714818752,103.41562443632849,73.50445555600866,59.851483010056654,62.57200496505925,65.29252692006185,34.00652443753222,39.4475683475373,6.801304887506376,17.68339270751676,10.882087820010328,11.216999377287394,10.88208782001027,76.17461474007212,68.01304887506438,81.6609880946439,"{'others': ['m1', 'm3', 'm12', 'e1', 'e2']}"
17,256,17,0.5672333333333321,43.79864688223688,142.37192123638016,16.424492580838773,30.111569731537884,41.06123145209699,43.88410773790491,32.84898516167766,123.1836943562912,93.07212462475331,71.17280118363487,71.17280118363487,73.91021661377465,39.69252373702716,50.64218545758638,17.79320029590872,23.268031156188385,13.687077150698997,10.94966172055922,10.949661720559163,79.38504747405426,68.43538575349504,85.03630238825426,"{'others': ['m1', 'm3', 'm12', 'e1', 'e2']}"
18,256,18,0.6005999999999987,39.95651545632347,141.40567603011883,15.982606182529366,26.77053403929627,42.70344476059328,48.02175508888128,31.96521236505879,114.57298083097014,87.90433400391163,67.92607627574984,66.59419242720577,74.5854955184704,38.62463160777929,43.952167001955786,11.986954636897051,22.642025425249926,7.991303091264683,13.58260346713095,11.986954636896996,77.2492632155587,66.59419242720577,80.0904185469265,"{'others': ['m1', 'm3', 'm12', 'e1', 'e2']}"
19,256,19,0.6339666666666652,31.74356027714032,140.3005115625705,18.705072275808277,26.45296689761699,42.32474703618709,45.04777938245816,29.218256935988386,105.81186759046795,79.35890069285097,63.487120554280864,66.13241724404247,71.42301062356592,39.67945034642548,37.03415365666376,5.290593379523443,23.807670207855267,13.226483448808494,13.488419440337328,13.226483448808494,76.7136040030893,66.13241724404247,84.81466397396389,"{'others': ['m1', 'm3', 'm12', 'e1', 'e2']}"
20,256,20,0.6673333333333318,21.758122107392467,140.43943105342737,18.8913403052502,29.686391908250243,40.48144351125052,40.57130254193243,32.385154809000255,102.5884941209366,72.91655828383018,62.0715467172505,64.77030961800051,70.16783541950053,35.08391770975027,35.08391770975027,2.698762900750012,16.19257740450007,10.795051603000104,13.761044693484612,12.14443305337511,78.26412412175063,64.77030961800051,84.05249287576625,"{'others': ['m1', 'm3', 'm12', 'e1', 'e2']}"
21,256,21,0.7006999999999983,21.758122107392467,140.43943105342737,18.8913403052502,29.686391908250243,40.57130254193266,43.26446055340834,32.385154809000255,102.5884941209366,72.91655828383018,62.0715467172505,64.77030961800051,70.16783541950053,35.08391770975027,35.08391770975027,2.698762900750012,16.19257740450007,13.493814503750116,13.761044693484656,13.493814503750173,78.26412412175063,64.77030961800051,84.05249287576625,"{'others': ['m1', 'm3', 'm12', 'e1', 'e2']}"
22,256,22,0.7340666666666649,2.7333220963656686,142.36909000400783,21.866576770924667,32.913556537689,38.36400379846494,43.81848660551216,35.53318725275267,92.97313850048192,60.13308612004301,58.76642507186023,57.399764023677335,65.59973031277411,25.966559915473116,31.433204108204222,4.099983144548446,4.099983144548446,16.626149231008746,16.6261492310088,16.399932578193557,79.26634079460212,62.866408216408615,79.45462215438386,"{'others': ['m1', 'm3', 'm12', 'e1', 'e2']}"
23,256,23,0.7674333333333314,2.7723682735635293,141.82499650778564,22.351547594675104,30.62180845410593,41.585524103453736,44.44444444444455,36.14725983424633,91.53014896877129,60.99210201839867,59.60591788161696,55.447365471271496,66.53683856552584,24.95131446207222,30.49605100919939,2.7723682735635293,5.544736547127172,25.10486246187134,22.178946188508636,22.17894618850869,80.39867993334383,63.76447029196231,83.3556678529587,"{'others': ['m1', 'm3', 'm12', 'e1', 'e2']}"
24,256,24,0.800799999999998,2.7520836646151565,146.27525321851957,22.016669316921025,33.13947573621236,41.372889388237816,44.03333863384205,35.77708763999658,93.61130766673932,60.54584062153276,59.16979878922518,55.04167329230256,66.05000795076296,24.76875298153618,33.02500397538154,2.7520836646151565,2.7520836646151565,24.921177515466567,22.016669316921025,23.392711149228543,79.81042627383863,66.05000795076302,80.00000000000021,"{'others': ['m1', 'm3', 'm12', 'e1', 'e2']}"
25,256,25,0.8341666666666645,11.017726546786092,148.96866751304344,19.28102145687581,30.423691824475213,44.1568982809859,44.15689828098589,38.5620429137515,99.19778753924643,68.8607909174134,63.35192764402029,57.8430643706273,66.1063592807169,23.412668911920605,37.18482709540319,4.131647455044799,4.131647455044799,24.942439306957368,24.78988473026885,23.412668911920605,79.87851746419955,66.1063592807169,82.81637429685149,"{'others': ['m1', 'm3', 'm12', 'e1', 'e2']}"
26,256,26,0.867533333333331,11.094003924504593,152.7693082345456,19.41450686788301,30.63431961806136,44.46260312805673,44.46260312805673,38.829013735766125,99.88454873964788,69.33752452815372,63.79052256590148,58.24352060364913,66.56402354702755,23.574758339572213,37.44226324520298,4.160251471689207,4.160251471689207,25.115119565099224,24.9615088301353,23.57475833957227,80.4315284526582,66.56402354702749,80.86075400626409,"{'others': ['m1', 'm3', 'm12', 'e1', 'e2']}"
27,256,27,0.9008999999999976,22.188007849009185,158.30836510285386,16.64100588675683,30.63431961806136,47.23101979387326,50.0000000000001,36.05551275463995,105.42952440082722,74.88452649040596,63.79052256590137,55.47001962252296,63.79052256590137,23.574758339572213,45.7627661885814,9.707253433941446,6.933752452815384,25.115119565099224,24.9615088301353,24.96150883013536,80.43152845265826,66.56402354702749,83.38972450995479,"{'others': ['m1', 'm3', 'm12', 'e1', 'e2']}"
28,256,28,0.934266666666664,19.41450686788301,158.4783411554545,19.41450686788301,30.63431961806136,47.149516679144654,49.92301766027072,33.39737437860374,102.61953630166738,72.16434235612702,62.40377207533834,52.69651864139678,63.79052256590137,24.96150883013536,44.37601569801825,8.320502943378301,8.320502943378528,25.11511956509925,22.188007849009125,23.574758339572213,77.65802747153208,63.79052256590137,86.15728015134246,"{'others': ['m1', 'm3', 'm12', 'e1', 'e2']}"
29,256,29,0.9676333333333308,19.41450686788301,161.07809859243383,19.41450686788301,30.63431961806136,47.149516679144654,50.0000000000001,30.50851079238771,99.88454873964788,69.33752452815372,59.63027109421228,49.92301766027072,58.24352060364913,23.574758339572213,45.7627661885814,12.480754415067622,6.933752452815384,25.11511956509925,22.188007849009125,23.574758339572213,77.65802747153208,66.56402354702749,86.02325267042619,"{'others': ['m1', 'm3', 'm12', 'e1', 'e2']}"
30,256,30,1.0009999999999972,22.17894618850869,161.01231373002295,19.603604061832485,30.49605100919939,47.21173047915048,49.90262892414444,30.62180845410593,102.57762612185252,72.08157511265313,60.99210201839878,49.90262892414444,58.21973374483525,23.5651303252904,48.51644478736273,12.475657231036166,4.158552410345351,27.86195632525557,24.95131446207222,26.337498598853983,77.62631165978019,66.5368385655259,86.1220932148814,"{'others': ['m1', 'm3', 'm12', 'e1', 'e2']}"
