,video_id,frame_seq,time_seconds,m1,m3,m4,m5,m6,m7,m8,m9,m10,m11,m12,m13,m14,m15,m16,m17,e1,e2,e3,b1,b2,b3,label_measures
0,209,0,0.0,3.1622776601683795,83.19855767980596,14.142135623730953,21.37755832643195,23.53720459187964,25.70992026436488,24.04163056034261,62.5859409132754,41.23105625617661,38.5,32.0,51.0,18.5,19.5,6.5,4.5,13.152946437965904,13.152946437965904,13.0,42.0,19.0,30.59411708155671,"{'neutral': ['m1', 'm3', 'm12', 'e1', 'e2']}"
1,209,1,0.0333666666666666,2.8284271247461903,84.17244204607586,14.142135623730953,22.360679774997894,23.53720459187964,25.70992026436488,23.769728648009423,62.5859409132754,40.26164427839479,38.0,32.0,51.0,18.5,19.5,6.5,4.5,13.341664064126334,13.152946437965904,13.0,41.0,18.0,31.575306807693888,"{'neutral': ['m1', 'm3', 'm12', 'e1', 'e2']}"
2,209,2,0.0667333333333332,2.23606797749979,85.37564055396598,13.152946437965904,21.37755832643195,23.53720459187964,24.73863375370596,24.73863375370596,60.63827174318213,39.293765408777,37.5,30.0,50.0,16.0,19.0,6.0,2.0,13.152946437965904,13.152946437965904,13.0,41.0,19.0,31.575306807693888,"{'neutral': ['m1', 'm3', 'm12', 'e1', 'e2']}"
3,209,3,0.1000999999999998,2.0,85.37564055396598,15.132745950421556,22.360679774997894,23.53720459187964,24.73863375370596,24.04163056034261,61.84658438426491,39.56008088970496,38.0,32.0,52.0,19.0,18.0,8.0,3.0,14.317821063276352,14.142135623730953,14.0,41.0,18.0,32.7566787083184,"{'neutral': ['m1', 'm3', 'm12', 'e1', 'e2']}"
4,209,4,0.1334666666666664,3.1622776601683795,86.12200647918046,14.142135623730953,22.360679774997894,23.53720459187964,25.70992026436488,24.73863375370596,62.81719509815764,40.52159917870962,38.5,32.0,51.0,17.5,19.5,6.5,3.5,13.341664064126334,13.152946437965904,13.0,41.0,19.0,31.400636936215164,"{'neutral': ['m1', 'm3', 'm12', 'e1', 'e2']}"
5,209,5,0.166833333333333,3.605551275463989,87.0976463516667,14.142135623730953,22.360679774997894,23.53720459187964,26.476404589747453,23.769728648009423,63.56099432828282,41.23105625617661,38.5,32.0,51.0,18.5,20.5,5.5,3.5,14.142135623730953,14.142135623730953,14.0,41.0,20.0,31.400636936215164,"{'neutral': ['m1', 'm3', 'm12', 'e1', 'e2']}"
6,209,6,0.2001999999999996,5.385164807134504,91.98369420718,14.142135623730953,21.37755832643195,25.495097567963924,27.459060435491963,23.769728648009423,64.53681120105021,43.17406628984581,39.5,32.0,51.0,18.5,21.5,4.5,3.5,13.341664064126334,13.152946437965904,12.5,41.0,19.0,32.38826948140329,"{'neutral': ['m1', 'm3', 'm12', 'e1', 'e2']}"
7,209,7,0.2335666666666662,4.242640687119285,93.94147114027967,13.152946437965904,21.37755832643195,28.442925306655784,29.61418578992169,23.769728648009423,61.84658438426491,40.52159917870962,37.5,30.0,49.0,16.5,20.5,5.5,2.5,13.341664064126334,13.152946437965904,12.5,42.0,19.0,30.4138126514911,"{'neutral': ['m1', 'm3', 'm12', 'e1', 'e2']}"
8,209,8,0.2669333333333328,3.605551275463989,96.317184344228,11.180339887498947,21.37755832643195,28.442925306655784,30.59411708155671,24.515301344262525,60.41522986797286,39.05124837953327,36.5,28.0,49.0,14.5,20.5,5.5,2.5,12.16552506059644,13.341664064126334,12.5,41.0,17.0,30.59411708155671,"{'neutral': ['m1', 'm3', 'm12', 'e1', 'e2']}"
9,209,9,0.3002999999999994,3.605551275463989,96.54014708917737,11.180339887498947,19.6468827043885,27.459060435491963,29.8328677803526,24.515301344262525,58.69412236331676,39.05124837953327,36.5,27.0,49.0,14.0,19.0,5.0,2.0,8.246211251235321,9.486832980505138,8.5,42.0,17.0,30.80584360149873,"{'neutral': ['m1', 'm3', 'm12', 'e1', 'e2']}"
10,209,10,0.333666666666666,5.830951894845301,97.51410154434076,12.16552506059644,18.43908891458577,28.442925306655784,30.59411708155671,23.769728648009423,59.90826320300064,41.48493702538308,37.5,27.0,49.0,15.0,20.0,3.0,2.0,6.324555320336759,6.708203932499369,5.5,43.0,18.0,31.78049716414141,"{'neutral': ['m1', 'm3', 'm12', 'e1', 'e2']}"
11,209,11,0.3670333333333326,6.708203932499369,96.77293009927932,11.180339887498947,19.4164878389476,29.61418578992169,31.78049716414141,24.04163056034261,61.1310068623117,41.7612260356422,37.0,27.0,50.0,15.5,20.5,3.5,2.5,7.280109889280518,8.54400374531753,7.0,43.0,16.0,30.80584360149873,"{'neutral': ['m1', 'm3', 'm12', 'e1', 'e2']}"
12,209,12,0.4003999999999992,4.242640687119285,94.11163583744572,11.180339887498947,21.37755832643195,29.61418578992169,30.083217912982647,23.769728648009423,59.90826320300064,38.60051813123757,35.5,26.0,50.0,15.0,20.0,6.0,3.0,9.486832980505138,9.486832980505138,9.0,42.0,14.0,29.8328677803526,"{'neutral': ['m1', 'm3', 'm12', 'e1', 'e2']}"
13,209,13,0.4337666666666658,2.8284271247461903,92.17917335276988,12.36931687685298,20.615528128088304,26.92582403567252,28.861739379323623,23.769728648009423,59.20304046246274,38.60051813123757,36.0,26.0,50.0,15.0,19.0,7.0,2.0,10.44030650891055,11.40175425099138,10.5,43.0,13.0,31.04834939252005,"{'neutral': ['m1', 'm3', 'm12', 'e1', 'e2']}"
14,209,14,0.4671333333333324,4.242640687119285,89.1852005660132,12.16552506059644,21.840329667841555,26.92582403567252,28.16025568065745,22.13594362117865,59.77457653551382,37.94733192202055,34.5,26.0,53.0,18.5,17.5,9.5,4.5,13.341664064126334,12.36931687685298,11.5,44.0,12.0,30.083217912982647,"{'neutral': ['m1', 'm3', 'm12', 'e1', 'e2']}"
15,209,15,0.5004999999999991,5.0,86.97700845625813,13.341664064126334,21.587033144922906,25.0,27.202941017470888,20.615528128088304,60.08327554319921,38.62641583165593,34.0,26.0,52.0,20.0,18.0,9.0,5.0,12.36931687685298,14.317821063276352,13.5,45.0,12.0,28.16025568065745,"{'neutral': ['m1', 'm3', 'm12', 'e1', 'e2']}"
16,209,16,0.5338666666666656,5.830951894845301,82.21921916437786,14.317821063276352,23.769728648009423,22.13594362117865,25.0,18.027756377319943,61.68468205316454,37.94733192202055,33.5,28.0,54.0,24.0,18.0,10.0,7.0,13.601470508735444,13.341664064126334,13.0,46.0,13.0,31.32091952673165,"{'neutral': ['m1', 'm3', 'm12', 'e1', 'e2']}"
17,209,17,0.5672333333333321,5.830951894845301,81.27115109311545,15.297058540778355,24.73863375370596,21.18962010041709,24.04163056034261,18.384776310850235,63.89053137985315,39.21734310225516,34.5,28.0,54.0,24.0,20.0,9.0,6.0,13.341664064126334,14.142135623730953,13.0,46.0,13.0,30.364452901377952,"{'neutral': ['m1', 'm3', 'm12', 'e1', 'e2']}"
18,209,18,0.6005999999999987,2.8284271247461903,81.27115109311545,16.278820596099706,24.73863375370596,23.08679276123039,25.0,19.313207915827967,62.6418390534633,37.94733192202055,35.0,29.0,55.0,24.0,18.0,11.0,6.0,14.317821063276352,14.317821063276352,13.5,46.0,15.0,29.410882339705484,"{'neutral': ['m1', 'm3', 'm12', 'e1', 'e2']}"
19,209,19,0.6339666666666652,4.242640687119285,80.32434251209281,14.142135623730953,23.53720459187964,22.13594362117865,24.35159132377184,20.615528128088304,61.68468205316454,38.27531841800928,34.5,29.0,55.0,23.0,17.0,11.0,6.0,13.341664064126334,14.317821063276352,13.5,44.0,12.0,30.083217912982647,"{'neutral': ['m1', 'm3', 'm12', 'e1', 'e2']}"
20,209,20,0.6673333333333318,3.1622776601683795,82.56512580987206,14.142135623730953,21.37755832643195,23.08679276123039,24.04163056034261,22.13594362117865,59.20304046246274,37.94733192202055,35.5,30.0,54.0,21.0,15.0,11.0,5.0,13.341664064126334,15.297058540778355,14.0,44.0,12.0,30.083217912982647,"{'neutral': ['m1', 'm3', 'm12', 'e1', 'e2']}"
21,209,21,0.7006999999999983,3.1622776601683795,87.64131445842195,14.317821063276352,21.587033144922906,24.73863375370596,26.248809496813376,22.80350850198276,60.440052945046304,38.897300677553446,36.5,29.0,54.0,19.5,16.5,9.5,3.5,15.524174696260024,15.132745950421556,14.0,44.0,12.0,29.8328677803526,"{'neutral': ['m1', 'm3', 'm12', 'e1', 'e2']}"
22,209,22,0.7340666666666649,3.1622776601683795,87.36131867136622,14.317821063276352,22.56102834535696,24.73863375370596,26.92582403567252,23.769728648009423,62.36184731067546,39.84971769034255,37.5,30.0,54.0,19.0,18.0,9.0,3.0,15.297058540778355,15.132745950421556,14.0,44.0,13.0,32.01562118716424,"{'neutral': ['m1', 'm3', 'm12', 'e1', 'e2']}"
23,209,23,0.7674333333333314,4.242640687119285,84.48076704197234,14.317821063276352,23.53720459187964,23.769728648009423,26.92582403567252,24.73863375370596,66.21933252457322,42.72001872658765,39.5,33.0,57.0,21.0,19.0,9.0,5.0,15.524174696260024,15.132745950421556,14.5,45.0,14.0,32.01562118716424,"{'neutral': ['m1', 'm3', 'm12', 'e1', 'e2']}"
24,209,24,0.800799999999998,3.605551275463989,86.40023148117139,15.297058540778355,22.80350850198276,23.769728648009423,27.202941017470888,23.769728648009423,64.5600495662759,41.7612260356422,39.0,32.0,56.0,21.0,18.0,9.0,4.0,16.492422502470642,15.132745950421556,14.5,44.0,14.0,31.78049716414141,"{'neutral': ['m1', 'm3', 'm12', 'e1', 'e2']}"
25,209,25,0.8341666666666645,3.605551275463989,88.60022573334675,14.142135623730953,22.80350850198276,25.70992026436488,26.92582403567252,24.73863375370596,64.28841264178172,41.48493702538308,39.0,31.0,56.0,19.5,18.5,8.5,3.5,15.297058540778355,15.132745950421556,14.5,44.0,14.0,31.04834939252005,"{'neutral': ['m1', 'm3', 'm12', 'e1', 'e2']}"
26,209,26,0.867533333333331,3.1622776601683795,87.64131445842195,15.132745950421556,22.56102834535696,24.73863375370596,26.92582403567252,23.769728648009423,63.06346010171025,40.52159917870962,38.5,31.0,56.0,20.5,17.5,9.5,3.5,15.297058540778355,15.132745950421556,14.0,44.0,13.0,31.04834939252005,"{'neutral': ['m1', 'm3', 'm12', 'e1', 'e2']}"
27,209,27,0.9008999999999976,2.0,88.32326986700618,15.297058540778355,20.615528128088304,25.0,28.16025568065745,22.80350850198276,59.20304046246274,38.60051813123757,37.0,30.0,54.0,20.0,15.0,10.0,3.0,15.297058540778355,15.132745950421556,14.0,44.0,14.0,30.80584360149873,"{'neutral': ['m1', 'm3', 'm12', 'e1', 'e2']}"
28,209,28,0.934266666666664,2.0,89.56003573022959,14.142135623730953,20.615528128088304,25.70992026436488,27.892651361962702,24.73863375370596,59.90826320300064,39.293765408777,38.0,29.0,54.0,17.5,16.5,8.5,1.5,15.297058540778355,15.132745950421556,14.0,44.0,13.0,32.984845004941285,"{'neutral': ['m1', 'm3', 'm12', 'e1', 'e2']}"
29,209,29,0.9676333333333308,3.1622776601683795,88.32326986700618,14.142135623730953,20.615528128088304,25.96150997149434,28.16025568065745,23.769728648009423,60.166435825965294,39.56008088970496,37.5,30.0,54.0,19.0,16.0,10.0,2.0,14.317821063276352,15.132745950421556,14.5,43.0,13.0,32.01562118716424,"{'neutral': ['m1', 'm3', 'm12', 'e1', 'e2']}"
