,video_id,frame_seq,time_seconds,m1,m3,m4,m5,m6,m7,m8,m9,m10,m11,m12,m13,m14,m15,m16,m17,e1,e2,e3,b1,b2,b3,label_measures
0,154,8,0.2669333333333328,11.07674593543316,110.48269036580494,14.56804651539153,29.192943998072742,29.643826957461755,33.57768812614061,53.09098652069793,107.82445914372724,78.64131203476465,72.84023257695765,69.19822094810979,85.5872732779253,24.58357849472327,30.046595937994997,4.552514536059903,10.01553197933174,21.85206977308735,23.743010970561112,22.76257268029929,61.91419769041403,50.98816280387035,56.45118024714225,"{'neutral': ['m1', 'm3', 'm12', 'e1', 'e2']}"
1,154,9,0.3002999999999994,7.192063494778266,106.10354988179375,12.210321305049206,29.704897022255263,28.395661420804277,30.46344200594355,49.12082427045232,98.07115726563232,68.385808525196,64.5402697552604,62.79593814025338,80.23925429032374,22.676310995091512,26.16497422510554,8.72165807503518,8.72165807503518,21.00453411888474,20.93197938008444,20.9319793800845,61.05160652524626,50.585616835204064,48.84128522019705,"{'neutral': ['m1', 'm3', 'm12', 'e1', 'e2']}"
2,154,10,0.333666666666666,10.500492222109642,112.87689970486949,12.250574259127916,26.309501948962183,29.95657909264926,32.26991828839932,49.2827576245604,98.25428771101424,71.94518927862315,66.5031174066944,64.75303536967613,78.75369166582232,22.75106648123756,26.25123055527399,3.5001640740365474,10.500492222109642,21.000984444219284,21.000984444219284,21.000984444219284,63.00295333265785,54.252543147566485,54.28076293784804,"{'neutral': ['m1', 'm3', 'm12', 'e1', 'e2']}"
3,154,11,0.3670333333333326,7.220919520230154,123.82613778159345,12.764902897892586,23.74409192061238,34.724290062511585,38.59140705354762,52.38278192799456,95.9492842525853,72.29940035327724,68.59873544218624,64.98827568207116,81.23534460258895,20.76014362066155,22.56537350071926,6.318304580201243,8.123534460258838,21.73784633717465,21.73784633717465,21.66275856069035,64.98827568207122,52.351666521668506,55.96212628178341,"{'neutral': ['m1', 'm3', 'm12', 'e1', 'e2']}"
4,154,12,0.4003999999999992,5.587714944265756,120.98402923640847,10.748184298009136,21.277384597886428,37.48353136280899,37.77394491227424,49.47573719099341,86.74466294768402,65.47409605612188,62.72816679572384,60.07768087477768,74.21360578649012,17.66990613964049,19.43689675360463,7.067962455856218,7.067962455856218,19.51704924521432,21.2038873675686,21.20388736756854,63.61166210270585,53.00971841892152,54.77670903288549,"{'neutral': ['m1', 'm3', 'm12', 'e1', 'e2']}"
5,154,13,0.4337666666666658,1.8376873657267647,127.64984399239196,9.370403737723718,25.79317131079248,35.108967825405955,37.16492695200736,53.32460845796936,90.06543088040175,64.31905780043621,63.40021411757289,60.64368306898268,75.34518199479669,14.70149892581412,22.052248388720955,7.350749462907061,5.513062097180296,23.96051178931266,25.727623120174485,23.88993575444772,64.31905780043616,51.45524624034891,55.161240591476016,"{'neutral': ['m1', 'm3', 'm12', 'e1', 'e2']}"
6,154,14,0.4671333333333324,1.8139703503301237,127.61123480852814,11.033950878059654,23.651279741676177,36.460352802436525,36.68527999944288,50.82355181432268,87.08947029047533,63.488962261552615,62.5819770863875,58.04705121056236,70.74484366287288,13.604777627475528,22.67462937912592,4.534925875825138,4.534925875825138,21.843095536624546,21.767644203960856,21.767644203960856,65.30293261188262,50.79116980924204,56.349989678445695,"{'neutral': ['m1', 'm3', 'm12', 'e1', 'e2']}"
7,154,15,0.5004999999999991,3.6778596671146033,131.39021756460536,9.37673910543679,23.97671158785172,40.62328779383353,41.11972113686559,53.36066144055117,90.12632448102347,66.20147400806377,64.36254417450652,58.84575467383445,73.55719334229309,12.872508834901282,23.90608783624532,3.6778596671146033,3.6778596671146033,23.97671158785168,25.745017669802564,24.825552753023885,64.36254417450647,45.97324583893317,58.96057576774572,"{'neutral': ['m1', 'm3', 'm12', 'e1', 'e2']}"
8,154,16,0.5338666666666656,7.227889686557253,119.66854573117676,8.765103714114161,24.604818629266905,33.49141426604728,35.452650471153284,50.95835610994746,91.15707862678732,66.63785029762357,63.1087467416221,59.60270525597639,70.12082971291329,14.024165942582613,26.295311142342484,3.50604148564571,3.50604148564571,21.326417778556603,22.856594085961497,22.78926965669677,64.86176748444484,50.83760154186217,54.456623696298585,"{'neutral': ['m1', 'm3', 'm12', 'e1', 'e2']}"
9,154,17,0.5672333333333321,7.432139522449347,125.16592362357471,9.29017440306177,26.07876229159885,35.497706551463786,37.89662445271374,52.05814527808456,94.75977891123011,68.7723945785943,65.03122082143238,59.45711617959535,72.46336034388185,13.935261604592595,28.79954064949152,0.9290174403060972,4.645087201530828,24.43863326456672,24.22581092527697,24.15445344796069,68.74729058265717,55.74104641837067,55.77200506914306,"{'neutral': ['m1', 'm3', 'm12', 'e1', 'e2']}"
10,154,18,0.6005999999999987,5.547001962252352,126.39647295739056,11.247031897159667,25.951960879753827,35.56623771158913,39.22322702763679,50.05979330743292,92.45003270420489,66.58969915976526,63.79052256590137,57.31902027660704,70.2620248551957,13.867504905630769,28.65951013830352,2.773500981126176,2.773500981126176,25.951960879753884,25.95196087975381,24.96150883013536,64.71502289294341,51.77201831435474,53.74838498865706,"{'neutral': ['m1', 'm3', 'm12', 'e1', 'e2']}"
11,154,19,0.6339666666666652,3.665869935683986,121.65221279067984,9.16467483921008,23.89854810187135,35.0181733913032,37.06881565281293,49.62483135604327,86.1674405904396,62.427515501996815,60.48685393878623,54.98804903526025,67.81859381015431,11.914077290973069,24.744622065867134,4.582337419604983,2.7494024517629896,23.89854810187129,23.82815458194608,23.828154581946137,65.98565884231226,49.48924413173421,58.76836575093307,"{'neutral': ['m1', 'm3', 'm12', 'e1', 'e2']}"
12,154,20,0.6673333333333318,3.667256276445073,119.8749733932334,9.168140691112512,23.90758593789484,34.887154628026735,35.270541464997144,51.37432079537248,88.01415063468028,64.20317418180284,62.34335669956511,55.00884414667519,67.84424111423266,10.084954760223807,26.587608004226357,2.7504422073337764,2.7504422073337764,22.07980664874112,23.837165796892577,22.92035172778128,67.84424111423266,51.341587870230114,51.47239467553152,"{'neutral': ['m1', 'm3', 'm12', 'e1', 'e2']}"
13,154,21,0.7006999999999983,5.770978440887463,116.1387008145927,9.305423130061865,25.614304317201675,33.0511346706615,35.10349142338962,51.22860863440346,91.26542861628218,65.79927797076907,62.96055489321543,54.74830860279599,71.17280118363476,11.86213353060566,28.28662611144466,2.737415430139663,2.737415430139663,23.79435367494169,23.72426706121161,23.72426706121155,65.69797032335526,47.44853412242327,51.22860863440359,"{'neutral': ['m1', 'm3', 'm12', 'e1', 'e2']}"
14,154,22,0.7340666666666649,7.334512552890033,111.53524533680324,11.001768829334992,27.56547524962301,33.460573601041,35.602618446949485,51.3743207953726,97.1822913257928,69.7019917628724,66.0106129760103,55.00884414667519,73.34512552890021,12.835396967557472,33.00530648800509,1.83362813822248,0.0,23.90758593789484,23.907585937894765,22.92035172778128,66.01061297601024,45.84070345556268,51.63543719559361,"{'neutral': ['m1', 'm3', 'm12', 'e1', 'e2']}"
15,154,23,0.7674333333333314,9.130897164652083,114.6863947076633,10.957076597582612,27.453496655332145,35.127262757941885,37.24689825533623,54.90699331066419,102.28235211798108,74.96238574325056,70.30790816782144,58.43774185377367,76.69953618307795,12.78325603051303,34.69740922567814,0.0,1.8261794329304168,23.810466702983323,23.740332628095587,23.74033262809553,65.74245958549545,47.48066525619112,54.9069933106643,"{'neutral': ['m1', 'm3', 'm12', 'e1', 'e2']}"
16,154,24,0.800799999999998,9.26941256246264,117.75606318313842,12.85436241822649,25.51518086797959,34.96764626802096,37.07765024985045,51.192004084825165,98.23289967042751,72.91947953533334,68.17055125318109,49.0827969022904,67.26161056980538,7.271525467005972,39.9933900685329,7.271525467005972,5.453644100254451,23.702273156998864,23.63245776776944,22.72351708439373,63.62584783630234,43.62915280203589,52.84378204412537,"{'neutral': ['m1', 'm3', 'm12', 'e1', 'e2']}"
17,154,25,0.8341666666666645,4.159721540921392,117.72820359498672,11.315665972678842,26.110330559788533,33.69117665426921,35.78327771532995,57.93821674692044,98.66522783360952,72.76540860319403,70.69079301057593,61.3893728776053,72.55107703716999,9.301420132970406,31.62482845209979,0.0,0.0,24.46821616119579,26.043976372317445,25.113834359020306,66.97022495738764,44.64681663825843,52.38607382753279,"{'neutral': ['m1', 'm3', 'm12', 'e1', 'e2']}"
18,154,26,0.867533333333331,4.198032213786678,126.47159929070628,11.264502482113356,24.478523891601608,35.8680029575577,37.96841070523877,60.3407807795609,99.6623811182532,75.47123258603116,73.21926613373682,60.07734657127128,73.21926613373682,6.570959781232773,32.85479890616398,0.9387085401760942,2.8161256205282825,24.47852389160155,24.406422044578903,24.406422044578903,69.46443197303228,50.69026116951005,52.70160885737219,"{'neutral': ['m1', 'm3', 'm12', 'e1', 'e2']}"
19,154,27,0.9008999999999976,3.652358865860833,123.2231403011956,10.957076597582612,21.914153195165117,34.88910907803774,37.24689825533623,57.08088910370231,93.42117141062,71.59461879760029,69.39481845135629,52.95920355498242,67.56863901842587,3.652358865860833,32.87122979274773,3.652358865860947,5.478538298791364,21.990112359477077,23.740332628095587,22.82724291163038,63.91628015256504,47.48066525619117,57.08088910370231,"{'neutral': ['m1', 'm3', 'm12', 'e1', 'e2']}"
20,154,28,0.934266666666664,1.834843081038798,125.6298178418791,11.009058486232448,20.26650423996125,33.23042153370508,35.62620836936603,55.53242840849627,86.31566792416753,66.28330949271219,66.05435091739491,51.37560626908498,66.05435091739491,3.6696861620774825,27.52264621558129,1.834843081038798,7.339372324154965,22.32182948463892,23.852960053503693,22.93553851298435,66.05435091739497,51.37560626908498,53.49440870063347,"{'neutral': ['m1', 'm3', 'm12', 'e1', 'e2']}"
21,154,29,0.9676333333333308,3.6678343828150446,133.57414894173118,11.00350314844536,20.256277454722657,37.08867989509109,39.204671725161376,50.05619779188644,84.53940538587862,64.6049228835604,62.35318450785712,44.01401259378156,64.18710169926464,4.584792978518863,30.259633658224743,2.7508757871113403,6.418710169926499,23.911354730333315,23.84092348829836,22.00700629689072,66.02101889067228,42.18009540237398,53.687123140039255,"{'neutral': ['m1', 'm3', 'm12', 'e1', 'e2']}"
