,frame_seq,m1,m3,m4,m5,m6,m7,m8,m9,m10,m11,m12,m13,m14,m15,m16,m17,e1,e2,e3,b1,b2,b3
0,249,2.0,30.0,5.0,8.0,8.0,9.055385138137417,10.0,25.0,17.0,16.0,19.0,19.0,9.0,6.0,2.0,4.0,3.0,3.0,3.0,15.0,15.0,15.033296378372908
1,250,2.0,30.01666203960727,6.0,8.06225774829855,9.0,9.0,9.0,25.019992006393608,17.0,16.0,18.0,19.0,9.5,6.5,1.5,3.5,3.0,3.0,3.0,15.0,14.0,15.033296378372908
2,251,2.0,30.01666203960727,6.0,8.06225774829855,9.0,9.0,9.0,25.019992006393608,17.0,16.0,18.0,19.0,9.5,6.5,1.5,3.5,3.0,3.0,3.0,15.0,14.0,15.033296378372908
3,252,2.23606797749979,31.0,6.0,8.0,9.0,9.055385138137417,9.0,25.019992006393608,17.029386365926403,16.0,19.0,19.0,10.0,6.0,2.0,4.0,2.0,3.0,3.0,15.0,15.0,14.0
4,253,2.0,31.0,5.0,8.0,9.0,9.0,10.0,25.0,17.0,16.0,19.0,19.0,9.0,6.0,2.0,4.0,3.0,3.0,3.0,15.0,15.0,15.033296378372908
5,254,2.0,31.0,5.0,8.0,8.0,9.0,10.0,25.0,17.0,16.0,19.0,19.0,9.0,6.0,2.0,4.0,3.0,3.1622776601683795,3.0,15.0,15.0,15.0
6,255,2.0,30.01666203960727,5.0,8.0,9.0,9.055385138137417,9.0,24.0,16.0,15.0,17.0,18.0,8.5,6.5,1.5,3.5,3.0,3.0,3.0,15.0,15.0,14.035668847618199
7,256,2.0,31.0,5.0990195135927845,8.0,9.0,10.04987562112089,10.0,25.019992006393608,17.029386365926403,16.0,19.0,19.0,9.0,6.0,2.0,4.0,3.0,3.0,2.5,15.0,15.0,15.033296378372908
8,257,2.23606797749979,30.0,5.0,8.0,9.0,10.0,10.0,25.019992006393608,17.029386365926403,16.0,19.0,19.0,9.0,6.0,2.0,4.0,3.0,3.0,3.0,15.0,15.0,14.035668847618199
9,258,3.0,31.0,5.0990195135927845,7.0,9.0,10.0,10.0,25.019992006393608,18.027756377319946,16.5,19.0,19.0,9.0,6.0,2.0,4.0,3.0,3.0,3.0,15.0,15.0,15.033296378372908
10,259,4.0,29.017236257093817,5.0,8.0,8.0,9.0,9.0,26.0,18.0,16.0,19.0,18.0,9.5,7.5,0.5,4.5,3.0,3.0,3.0,14.0,14.0,15.033296378372908
11,260,4.123105625617661,29.0,5.0,8.0,8.0,9.0,9.0,26.019223662515376,18.027756377319946,16.0,18.0,18.0,9.0,8.0,0.0,4.0,3.0,3.1622776601683795,3.0,15.0,15.0,15.033296378372908
12,261,5.0990195135927845,30.01666203960727,6.0,7.0,9.0,9.0,8.0,26.019223662515376,19.026297590440446,16.5,18.0,19.0,10.5,7.5,0.5,4.5,3.0,4.0,3.5,14.0,14.0,15.033296378372908
13,262,4.0,29.017236257093817,5.0,8.06225774829855,8.0,9.0,9.0,26.019223662515376,18.0,16.0,18.0,19.0,9.5,7.5,0.5,4.5,3.0,4.0,3.5,14.0,14.0,15.033296378372908
14,263,4.0,29.017236257093817,6.0,8.0,8.0,9.055385138137417,8.0,26.0,18.0,16.0,19.0,18.0,10.5,7.5,0.5,4.5,3.0,3.0,3.0,14.0,15.0,13.038404810405298
15,264,5.0990195135927845,29.0,5.0,8.0,9.0,10.0,9.0,27.018512172212592,19.026297590440446,16.5,19.0,19.0,10.0,8.0,1.0,5.0,3.0,3.0,3.0,14.0,14.0,15.033296378372908
16,265,6.0,28.0178514522438,5.0990195135927845,9.0,9.0,10.0,9.0,29.017236257093817,20.024984394500787,17.0,19.0,20.0,10.5,9.5,0.5,5.5,3.1622776601683795,4.0,3.5,14.0,15.0,14.035668847618199
17,266,6.0,29.017236257093817,5.0,8.06225774829855,8.0,9.0,9.0,28.0178514522438,20.0,17.0,19.0,20.0,10.5,8.5,0.5,5.5,3.0,3.0,3.0,14.0,14.0,15.033296378372908
18,267,6.0,29.017236257093817,5.0990195135927845,9.0,9.0,10.0,9.0,29.017236257093817,20.024984394500787,17.0,19.0,20.0,10.5,9.5,0.5,5.5,3.1622776601683795,4.0,3.5,14.0,14.0,15.033296378372908
19,268,7.0,29.0,5.0,8.0,9.0,10.0,9.0,29.0,21.0,17.5,20.0,20.0,11.0,9.0,0.0,6.0,3.0,3.0,3.0,14.0,14.0,14.0
20,269,6.0,28.0,5.0,9.0,9.0,10.0,9.0,29.0,20.0,17.0,20.0,20.0,11.0,9.0,0.0,6.0,3.0,4.0,3.5,15.0,14.0,14.035668847618199
21,270,6.0,29.0,5.0,9.0,9.0,10.0,9.055385138137417,29.017236257093817,20.024984394500787,17.0,20.0,20.0,11.0,9.0,0.0,6.0,3.0,4.0,3.5,14.0,14.0,15.033296378372908
22,271,7.0,28.0178514522438,5.0,9.055385138137417,9.055385138137417,9.0,9.0,30.01666203960727,21.0,17.5,20.0,21.0,11.5,9.5,0.5,5.5,4.0,4.0,3.5,14.0,14.0,15.033296378372908
23,272,7.0,29.0,5.0,8.0,9.055385138137417,9.055385138137417,9.0,29.0,21.0,17.5,20.0,20.0,11.0,9.0,0.0,5.0,3.0,4.0,3.5,14.0,14.0,14.0
24,273,6.0,29.0,6.0,9.0,9.0,9.0,9.0,30.0,21.0,18.0,20.0,20.0,11.0,10.0,1.0,5.0,4.123105625617661,4.0,3.5,14.0,14.0,15.0
25,274,8.0,29.017236257093817,5.0,9.0,9.0,10.0,9.055385138137417,31.016124838541646,22.02271554554524,18.0,20.0,21.0,11.5,10.5,0.5,6.5,3.0,3.0,3.5,14.0,14.0,15.0
26,275,7.0,29.017236257093817,5.0,9.0,9.0,10.0,9.055385138137417,30.01666203960727,21.02379604162864,17.5,20.0,21.0,11.5,9.5,0.5,5.5,4.0,3.0,3.5,14.0,14.0,16.0
27,276,7.0,28.0178514522438,6.0,9.055385138137417,9.0,9.0,8.06225774829855,30.066592756745816,21.02379604162864,17.5,20.0,21.0,12.5,9.5,0.5,6.5,4.123105625617661,4.0,4.0,15.0,15.0,16.0312195418814
28,277,7.0,29.017236257093817,5.0,9.0,8.0,9.0,9.0,30.0,21.0,17.5,20.0,21.0,11.5,9.5,0.5,6.5,4.0,4.123105625617661,4.0,14.0,14.0,15.0
29,278,8.0,27.0,5.0,8.0,8.0,9.055385138137417,9.0,30.0,22.0,18.0,21.0,21.0,12.0,9.0,0.0,7.0,4.0,4.0,4.0,14.0,14.0,15.0
30,279,7.0,27.0,5.0,8.0,8.0,9.0,9.0,29.0,21.0,17.5,20.0,20.0,11.0,9.0,0.0,6.0,4.0,4.0,3.5,14.0,14.0,14.035668847618199
31,280,5.0,26.0,5.0,8.0,8.0,9.0,9.0,27.0,19.0,16.5,19.0,19.0,10.0,8.0,0.0,5.0,3.0,3.1622776601683795,3.0,14.0,14.0,15.0
32,281,5.0,26.0,5.0,9.0,8.0,9.0,9.0,28.0,19.0,16.5,19.0,19.0,10.0,9.0,0.0,5.0,3.0,3.1622776601683795,3.0,15.0,15.0,15.033296378372908
33,282,5.0,26.019223662515376,5.0,8.06225774829855,8.0,9.0,9.0,27.018512172212592,19.0,16.5,19.0,20.0,10.5,7.5,0.5,5.5,3.0,3.0,3.5,14.0,13.0,14.035668847618199
34,283,6.0,27.018512172212592,5.0,8.0,8.0,8.0,9.0,28.0,20.0,17.0,19.0,20.0,10.5,8.5,0.5,5.5,3.0,3.1622776601683795,3.0,15.0,14.0,14.0
35,284,6.0,25.019992006393608,5.0,8.0,8.0,8.06225774829855,9.055385138137417,28.0178514522438,20.024984394500787,17.0,19.0,20.0,10.5,8.5,0.5,5.5,2.0,3.1622776601683795,3.0,15.0,14.0,14.035668847618199
36,285,5.0,26.019223662515376,5.0,9.055385138137417,8.0,8.0,9.0,28.0178514522438,19.0,16.5,19.0,20.0,10.5,8.5,0.5,5.5,3.0,3.0,3.0,15.0,14.0,14.0
37,286,6.0,27.018512172212592,5.0,8.06225774829855,8.06225774829855,9.0,8.0,27.018512172212592,19.0,16.0,18.0,19.0,10.5,8.5,0.5,4.5,3.0,3.0,3.0,15.0,14.0,14.0
38,287,6.0,26.019223662515376,5.0990195135927845,7.0,7.0,9.0,9.0,27.018512172212592,20.024984394500787,17.0,19.0,20.0,10.5,7.5,0.5,5.5,3.1622776601683795,3.0,3.0,15.0,14.0,14.035668847618199
39,288,6.0,28.0,5.0,8.0,8.0,8.0,9.055385138137417,28.0178514522438,20.024984394500787,17.0,20.0,20.0,11.0,8.0,0.0,6.0,4.0,4.0,3.5,14.0,14.0,16.0
40,289,5.0,28.0178514522438,6.082762530298219,8.0,9.0,9.055385138137417,8.0,27.018512172212592,19.026297590440446,16.5,18.0,19.0,10.5,8.5,0.5,4.5,3.0,3.0,3.0,15.0,14.0,14.0
41,290,5.0,28.0178514522438,6.082762530298219,8.0,9.0,9.055385138137417,8.0,27.018512172212592,19.026297590440446,16.5,18.0,19.0,10.5,8.5,0.5,4.5,3.0,3.0,3.0,15.0,14.0,14.0
42,291,6.0,28.0178514522438,5.0,9.0,8.0,9.0,9.055385138137417,29.017236257093817,20.024984394500787,17.0,19.0,20.0,10.5,9.5,0.5,5.5,3.0,4.0,3.5,15.0,14.0,13.0
43,292,7.0,27.0,5.0,8.0,8.06225774829855,9.0,9.055385138137417,29.017236257093817,21.02379604162864,17.5,20.0,20.0,11.0,9.0,1.0,5.0,4.0,4.0,3.5,15.0,14.0,14.0
44,293,7.0,27.0,5.0,8.06225774829855,8.0,9.0,9.055385138137417,29.068883707497267,21.02379604162864,17.5,20.0,20.0,11.0,9.0,1.0,6.0,4.0,4.0,3.5,15.0,14.0,14.0
45,294,8.0,29.017236257093817,5.0990195135927845,8.0,8.0,9.0,9.0,30.01666203960727,22.02271554554524,18.0,20.0,21.0,11.5,9.5,0.5,6.5,3.0,3.0,3.0,15.0,14.0,14.0
46,295,8.0,29.017236257093817,5.0,8.06225774829855,8.06225774829855,10.0,9.055385138137417,30.066592756745816,22.02271554554524,18.0,20.0,21.0,11.5,9.5,0.5,5.5,4.0,4.123105625617661,3.5,15.0,14.0,14.035668847618199
47,296,8.0,30.01666203960727,5.0,8.06225774829855,9.0,10.04987562112089,9.0,30.01666203960727,22.0,18.0,20.0,21.0,11.5,9.5,0.5,6.5,4.0,4.123105625617661,3.5,15.0,14.0,15.033296378372908
48,297,8.06225774829855,30.066592756745816,5.0,8.0,9.055385138137417,10.0,9.0,30.01666203960727,22.02271554554524,18.0,19.0,21.0,11.0,10.0,1.0,5.0,3.0,3.0,3.5,14.0,14.0,14.0
49,298,8.06225774829855,29.017236257093817,6.0,9.0,9.0,10.0,9.0,32.01562118716424,23.021728866442675,19.0,21.0,22.0,12.5,10.5,0.5,6.5,3.0,4.0,4.0,14.0,13.0,14.035668847618199
50,299,8.0,30.01666203960727,6.082762530298219,7.0,9.0,10.0,8.0,29.017236257093817,22.02271554554524,18.0,20.0,21.0,12.5,8.5,0.5,6.5,3.1622776601683795,4.0,4.0,14.0,14.0,14.0
51,300,7.0710678118654755,30.066592756745816,6.0,8.0,8.0,10.0,9.0,30.01666203960727,22.02271554554524,18.5,20.0,22.0,12.0,9.0,1.0,6.0,4.0,4.0,3.5,14.0,14.0,14.0
52,301,8.06225774829855,30.01666203960727,5.0,7.0,9.0,10.0,9.0,29.017236257093817,22.02271554554524,18.0,20.0,21.0,11.5,8.5,0.5,6.5,3.0,4.123105625617661,3.5,14.0,13.0,13.0
53,302,8.0,30.01666203960727,6.082762530298219,7.0,9.0,10.0,8.0,29.017236257093817,22.02271554554524,18.0,20.0,21.0,12.5,8.5,0.5,6.5,4.123105625617661,4.123105625617661,3.5,15.0,14.0,13.0
54,303,8.0,30.01666203960727,6.0,8.06225774829855,8.0,10.0,8.06225774829855,30.066592756745816,22.02271554554524,18.0,20.0,21.0,12.5,9.5,0.5,6.5,4.0,4.123105625617661,4.0,14.0,13.0,14.0
55,304,8.06225774829855,29.017236257093817,5.0,8.0,9.0,10.0,9.0,30.01666203960727,22.02271554554524,18.0,20.0,21.0,11.5,9.5,1.5,6.5,4.123105625617661,4.0,4.5,14.0,14.0,15.0
56,305,8.0,30.01666203960727,6.082762530298219,8.0,9.0,10.04987562112089,8.0,30.01666203960727,22.02271554554524,18.0,20.0,21.0,12.5,9.5,1.5,6.5,4.0,4.0,4.5,14.0,13.0,14.0
57,306,8.0,29.017236257093817,6.082762530298219,8.0,8.0,9.0,8.0,30.01666203960727,22.02271554554524,18.0,20.0,21.0,12.5,9.5,1.5,6.5,4.0,4.0,3.5,15.0,14.0,15.0
58,307,9.0,29.017236257093817,5.0990195135927845,8.0,9.055385138137417,10.0,9.0,31.016124838541646,23.021728866442675,18.5,21.0,22.0,12.5,9.5,0.5,6.5,4.0,4.0,4.0,14.0,14.0,14.035668847618199
59,308,9.0,29.017236257093817,5.0990195135927845,8.0,9.055385138137417,10.0,9.0,31.016124838541646,23.021728866442675,18.5,21.0,22.0,12.5,9.5,0.5,6.5,4.0,4.0,4.0,14.0,14.0,14.035668847618199
60,309,9.0,29.017236257093817,5.0990195135927845,8.0,8.0,10.0,8.0,30.01666203960727,22.02271554554524,17.5,20.0,21.0,12.5,9.5,1.5,6.5,4.123105625617661,4.0,4.0,14.0,14.0,14.035668847618199
61,310,8.0,29.017236257093817,6.082762530298219,8.0,8.0,10.0,8.0,30.01666203960727,22.02271554554524,18.0,20.0,21.0,12.5,9.5,1.5,6.5,4.0,4.0,4.0,14.0,13.0,15.033296378372908
62,311,8.0,29.017236257093817,6.082762530298219,8.0,8.0,10.0,8.0,30.01666203960727,22.02271554554524,18.0,20.0,21.0,12.5,9.5,1.5,6.5,4.0,4.0,4.0,14.0,13.0,15.033296378372908
63,312,8.06225774829855,30.01666203960727,6.0,8.0,9.0,10.04987562112089,9.0,31.016124838541646,23.021728866442675,19.0,21.0,22.0,12.5,9.5,1.5,6.5,4.0,4.0,3.5,14.0,14.0,14.035668847618199
64,313,9.055385138137417,29.0,6.0,8.0,9.0,10.0,9.0,32.01562118716424,24.020824298928627,19.5,22.0,22.0,13.0,10.0,2.0,7.0,4.0,4.0,3.5,15.0,14.0,14.0
65,314,9.055385138137417,30.0,6.0,8.0,9.0,10.0,9.0,32.01562118716424,24.020824298928627,19.5,22.0,22.0,13.0,10.0,2.0,7.0,3.1622776601683795,4.123105625617661,3.5,14.0,14.0,15.0
66,315,9.055385138137417,30.01666203960727,6.0,8.0,9.0,10.04987562112089,8.0,31.016124838541646,23.021728866442675,18.5,21.0,22.0,13.5,9.5,1.5,7.5,3.0,4.123105625617661,4.0,14.0,14.0,15.033296378372908
67,316,9.0,31.064449134018133,5.0990195135927845,8.0,9.0,10.04987562112089,9.0,31.016124838541646,23.021728866442675,18.5,20.0,22.0,12.0,10.0,1.0,7.0,3.1622776601683795,3.1622776601683795,2.5,15.0,14.0,14.0
68,317,9.0,29.017236257093817,6.0,8.06225774829855,9.0,10.0,9.0,32.01562118716424,24.0,19.5,22.0,23.0,13.5,9.5,0.5,7.5,3.0,4.0,3.5,14.0,14.0,14.0
69,318,11.0,30.0,6.0,8.0,8.0,9.0,8.0,33.0,25.0,19.5,21.0,21.0,13.0,12.0,3.0,7.0,3.0,4.123105625617661,3.5,14.0,14.0,15.033296378372908
70,319,7.0,30.01666203960727,5.0,8.06225774829855,9.0,9.0,10.0,30.01666203960727,22.0,18.5,20.0,21.0,10.5,9.5,1.5,5.5,3.1622776601683795,3.0,3.5,14.0,14.0,14.0
71,320,7.0710678118654755,30.01666203960727,5.0,8.0,9.0,10.0,10.0,30.01666203960727,22.02271554554524,18.5,20.0,21.0,10.5,9.5,1.5,5.5,4.0,4.0,4.0,14.0,14.0,15.0
72,321,2.0,31.016124838541646,5.0,7.0710678118654755,9.0,9.0,11.0,25.019992006393608,18.0,17.0,19.0,20.0,8.5,5.5,1.5,3.5,4.0,4.123105625617661,4.0,14.0,14.0,13.0
73,322,1.0,32.01562118716424,5.0,7.0,8.0,9.0,10.04987562112089,23.021728866442675,16.0312195418814,15.5,17.0,18.0,7.5,5.5,1.5,2.5,4.123105625617661,4.0,4.0,13.0,13.0,13.038404810405298
74,323,2.0,32.0,5.0,7.0,8.0,9.0,10.04987562112089,24.020824298928627,17.029386365926403,16.0,18.0,18.0,8.0,6.0,2.0,3.0,4.0,4.123105625617661,3.5,13.0,13.0,14.0
75,324,2.0,31.016124838541646,5.0,7.0710678118654755,9.0,9.0,10.0,24.020824298928627,17.0,16.0,18.0,19.0,8.5,5.5,2.5,3.5,4.123105625617661,4.0,4.0,13.0,12.0,14.035668847618199
76,325,6.082762530298219,26.019223662515376,6.0,9.0,7.0,8.06225774829855,8.0,29.017236257093817,20.024984394500787,17.0,20.0,21.0,12.5,8.5,0.5,6.5,4.0,4.123105625617661,3.5,14.0,14.0,14.0
77,326,6.082762530298219,26.019223662515376,6.0,9.0,7.0,8.06225774829855,8.0,29.017236257093817,20.024984394500787,17.0,20.0,21.0,12.5,8.5,0.5,6.5,4.0,4.123105625617661,3.5,14.0,14.0,14.0
78,327,7.0,26.019223662515376,6.0,9.055385138137417,8.0,9.0,8.0,30.01666203960727,21.0,17.5,20.0,21.0,12.5,9.5,0.5,6.5,4.0,4.0,3.5,15.0,14.0,14.0
79,328,9.0,30.066592756745816,5.0990195135927845,9.0,9.055385138137417,10.04987562112089,9.0,32.01562118716424,23.021728866442675,18.5,20.0,22.0,12.0,11.0,2.0,6.0,4.0,4.0,4.0,14.0,13.0,14.0
80,329,9.0,30.066592756745816,5.0990195135927845,9.0,9.055385138137417,10.04987562112089,9.0,32.01562118716424,23.021728866442675,18.5,20.0,22.0,12.0,11.0,2.0,6.0,4.0,4.0,4.0,14.0,13.0,14.0
81,330,8.0,31.016124838541646,5.0,8.06225774829855,9.055385138137417,10.04987562112089,9.0,30.01666203960727,22.0,18.0,20.0,21.0,11.5,9.5,1.5,5.5,3.0,4.0,3.5,14.0,13.0,13.038404810405298
82,331,7.0,32.0624390837628,5.0,7.0710678118654755,9.0,10.04987562112089,9.0,28.0178514522438,21.0,17.5,19.0,21.0,11.0,8.0,0.0,6.0,3.0,4.0,3.5,14.0,13.0,14.0
83,332,7.0,32.0624390837628,5.0,7.0710678118654755,9.0,10.04987562112089,9.0,28.0178514522438,21.0,17.5,19.0,21.0,11.0,8.0,0.0,6.0,3.0,4.0,3.5,14.0,13.0,14.0
84,333,6.0,31.064449134018133,5.0990195135927845,9.0,9.055385138137417,10.04987562112089,8.0,28.0178514522438,19.026297590440446,16.0,18.0,20.0,11.0,9.0,0.0,5.0,3.0,4.0,3.5,15.0,13.0,15.0
85,334,5.0,31.016124838541646,4.123105625617661,9.0,9.055385138137417,10.0,9.0,27.018512172212592,18.027756377319946,15.5,18.0,19.0,9.5,8.5,0.5,4.5,4.0,3.1622776601683795,3.5,15.0,13.0,14.035668847618199
86,335,4.0,31.016124838541646,6.0,9.0,9.0,10.0,8.06225774829855,27.018512172212592,18.027756377319946,16.0,18.0,19.0,10.5,8.5,0.5,4.5,3.1622776601683795,3.0,3.5,15.0,13.0,14.0
87,336,4.0,31.016124838541646,5.0,8.06225774829855,9.0,10.0,9.0,26.019223662515376,18.0,16.0,18.0,19.0,9.5,7.5,0.5,4.5,4.0,3.0,3.0,15.0,13.0,14.035668847618199
88,337,3.0,30.01666203960727,5.0990195135927845,8.0,9.0,10.0,10.0,26.019223662515376,18.027756377319946,16.5,18.0,19.0,8.5,7.5,0.5,3.5,4.0,3.0,3.0,14.0,13.0,14.035668847618199
89,338,3.0,30.01666203960727,5.0990195135927845,8.0,9.0,10.0,10.0,26.019223662515376,18.027756377319946,16.5,18.0,19.0,8.5,7.5,0.5,3.5,4.0,3.0,3.0,14.0,13.0,14.035668847618199
90,339,3.0,31.016124838541646,5.0,8.0,9.0,10.0,10.0,26.0,18.0,16.5,18.0,19.0,8.5,7.5,0.5,3.5,3.0,3.0,3.5,14.0,13.0,14.0
91,340,4.0,28.0178514522438,5.0,8.06225774829855,8.0,9.0,10.0,27.018512172212592,19.0,17.0,19.0,20.0,9.5,7.5,0.5,4.5,3.1622776601683795,2.0,2.5,14.0,13.0,15.0
92,341,4.123105625617661,29.017236257093817,5.0,8.0,9.055385138137417,9.0,10.0,27.018512172212592,19.026297590440446,17.0,19.0,20.0,9.5,7.5,0.5,3.5,2.0,2.0,2.0,14.0,13.0,16.0
93,342,5.0,30.01666203960727,6.0,8.06225774829855,9.0,10.0,9.0,28.0178514522438,20.0,17.5,19.0,20.0,10.5,8.5,0.5,4.5,3.0,3.1622776601683795,2.5,14.0,13.0,15.0
94,343,2.0,30.01666203960727,6.0,9.0,8.0,9.0,10.04987562112089,27.018512172212592,18.027756377319946,17.0,19.0,20.0,9.5,7.5,1.5,3.5,3.0,3.0,3.0,14.0,13.0,14.035668847618199
95,344,2.0,30.01666203960727,6.0,9.0,8.0,9.0,10.04987562112089,27.018512172212592,18.027756377319946,17.0,19.0,20.0,9.5,7.5,1.5,3.5,3.0,3.0,3.0,14.0,13.0,14.0
96,345,1.0,32.01562118716424,6.082762530298219,7.0,9.0,9.0,10.0,24.020824298928627,17.029386365926403,16.5,18.0,19.0,8.5,5.5,1.5,2.5,2.0,3.0,3.0,14.0,13.0,14.0
97,346,0.0,32.01562118716424,6.0,6.0,9.055385138137417,9.0,10.04987562112089,22.02271554554524,16.0312195418814,16.0,17.0,18.0,7.5,4.5,2.5,1.5,2.0,2.23606797749979,2.0,15.0,13.0,13.0
98,347,1.0,32.0624390837628,5.0,7.0,8.06225774829855,9.0,10.04987562112089,23.021728866442675,16.0312195418814,15.5,17.0,19.0,8.0,5.0,3.0,2.0,2.0,2.0,2.0,15.0,13.0,13.038404810405298
99,348,1.4142135623730951,32.0624390837628,5.0,7.0,9.055385138137417,9.055385138137417,10.04987562112089,23.08679276123039,16.1245154965971,15.5,17.0,19.0,8.0,5.0,2.0,2.0,1.0,1.4142135623730951,1.5,15.0,13.0,15.0
100,349,2.0,30.01666203960727,5.0,7.0,9.0,10.0,11.045361017187261,25.019992006393608,18.027756377319946,17.0,19.0,20.0,8.5,5.5,2.5,3.5,2.0,2.23606797749979,2.5,16.0,14.0,15.033296378372908
101,350,2.0,30.01666203960727,5.0,8.0,8.0,9.0,11.045361017187261,26.019223662515376,18.027756377319946,17.0,19.0,20.0,8.5,6.5,2.5,3.5,3.0,3.0,2.5,15.0,13.0,15.0
102,351,6.0,30.066592756745816,6.0,8.06225774829855,8.0,10.04987562112089,9.055385138137417,29.068883707497267,21.02379604162864,18.0,19.0,21.0,11.0,9.0,1.0,5.0,2.0,2.23606797749979,2.0,16.0,14.0,14.035668847618199
103,352,3.0,31.0,6.0,8.06225774829855,8.0,9.0,8.06225774829855,25.079872407968907,17.029386365926403,15.5,18.0,18.0,10.0,7.0,1.0,4.0,2.0,2.23606797749979,2.5,15.0,13.0,15.033296378372908
104,353,3.0,32.01562118716424,6.0,8.06225774829855,9.0,9.0,8.06225774829855,25.079872407968907,17.029386365926403,15.5,17.0,18.0,9.5,7.5,1.5,3.5,3.0,3.1622776601683795,3.0,16.0,14.0,14.0
105,354,2.0,32.0624390837628,6.0,8.06225774829855,9.0,10.04987562112089,8.0,24.020824298928627,16.0,15.0,17.0,19.0,10.0,6.0,3.0,4.0,3.0,2.23606797749979,2.0,16.0,14.0,13.0
106,355,3.0,31.016124838541646,6.082762530298219,8.0,9.0,9.0,8.0,25.019992006393608,17.029386365926403,15.5,18.0,19.0,10.5,6.5,2.5,4.5,3.0,2.0,2.0,16.0,14.0,14.0
107,356,3.0,31.016124838541646,6.0,8.06225774829855,8.0,9.0,8.06225774829855,25.079872407968907,17.029386365926403,15.5,18.0,19.0,10.5,6.5,2.5,4.5,3.0,3.0,2.5,16.0,14.0,14.0
108,357,3.0,29.017236257093817,5.0990195135927845,9.055385138137417,9.0,9.0,9.0,26.076809620810597,17.029386365926403,15.5,18.0,19.0,9.5,7.5,1.5,4.5,2.0,2.0,2.5,16.0,14.0,14.0
109,358,5.0,30.01666203960727,6.0,9.0,8.0,9.0,8.06225774829855,28.0178514522438,19.026297590440446,16.5,19.0,20.0,11.5,8.5,0.5,5.5,3.0,3.1622776601683795,3.0,16.0,14.0,16.0
110,359,5.0,30.01666203960727,6.0,9.0,8.0,9.0,8.06225774829855,28.0178514522438,19.026297590440446,16.5,19.0,20.0,11.5,8.5,0.5,5.5,3.0,3.1622776601683795,3.0,16.0,14.0,16.0
111,360,6.0,30.066592756745816,4.0,8.06225774829855,8.06225774829855,9.0,9.055385138137417,27.073972741361768,19.026297590440446,16.0,18.0,20.0,10.0,8.0,0.0,5.0,2.0,2.23606797749979,2.5,15.0,13.0,15.0
112,361,7.0,31.016124838541646,5.0990195135927845,9.0,9.055385138137417,10.0,8.0,29.017236257093817,20.024984394500787,16.5,19.0,20.0,11.5,9.5,0.5,5.5,3.0,3.0,3.0,15.0,13.0,13.0
113,362,6.0,31.064449134018133,6.082762530298219,9.0,9.055385138137417,10.0,8.0,29.017236257093817,20.024984394500787,17.0,18.0,20.0,11.0,10.0,1.0,5.0,3.0,3.0,3.0,15.0,13.0,13.0
114,363,5.0,31.016124838541646,6.082762530298219,8.0,9.0,10.04987562112089,9.0,28.0178514522438,20.024984394500787,17.5,19.0,20.0,10.5,8.5,0.5,4.5,2.0,3.0,3.0,16.0,14.0,14.035668847618199
115,364,1.0,32.01562118716424,6.0,8.06225774829855,9.0,9.0,10.0,25.019992006393608,17.0,16.5,18.0,19.0,8.5,6.5,1.5,2.5,3.0,3.1622776601683795,2.5,16.0,14.0,15.033296378372908
116,365,1.0,31.016124838541646,5.0,7.0710678118654755,9.0,9.055385138137417,11.0,24.020824298928627,17.0,16.5,18.0,19.0,7.5,5.5,2.5,2.5,2.0,3.1622776601683795,2.5,15.0,12.0,15.033296378372908
117,366,1.0,31.016124838541646,6.0,7.0,9.0,10.04987562112089,10.04987562112089,24.020824298928627,17.029386365926403,16.5,18.0,19.0,8.5,5.5,2.5,2.5,2.0,2.23606797749979,2.0,15.0,12.0,14.0
118,367,2.0,31.064449134018133,5.0990195135927845,8.0,9.0,10.0,10.0,25.019992006393608,17.029386365926403,16.0,17.0,19.0,8.0,7.0,1.0,3.0,3.0,3.0,3.0,15.0,13.0,14.0
119,368,1.0,31.016124838541646,6.082762530298219,9.0,9.0,9.0,10.0,26.019223662515376,17.029386365926403,16.5,18.0,19.0,8.5,7.5,1.5,2.5,3.0,3.1622776601683795,3.0,15.0,13.0,14.0
120,369,3.0,31.016124838541646,5.0,8.0,9.0,9.0,10.04987562112089,26.019223662515376,18.027756377319946,16.5,18.0,19.0,8.5,7.5,1.5,3.5,4.0,3.0,3.0,15.0,12.0,14.0
121,370,4.0,30.01666203960727,5.0,9.055385138137417,8.06225774829855,9.0,9.0,27.018512172212592,18.0,16.0,18.0,19.0,9.5,8.5,0.5,3.5,3.0,3.1622776601683795,3.5,15.0,13.0,15.033296378372908
122,371,4.0,30.01666203960727,5.0,9.055385138137417,8.06225774829855,9.0,9.0,27.018512172212592,18.0,16.0,18.0,19.0,9.5,8.5,0.5,3.5,3.0,3.1622776601683795,3.5,15.0,13.0,15.033296378372908
123,372,3.0,30.01666203960727,5.0,8.06225774829855,8.0,9.0,10.0,26.019223662515376,18.0,16.5,18.0,19.0,8.5,7.5,0.5,3.5,3.0,3.0,3.0,15.0,13.0,15.033296378372908
124,373,2.23606797749979,28.160255680657446,6.0,8.0,7.0710678118654755,8.06225774829855,10.0,26.019223662515376,18.027756377319946,17.0,18.0,21.0,9.5,6.5,2.5,3.5,4.0,3.1622776601683795,3.0,16.0,13.0,14.035668847618199
125,374,2.0,28.071337695236398,6.082762530298219,8.0,7.0710678118654755,8.0,10.0,26.019223662515376,18.027756377319946,17.0,18.0,20.0,9.0,7.0,2.0,3.0,3.0,3.0,3.5,15.0,12.0,14.035668847618199
126,375,2.0,28.0178514522438,5.0990195135927845,8.0,7.0,8.06225774829855,11.0,26.019223662515376,18.027756377319946,17.0,19.0,20.0,8.5,6.5,1.5,3.5,3.0,3.1622776601683795,3.5,15.0,13.0,14.035668847618199
127,376,2.23606797749979,27.018512172212592,6.0,9.0,7.0710678118654755,8.06225774829855,10.04987562112089,27.073972741361768,18.110770276274835,17.0,19.0,20.0,9.5,7.5,1.5,3.5,4.0,3.1622776601683795,3.0,16.0,14.0,14.0
128,377,4.0,28.071337695236398,6.082762530298219,9.0,7.0710678118654755,8.0,9.0,28.0178514522438,19.026297590440446,17.0,19.0,21.0,11.0,8.0,2.0,4.0,4.0,3.1622776601683795,3.0,15.0,13.0,13.038404810405298
129,378,4.123105625617661,27.018512172212592,6.0,9.0,8.0,9.0,9.055385138137417,28.071337695236398,19.1049731745428,17.0,19.0,20.0,10.5,8.5,0.5,4.5,4.0,3.1622776601683795,3.0,15.0,13.0,14.0
130,379,5.0,29.017236257093817,6.0,10.04987562112089,8.0,10.0,8.06225774829855,29.068883707497267,19.026297590440446,16.5,18.0,19.0,10.5,10.5,0.5,4.5,4.0,3.1622776601683795,3.5,15.0,13.0,14.0
131,380,6.0,29.017236257093817,5.0990195135927845,8.0,8.0,9.0,9.0,28.0178514522438,20.024984394500787,17.0,19.0,20.0,10.5,8.5,0.5,5.5,3.0,3.0,2.5,16.0,14.0,14.035668847618199
132,381,5.0,28.0178514522438,6.0,9.055385138137417,8.0,10.04987562112089,8.0,28.0178514522438,19.0,16.5,19.0,20.0,11.5,8.5,0.5,5.5,4.0,4.0,4.0,15.0,13.0,14.035668847618199
133,382,6.0,26.019223662515376,6.082762530298219,9.0,7.0,9.0,8.0,29.017236257093817,20.024984394500787,17.0,19.0,20.0,11.5,9.5,0.5,5.5,3.0,3.0,3.0,14.0,12.0,15.0
134,383,7.0,26.019223662515376,5.0,9.0,8.06225774829855,9.0,8.06225774829855,29.017236257093817,20.024984394500787,16.5,19.0,20.0,11.5,9.5,0.5,5.5,3.0,3.0,3.0,15.0,13.0,13.0
135,384,8.0,26.019223662515376,5.0990195135927845,9.0,7.0,9.0,8.0,30.01666203960727,21.02379604162864,17.0,19.0,20.0,11.5,10.5,0.5,5.5,3.0,3.0,3.0,15.0,12.0,14.0
136,385,4.123105625617661,28.0178514522438,6.0,9.0,7.0,8.0,9.0,28.0178514522438,19.026297590440446,17.0,19.0,20.0,10.5,8.5,0.5,4.5,4.0,3.1622776601683795,3.5,15.0,13.0,14.035668847618199
137,386,4.123105625617661,28.0178514522438,6.0,9.0,7.0,8.0,9.0,28.0178514522438,19.026297590440446,17.0,19.0,20.0,10.5,8.5,0.5,4.5,4.0,3.1622776601683795,3.5,15.0,13.0,14.035668847618199
138,387,2.0,28.0178514522438,6.0,9.0,8.0,9.0,11.0,28.0,19.0,18.0,20.0,21.0,9.5,7.5,1.5,3.5,3.0,3.0,3.0,15.0,13.0,14.035668847618199
139,388,6.0,29.068883707497267,6.0,9.055385138137417,9.0,9.0,9.055385138137417,30.066592756745816,21.02379604162864,18.0,19.0,21.0,11.0,10.0,1.0,5.0,3.0,3.1622776601683795,3.0,15.0,13.0,14.0
140,389,7.0,29.068883707497267,5.0990195135927845,9.055385138137417,9.055385138137417,9.0,9.0,30.066592756745816,21.02379604162864,17.5,19.0,21.0,11.0,10.0,1.0,5.0,3.0,3.0,3.0,15.0,13.0,14.035668847618199
141,390,8.0,30.01666203960727,5.0,9.0,9.0,10.0,9.055385138137417,31.016124838541646,22.02271554554524,18.0,20.0,21.0,11.5,10.5,0.5,6.5,3.0,3.0,3.0,15.0,13.0,14.035668847618199
142,391,8.0,29.068883707497267,5.0,8.06225774829855,9.055385138137417,9.0,8.0,29.017236257093817,21.0,17.0,19.0,21.0,12.0,9.0,0.0,6.0,3.0,3.1622776601683795,3.5,15.0,13.0,14.0
143,392,7.0,30.14962686336267,6.0,9.055385138137417,9.0,11.0,8.0,30.01666203960727,21.0,17.5,19.0,22.0,12.5,9.5,0.5,6.5,3.0,3.1622776601683795,3.0,15.0,12.0,14.0
144,393,7.0,29.017236257093817,6.0,9.0,9.0,9.055385138137417,8.0,30.0,21.0,17.5,20.0,21.0,12.5,9.5,0.5,6.5,4.0,3.0,3.0,15.0,12.0,14.035668847618199
145,394,7.0,33.015148038438355,5.0990195135927845,9.0,9.055385138137417,10.04987562112089,9.0,30.01666203960727,21.02379604162864,17.5,19.0,20.0,10.5,10.5,1.5,4.5,3.0,3.1622776601683795,3.0,15.0,13.0,15.0
146,395,8.0,33.06055050963308,5.0990195135927845,8.0,9.055385138137417,10.0,9.0,30.01666203960727,22.02271554554524,18.0,19.0,21.0,11.0,10.0,1.0,5.0,3.0,3.0,3.0,15.0,13.0,16.0
147,396,6.0,34.058772731852805,5.0,8.0,10.0,11.045361017187261,10.04987562112089,29.017236257093817,21.02379604162864,18.0,19.0,21.0,10.0,9.0,0.0,5.0,4.0,3.0,2.5,15.0,13.0,15.033296378372908
148,397,5.0,32.0624390837628,5.0,8.06225774829855,9.055385138137417,10.0,8.0,26.019223662515376,18.0,15.5,17.0,19.0,10.0,8.0,1.0,4.0,2.0,3.0,2.5,15.0,13.0,14.035668847618199
149,398,6.0,31.064449134018133,5.0,8.06225774829855,9.055385138137417,10.0,8.0,27.018512172212592,19.0,16.0,17.0,19.0,10.0,9.0,0.0,4.0,2.0,2.23606797749979,2.0,16.0,14.0,16.0312195418814
150,399,4.0,33.06055050963308,5.0,8.0,9.0,9.055385138137417,9.0,26.0,18.0,16.0,17.0,19.0,9.0,8.0,1.0,4.0,2.0,2.23606797749979,2.0,16.0,14.0,14.0
151,400,1.4142135623730951,34.0147027033899,5.0,6.0,9.0,10.0,10.04987562112089,22.090722034374522,16.1245154965971,15.5,17.0,18.0,7.5,4.5,2.5,2.5,2.0,2.0,2.0,15.0,13.0,15.0
152,401,1.0,32.01562118716424,6.0,7.0,10.04987562112089,10.0,10.198039027185569,22.090722034374522,15.132745950421556,15.5,17.0,18.0,7.5,4.5,2.5,1.5,2.0,2.0,2.0,15.0,13.0,16.0
153,402,0.0,32.0624390837628,5.0,7.0710678118654755,9.0,10.0,10.04987562112089,22.090722034374522,15.033296378372908,15.0,16.0,18.0,7.0,5.0,2.0,2.0,2.0,3.1622776601683795,3.0,15.0,13.0,15.033296378372908
154,403,1.0,32.01562118716424,5.0,7.0,9.0,10.0,10.0,22.02271554554524,15.033296378372908,15.0,17.0,18.0,7.5,4.5,2.5,2.5,3.0,2.0,2.5,14.0,12.0,15.033296378372908
155,404,0.0,33.015148038438355,5.0990195135927845,7.0,9.0,10.0,10.0,22.02271554554524,15.033296378372908,15.0,17.0,18.0,7.5,4.5,2.5,2.5,3.1622776601683795,3.1622776601683795,3.0,15.0,13.0,15.0
156,405,0.0,33.015148038438355,5.0,6.0,9.0,9.0,10.04987562112089,21.02379604162864,15.033296378372908,15.0,17.0,18.0,7.5,3.5,2.5,2.5,3.0,3.1622776601683795,3.0,15.0,13.0,15.0
157,406,1.0,33.015148038438355,6.0,6.082762530298219,9.055385138137417,9.0,9.0,20.024984394500787,14.0,14.5,17.0,18.0,8.5,2.5,3.5,2.5,3.0,2.0,2.5,15.0,13.0,15.0
158,407,1.0,33.015148038438355,6.0,6.082762530298219,9.055385138137417,9.0,9.0,20.024984394500787,14.0,14.5,17.0,18.0,8.5,2.5,3.5,2.5,3.0,2.0,2.5,15.0,13.0,15.0
159,408,0.0,33.06055050963308,5.0,7.0710678118654755,9.0,9.0,9.0,21.02379604162864,14.0,14.0,16.0,18.0,8.0,4.0,3.0,3.0,2.0,2.23606797749979,2.5,14.0,12.0,16.0312195418814
160,409,0.0,32.0624390837628,5.0990195135927845,6.0,9.0,8.0,9.055385138137417,20.09975124224178,14.142135623730951,14.0,16.0,18.0,8.0,3.0,3.0,3.0,3.0,3.0,3.0,15.0,13.0,15.033296378372908
161,410,0.0,33.015148038438355,5.0,6.0,9.0,9.0,9.055385138137417,20.024984394500787,14.035668847618199,14.0,16.0,17.0,7.5,3.5,2.5,2.5,2.0,3.1622776601683795,3.0,14.0,12.0,15.033296378372908
162,411,0.0,33.015148038438355,6.0,7.0,8.0,9.0,8.06225774829855,21.02379604162864,14.035668847618199,14.0,16.0,17.0,8.5,4.5,2.5,2.5,3.0,3.0,3.0,14.0,12.0,15.033296378372908
163,412,1.4142135623730951,30.066592756745816,6.0,7.0,9.0,10.0,8.0,22.02271554554524,15.033296378372908,14.5,16.0,18.0,9.0,5.0,3.0,3.0,4.0,2.23606797749979,2.5,16.0,13.0,14.035668847618199
164,413,1.0,31.016124838541646,5.0990195135927845,7.0,9.0,9.0,9.0,22.02271554554524,15.033296378372908,14.5,16.0,17.0,7.5,5.5,2.5,2.5,3.0,3.0,3.0,14.0,12.0,15.033296378372908
165,414,2.0,30.066592756745816,5.0,7.0710678118654755,9.0,9.0,9.0,23.021728866442675,16.0,15.0,16.0,18.0,8.0,6.0,2.0,3.0,3.0,3.1622776601683795,3.0,15.0,13.0,15.033296378372908
166,415,4.0,30.066592756745816,5.0,8.06225774829855,8.06225774829855,10.0,8.06225774829855,25.079872407968907,17.029386365926403,15.0,16.0,18.0,9.0,8.0,1.0,4.0,3.0,4.0,3.5,14.0,12.0,14.0
167,416,4.123105625617661,30.01666203960727,5.0,8.0,9.0,10.0,8.06225774829855,25.079872407968907,17.11724276862369,15.0,17.0,18.0,9.5,7.5,1.5,4.5,4.0,3.1622776601683795,3.5,16.0,13.0,15.0
168,417,5.0990195135927845,29.068883707497267,5.0,8.0,9.055385138137417,10.04987562112089,8.06225774829855,26.076809620810597,18.110770276274835,15.5,17.0,19.0,10.0,8.0,1.0,4.0,4.0,3.1622776601683795,3.5,15.0,14.0,14.0
169,418,8.0,28.0178514522438,5.0,9.0,8.0,9.0,8.06225774829855,30.01666203960727,21.02379604162864,17.0,19.0,20.0,11.5,10.5,1.5,6.5,4.0,4.0,4.5,14.0,13.0,15.033296378372908
170,419,8.0,28.0178514522438,5.0,9.0,8.0,9.0,8.06225774829855,30.01666203960727,21.02379604162864,17.0,19.0,20.0,11.5,10.5,1.5,6.5,4.0,4.0,4.5,14.0,13.0,15.033296378372908
171,420,8.06225774829855,28.0178514522438,5.0,8.0,8.06225774829855,10.04987562112089,8.06225774829855,29.068883707497267,21.095023109728988,17.0,19.0,20.0,11.5,9.5,0.5,5.5,5.0,4.123105625617661,4.5,14.0,13.0,14.035668847618199
172,421,8.0,28.0178514522438,5.0,9.0,8.0,9.0,8.06225774829855,30.01666203960727,21.02379604162864,17.0,20.0,21.0,12.5,9.5,0.5,7.5,4.0,4.0,4.0,14.0,13.0,16.0
173,422,8.0,28.0178514522438,5.0,9.0,8.0,9.0,8.06225774829855,30.01666203960727,21.02379604162864,17.0,20.0,21.0,12.5,9.5,0.5,7.5,4.0,5.0,4.5,15.0,13.0,15.0
174,423,8.06225774829855,28.0178514522438,5.0990195135927845,9.055385138137417,9.055385138137417,10.04987562112089,8.0,30.01666203960727,21.0,17.0,20.0,21.0,12.5,9.5,0.5,6.5,4.0,4.123105625617661,4.0,15.0,13.0,15.0
175,424,10.0,29.017236257093817,5.0990195135927845,8.0,9.055385138137417,10.04987562112089,8.0,31.016124838541646,23.021728866442675,18.0,20.0,21.0,12.5,10.5,1.5,6.5,4.0,4.0,4.0,15.0,12.0,15.0
176,425,10.0,29.068883707497267,5.0990195135927845,9.0,9.055385138137417,10.0,8.0,32.01562118716424,23.021728866442675,18.0,20.0,22.0,13.0,11.0,1.0,7.0,5.0,4.0,4.0,15.0,13.0,15.0
177,426,10.0,28.0178514522438,6.0,9.055385138137417,8.06225774829855,10.0,8.0,33.015148038438355,24.0,19.0,21.0,22.0,13.5,11.5,1.5,6.5,3.0,4.0,3.5,15.0,13.0,14.0
178,427,8.06225774829855,30.01666203960727,5.0,10.0,9.055385138137417,10.0,8.0,31.016124838541646,21.02379604162864,17.0,20.0,21.0,12.5,10.5,0.5,6.5,4.0,4.123105625617661,3.5,15.0,13.0,14.0
179,428,8.06225774829855,30.066592756745816,5.0,9.0,9.055385138137417,10.04987562112089,8.0,30.01666203960727,21.02379604162864,17.0,19.0,21.0,12.0,10.0,0.0,6.0,3.0,3.0,3.0,15.0,13.0,15.0
180,429,5.0,30.01666203960727,6.0,10.0,8.06225774829855,9.0,8.0,29.0,19.0,16.5,19.0,20.0,11.5,9.5,0.5,5.5,4.0,4.0,3.5,14.0,12.0,15.0
181,430,4.123105625617661,27.018512172212592,5.0,9.0,8.0,9.0,7.0,25.019992006393608,16.0312195418814,14.0,17.0,18.0,10.5,7.5,1.5,5.5,3.0,3.0,3.0,14.0,12.0,16.0
182,431,4.123105625617661,27.018512172212592,5.0,9.0,8.0,9.0,7.0,25.019992006393608,16.0312195418814,14.0,17.0,18.0,10.5,7.5,1.5,5.5,3.0,3.0,3.0,14.0,12.0,16.0
183,432,4.0,28.0178514522438,4.123105625617661,8.0,8.06225774829855,8.0,8.06225774829855,24.0,16.0,14.0,17.0,18.0,9.5,6.5,1.5,4.5,3.0,3.0,3.0,14.0,12.0,15.0
184,433,3.0,24.08318915758459,6.0,8.06225774829855,7.0710678118654755,8.06225774829855,8.06225774829855,25.079872407968907,17.029386365926403,15.5,19.0,21.0,12.0,5.0,4.0,6.0,4.0,3.1622776601683795,3.5,15.0,13.0,15.0
185,434,3.0,24.08318915758459,6.0,8.06225774829855,7.0710678118654755,8.06225774829855,8.06225774829855,25.079872407968907,17.029386365926403,15.5,19.0,21.0,12.0,5.0,4.0,6.0,4.0,3.1622776601683795,3.5,15.0,13.0,15.0
186,435,1.0,25.019992006393608,6.0,8.0,8.06225774829855,9.055385138137417,9.055385138137417,24.020824298928627,16.0312195418814,15.5,18.0,19.0,9.5,5.5,3.5,3.5,3.0,3.0,3.0,15.0,13.0,15.0
187,436,2.0,22.02271554554524,6.0,8.06225774829855,6.082762530298219,7.0710678118654755,9.055385138137417,25.079872407968907,17.029386365926403,16.0,20.0,21.0,11.5,4.5,4.5,5.5,3.1622776601683795,3.1622776601683795,3.0,14.0,12.0,15.0
188,437,2.0,22.02271554554524,6.0,9.0,8.0,8.0,9.0,26.0,17.0,16.0,21.0,22.0,12.5,4.5,5.5,6.5,3.1622776601683795,3.0,3.0,15.0,13.0,15.0
189,438,2.0,24.08318915758459,6.0,9.055385138137417,7.0,8.0,9.0,26.019223662515376,17.0,16.0,19.0,21.0,11.0,6.0,4.0,5.0,3.0,3.0,3.0,15.0,13.0,15.0
190,439,5.0,27.0,6.0,9.055385138137417,8.0,9.0,8.0,28.0178514522438,19.0,16.5,20.0,20.0,12.0,8.0,1.0,6.0,4.0,4.123105625617661,4.0,15.0,12.0,15.0
191,440,6.0,25.019992006393608,6.0,8.06225774829855,7.0,9.0,8.06225774829855,28.071337695236398,20.024984394500787,17.0,20.0,21.0,12.5,7.5,1.5,6.5,4.0,4.123105625617661,4.0,14.0,12.0,15.0
192,441,6.082762530298219,25.019992006393608,5.0,9.0,7.0710678118654755,8.0,8.0,28.0178514522438,19.026297590440446,16.0,19.0,20.0,11.5,8.5,0.5,5.5,4.0,4.0,4.0,15.0,13.0,14.0
193,442,2.0,28.071337695236398,6.0,9.055385138137417,8.0,9.0,9.055385138137417,26.076809620810597,17.029386365926403,16.0,18.0,20.0,10.0,7.0,2.0,4.0,4.0,4.123105625617661,4.0,15.0,13.0,13.0
194,443,2.23606797749979,29.017236257093817,6.0,8.0,8.0,8.0,9.0,25.019992006393608,17.029386365926403,16.0,18.0,19.0,9.5,6.5,1.5,3.5,4.0,3.0,3.5,15.0,13.0,14.0
195,444,0.0,28.0178514522438,6.0,8.06225774829855,8.0,8.0,10.04987562112089,24.08318915758459,16.0312195418814,16.0,18.0,19.0,8.5,5.5,2.5,2.5,4.0,4.123105625617661,4.0,15.0,13.0,13.0
196,445,1.0,29.068883707497267,6.0,7.0,8.06225774829855,9.055385138137417,9.055385138137417,23.021728866442675,16.0312195418814,15.5,17.0,19.0,9.0,5.0,3.0,3.0,3.0,3.0,3.0,15.0,13.0,14.0
197,446,2.23606797749979,29.017236257093817,5.0,7.0,7.0,8.0,9.0,23.021728866442675,16.0312195418814,15.0,17.0,18.0,8.5,5.5,1.5,3.5,4.0,4.0,3.5,14.0,13.0,14.035668847618199
198,447,3.0,27.073972741361768,6.082762530298219,8.0,7.0,8.06225774829855,9.0,26.019223662515376,18.027756377319946,16.5,19.0,21.0,11.0,6.0,2.0,5.0,4.123105625617661,3.0,3.5,15.0,13.0,14.0
199,448,7.0710678118654755,27.018512172212592,5.0,8.0,8.06225774829855,8.0,8.0,28.0178514522438,20.024984394500787,16.5,20.0,21.0,12.5,7.5,0.5,6.5,4.123105625617661,4.0,3.5,15.0,13.0,14.0
200,449,6.082762530298219,27.073972741361768,6.0,8.0,8.0,9.055385138137417,8.0,28.0178514522438,20.024984394500787,17.0,19.0,21.0,12.0,8.0,1.0,6.0,4.0,4.123105625617661,3.5,15.0,13.0,13.0
201,450,6.082762530298219,27.073972741361768,6.0,8.0,8.0,8.06225774829855,8.06225774829855,28.071337695236398,20.09975124224178,17.0,19.0,21.0,12.0,8.0,1.0,6.0,4.0,4.0,4.0,15.0,13.0,13.0
202,451,6.0,28.071337695236398,5.0,9.0,9.0,9.0,9.055385138137417,29.017236257093817,20.024984394500787,17.0,19.0,21.0,11.0,9.0,0.0,6.0,3.0,4.0,3.5,15.0,13.0,14.0
203,452,6.0,28.0178514522438,6.0,8.0,8.0,10.0,8.06225774829855,28.0178514522438,20.024984394500787,17.0,19.0,20.0,11.5,8.5,0.5,5.5,3.0,4.123105625617661,3.5,15.0,13.0,13.0
204,453,6.0,29.017236257093817,6.082762530298219,8.0,8.0,9.0,8.0,28.0178514522438,20.024984394500787,17.0,19.0,20.0,11.5,8.5,0.5,5.5,4.0,4.0,3.5,15.0,13.0,14.0
205,454,5.0990195135927845,31.064449134018133,6.0,8.0,9.0,9.055385138137417,8.0,27.018512172212592,19.026297590440446,16.5,18.0,20.0,11.0,8.0,0.0,5.0,3.0,3.0,3.5,15.0,13.0,14.035668847618199
206,455,5.0,31.016124838541646,5.0,8.06225774829855,9.0,10.0,9.0,27.018512172212592,19.0,16.5,19.0,20.0,10.5,7.5,0.5,5.5,3.0,4.0,3.5,15.0,13.0,14.0
207,456,4.123105625617661,30.066592756745816,6.0,8.0,9.0,10.04987562112089,8.06225774829855,26.076809620810597,18.110770276274835,16.0,18.0,20.0,11.0,7.0,2.0,5.0,3.0,3.0,3.5,14.0,12.0,14.0
208,457,4.0,30.01666203960727,5.0,8.06225774829855,9.055385138137417,9.055385138137417,9.0,26.019223662515376,18.0,16.0,19.0,20.0,10.5,6.5,1.5,4.5,3.0,3.1622776601683795,3.0,15.0,12.0,13.038404810405298
209,458,4.0,30.066592756745816,5.0,8.06225774829855,9.0,9.055385138137417,9.0,26.019223662515376,18.0,16.0,18.0,20.0,10.0,7.0,1.0,5.0,3.0,3.1622776601683795,3.0,14.0,12.0,14.035668847618199
210,459,4.0,30.066592756745816,5.0,8.06225774829855,9.055385138137417,9.0,9.055385138137417,26.076809620810597,18.027756377319946,16.0,18.0,20.0,10.0,7.0,2.0,4.0,3.1622776601683795,3.1622776601683795,2.5,15.0,12.0,13.0
211,460,5.0,30.066592756745816,5.0,8.06225774829855,8.06225774829855,9.0,8.06225774829855,26.076809620810597,18.027756377319946,15.5,18.0,20.0,11.0,7.0,2.0,5.0,3.1622776601683795,3.0,3.0,14.0,12.0,14.0
212,461,5.0990195135927845,29.017236257093817,5.0,8.0,9.055385138137417,10.04987562112089,8.0,26.019223662515376,18.027756377319946,15.5,18.0,19.0,10.5,7.5,0.5,4.5,3.0,3.0,3.0,15.0,13.0,13.038404810405298
213,462,5.0,31.064449134018133,5.0,8.06225774829855,9.055385138137417,10.04987562112089,8.0,26.019223662515376,18.0,15.5,18.0,20.0,11.0,7.0,1.0,5.0,3.0,3.1622776601683795,3.0,14.0,12.0,14.0
214,463,5.0990195135927845,30.066592756745816,6.0,9.0,9.055385138137417,10.0,7.0,27.018512172212592,18.027756377319946,15.5,18.0,20.0,12.0,8.0,1.0,5.0,3.0,3.1622776601683795,2.5,15.0,13.0,13.0
215,464,5.0990195135927845,30.01666203960727,6.0,9.0,9.0,9.0,8.0,28.0178514522438,19.026297590440446,16.5,19.0,20.0,11.5,8.5,0.5,5.5,3.0,4.123105625617661,3.5,15.0,13.0,13.0
216,465,5.0,30.066592756745816,6.0,9.055385138137417,8.06225774829855,9.0,8.06225774829855,28.071337695236398,19.026297590440446,16.5,19.0,21.0,12.0,8.0,1.0,5.0,4.0,4.0,4.0,14.0,12.0,12.041594578792296
217,466,5.0,29.017236257093817,6.0,8.06225774829855,9.055385138137417,10.0,7.0710678118654755,26.076809620810597,18.027756377319946,15.5,18.0,19.0,11.5,7.5,0.5,4.5,3.1622776601683795,3.1622776601683795,3.0,14.0,12.0,14.0
218,467,5.0,29.017236257093817,6.0,8.06225774829855,9.055385138137417,10.0,7.0710678118654755,26.076809620810597,18.027756377319946,15.5,18.0,19.0,11.5,7.5,0.5,4.5,3.1622776601683795,3.1622776601683795,3.0,14.0,12.0,14.0
219,468,5.0990195135927845,29.068883707497267,6.0,8.0,9.055385138137417,9.0,8.06225774829855,27.073972741361768,19.1049731745428,16.5,19.0,21.0,12.0,7.0,1.0,5.0,5.0,4.0,4.0,14.0,13.0,13.0
220,469,5.0990195135927845,29.017236257093817,6.0,8.0,9.055385138137417,10.0,8.06225774829855,27.073972741361768,19.1049731745428,16.5,19.0,20.0,11.5,7.5,1.5,5.5,3.0,4.0,4.0,14.0,13.0,13.038404810405298
221,470,5.0990195135927845,29.017236257093817,6.0,8.0,9.055385138137417,10.0,8.06225774829855,27.073972741361768,19.1049731745428,16.5,19.0,20.0,11.5,7.5,1.5,5.5,3.0,4.0,4.0,14.0,13.0,13.038404810405298
222,471,5.0,30.066592756745816,6.0,9.055385138137417,8.06225774829855,10.0,8.06225774829855,28.071337695236398,19.026297590440446,16.5,19.0,21.0,12.0,8.0,1.0,5.0,3.0,4.123105625617661,4.0,14.0,12.0,14.0
223,472,5.0,29.017236257093817,6.082762530298219,8.0,7.0,9.055385138137417,8.06225774829855,27.073972741361768,19.1049731745428,16.5,19.0,20.0,11.5,7.5,1.5,5.5,3.0,4.123105625617661,3.5,14.0,12.0,14.0
224,473,6.0,29.017236257093817,5.0990195135927845,8.0,8.06225774829855,9.0,8.06225774829855,27.073972741361768,19.1049731745428,16.0,19.0,20.0,11.5,7.5,1.5,5.5,3.0,4.123105625617661,4.0,14.0,12.0,13.0
225,474,6.0,29.017236257093817,5.0,8.0,8.06225774829855,9.055385138137417,8.06225774829855,27.018512172212592,19.026297590440446,16.0,19.0,20.0,11.5,7.5,0.5,5.5,4.0,4.123105625617661,4.0,14.0,12.0,15.0
226,475,5.0,29.017236257093817,6.0,8.06225774829855,8.0,9.055385138137417,8.06225774829855,27.073972741361768,19.026297590440446,16.5,19.0,20.0,11.5,7.5,0.5,5.5,4.123105625617661,4.0,4.0,14.0,12.0,14.0
227,476,4.0,29.017236257093817,6.0,9.055385138137417,8.0,8.06225774829855,8.06225774829855,27.073972741361768,18.027756377319946,16.0,19.0,20.0,11.5,7.5,1.5,5.5,3.0,4.0,4.0,14.0,12.0,13.0
228,477,5.0,30.066592756745816,5.0,8.0,9.055385138137417,9.0,9.219544457292887,27.073972741361768,19.1049731745428,16.5,19.0,21.0,11.0,7.0,1.0,5.0,4.0,3.0,3.0,14.0,12.0,14.0
229,478,4.123105625617661,29.017236257093817,6.0,9.0,8.0,9.0,8.0,27.018512172212592,18.027756377319946,16.0,19.0,20.0,11.5,7.5,1.5,5.5,4.123105625617661,4.0,4.0,14.0,13.0,14.0
230,479,5.0,29.017236257093817,6.082762530298219,8.0,8.0,9.055385138137417,8.0,27.018512172212592,19.026297590440446,16.5,19.0,20.0,11.5,7.5,0.5,5.5,4.0,4.0,4.0,14.0,13.0,14.0
231,480,6.0,30.01666203960727,5.0990195135927845,8.0,9.055385138137417,9.055385138137417,9.0,28.0178514522438,20.024984394500787,17.0,20.0,21.0,11.5,7.5,0.5,5.5,3.0,3.1622776601683795,3.5,14.0,12.0,14.0
232,481,6.082762530298219,29.068883707497267,5.0,8.0,8.06225774829855,9.0,8.0,27.018512172212592,19.026297590440446,16.0,18.0,20.0,11.0,8.0,0.0,5.0,4.0,4.0,4.0,14.0,12.0,14.0
233,482,6.082762530298219,29.068883707497267,5.0,8.0,8.06225774829855,9.0,8.0,27.018512172212592,19.026297590440446,16.0,18.0,20.0,11.0,8.0,0.0,5.0,4.0,4.0,4.0,14.0,12.0,14.0
234,483,5.0,30.066592756745816,5.0990195135927845,8.0,9.055385138137417,9.0,8.0,26.019223662515376,18.027756377319946,15.5,18.0,20.0,11.0,7.0,1.0,5.0,3.0,4.123105625617661,4.0,15.0,13.0,13.038404810405298
235,484,3.0,31.016124838541646,6.0,8.06225774829855,9.0,10.0,8.0,25.019992006393608,17.0,15.5,18.0,19.0,10.5,6.5,1.5,4.5,3.0,4.0,3.5,14.0,12.0,13.0
236,485,3.0,31.016124838541646,6.0,8.06225774829855,9.0,10.0,8.0,25.019992006393608,17.0,15.5,18.0,19.0,10.5,6.5,1.5,4.5,3.0,4.0,3.5,14.0,12.0,13.0
237,486,4.0,30.01666203960727,5.0990195135927845,7.0,9.055385138137417,10.0,9.0,25.019992006393608,18.027756377319946,16.0,19.0,20.0,10.5,5.5,2.5,4.5,3.0,3.1622776601683795,3.5,14.0,13.0,13.0
238,487,7.0710678118654755,30.01666203960727,5.0,8.0,8.06225774829855,9.0,8.06225774829855,28.071337695236398,20.09975124224178,16.5,19.0,20.0,11.5,8.5,0.5,5.5,4.0,4.0,4.5,13.0,13.0,16.0
239,488,6.0,30.01666203960727,5.0,8.0,8.0,9.0,8.06225774829855,27.018512172212592,19.026297590440446,16.0,18.0,19.0,10.5,8.5,0.5,5.5,4.0,4.123105625617661,4.0,13.0,12.0,16.0
240,489,6.0,31.064449134018133,5.0,7.0710678118654755,8.0,9.0,8.06225774829855,26.076809620810597,19.026297590440446,16.0,17.0,19.0,10.0,8.0,0.0,5.0,3.0,4.0,4.0,13.0,12.0,16.0
241,490,5.0,30.066592756745816,5.0990195135927845,8.0,9.0,10.0,8.0,26.019223662515376,18.027756377319946,15.5,17.0,19.0,10.0,8.0,0.0,5.0,3.0,4.0,3.5,13.0,12.0,15.0
242,491,5.0,30.066592756745816,5.0990195135927845,8.0,9.0,10.0,8.0,26.019223662515376,18.027756377319946,15.5,17.0,19.0,10.0,8.0,0.0,5.0,3.0,4.0,3.5,13.0,12.0,15.0
243,492,6.0,30.01666203960727,5.0,7.0,8.0,9.0,8.06225774829855,26.019223662515376,19.026297590440446,16.0,18.0,19.0,10.5,7.5,0.5,5.5,4.0,4.0,4.0,13.0,12.0,15.0
244,493,4.123105625617661,30.066592756745816,5.0,9.0,9.055385138137417,9.055385138137417,8.0,26.019223662515376,17.029386365926403,15.0,17.0,19.0,10.0,8.0,1.0,4.0,2.0,2.23606797749979,2.0,14.0,12.0,14.0
245,494,5.0,30.01666203960727,5.0990195135927845,8.0,9.0,9.055385138137417,8.0,26.019223662515376,18.027756377319946,15.5,18.0,19.0,10.5,7.5,0.5,5.5,2.0,2.0,1.5,14.0,12.0,15.0
246,495,6.0,31.064449134018133,5.0990195135927845,8.0,9.055385138137417,10.0,8.0,27.018512172212592,19.026297590440446,16.0,18.0,20.0,11.0,8.0,0.0,5.0,3.0,3.0,2.5,14.0,12.0,14.0
247,496,4.0,30.066592756745816,5.0990195135927845,7.0,9.0,10.04987562112089,8.0,24.020824298928627,17.029386365926403,15.0,17.0,19.0,10.0,6.0,2.0,5.0,2.0,2.23606797749979,1.5,15.0,14.0,14.0
248,497,4.0,30.066592756745816,5.0990195135927845,7.0,9.0,10.04987562112089,8.0,24.020824298928627,17.029386365926403,15.0,17.0,19.0,10.0,6.0,2.0,5.0,2.0,2.23606797749979,1.5,15.0,14.0,14.0
249,498,6.0,30.01666203960727,5.0,7.0710678118654755,8.0,9.0,8.06225774829855,26.076809620810597,19.026297590440446,16.0,18.0,19.0,10.5,7.5,0.5,5.5,3.0,2.0,2.0,13.0,12.0,14.0
250,499,5.0,29.017236257093817,5.0,7.0710678118654755,8.0,9.0,7.0,24.020824298928627,17.0,14.5,17.0,18.0,10.5,6.5,1.5,5.5,3.0,4.0,4.0,14.0,12.0,13.0
251,500,5.0,29.017236257093817,5.0,7.0710678118654755,8.06225774829855,9.0,7.0,24.020824298928627,17.0,14.5,17.0,18.0,10.5,6.5,0.5,4.5,4.0,4.0,4.0,13.0,12.0,15.0
252,501,5.0990195135927845,29.017236257093817,5.0,7.0,8.06225774829855,9.0,7.0,24.020824298928627,17.029386365926403,14.5,17.0,18.0,10.5,6.5,0.5,4.5,4.0,4.0,4.0,13.0,12.0,14.035668847618199
253,502,3.0,28.0178514522438,5.0,8.0,8.0,9.055385138137417,8.06225774829855,24.020824298928627,16.0312195418814,14.5,17.0,18.0,9.5,6.5,1.5,4.5,3.0,3.0,3.5,15.0,13.0,13.0
254,503,3.0,28.0178514522438,5.0,8.0,8.0,9.055385138137417,8.06225774829855,24.020824298928627,16.0312195418814,14.5,17.0,18.0,9.5,6.5,1.5,4.5,3.0,3.0,3.5,15.0,13.0,13.0
255,504,4.0,28.0178514522438,5.0,8.0,8.0,8.0,8.06225774829855,25.019992006393608,17.029386365926403,15.0,17.0,18.0,9.5,7.5,0.5,4.5,4.0,4.0,4.0,13.0,12.0,15.0
256,505,3.0,27.0,6.0,8.0,8.06225774829855,9.0,8.0,25.0,17.0,15.5,18.0,18.0,10.0,7.0,2.0,4.0,4.0,3.1622776601683795,3.5,13.0,12.0,14.035668847618199
257,506,4.0,27.0,5.0,8.0,8.0,8.0,8.06225774829855,25.019992006393608,17.029386365926403,15.0,19.0,19.0,11.0,6.0,2.0,6.0,4.0,5.0,4.5,14.0,13.0,15.033296378372908
258,507,4.0,27.018512172212592,5.0,8.0,8.0,8.0,8.06225774829855,25.019992006393608,17.029386365926403,15.0,18.0,19.0,10.5,6.5,1.5,5.5,4.0,4.123105625617661,3.5,14.0,13.0,14.0
259,508,3.0,26.0,5.0,8.0,8.06225774829855,8.0,8.06225774829855,24.020824298928627,16.0312195418814,14.5,18.0,18.0,10.0,6.0,2.0,4.0,3.0,3.0,3.5,14.0,12.0,13.0
260,509,3.0,26.0,5.0,8.0,8.06225774829855,8.0,8.06225774829855,24.020824298928627,16.0312195418814,14.5,18.0,18.0,10.0,6.0,2.0,4.0,3.0,3.0,3.5,14.0,12.0,13.0
261,510,5.0990195135927845,28.0178514522438,5.0,8.0,8.0,9.0,8.06225774829855,26.076809620810597,18.110770276274835,15.5,18.0,19.0,10.5,7.5,0.5,5.5,3.0,3.0,3.5,14.0,12.0,13.0
262,511,7.0,27.0,5.0990195135927845,7.0,7.0,8.06225774829855,8.0,27.018512172212592,20.024984394500787,16.5,20.0,20.0,12.0,7.0,1.0,7.0,5.0990195135927845,4.0,4.0,13.0,11.0,15.033296378372908
263,512,6.0,27.018512172212592,5.0,8.0,8.0,8.0,8.06225774829855,27.018512172212592,19.026297590440446,16.0,19.0,20.0,11.5,7.5,1.5,5.5,4.0,4.0,3.5,14.0,13.0,14.0
264,513,3.0,26.019223662515376,5.0,8.06225774829855,8.0,9.0,8.0,24.020824298928627,16.0,14.5,18.0,19.0,10.5,5.5,2.5,5.5,4.0,4.0,3.5,14.0,12.0,13.0
265,514,2.0,29.017236257093817,6.0,8.06225774829855,8.0,9.0,8.0,24.020824298928627,16.0,15.0,18.0,19.0,10.5,5.5,2.5,4.5,3.0,3.1622776601683795,3.0,15.0,13.0,14.035668847618199
266,515,3.0,28.0178514522438,5.0,9.0,8.06225774829855,9.0,8.0,25.0,16.0,14.5,18.0,19.0,10.5,6.5,2.5,4.5,3.0,3.0,3.0,15.0,13.0,14.0
267,516,4.0,29.068883707497267,6.0,8.0,8.0,9.0,8.0,26.0,18.0,16.0,18.0,20.0,11.0,7.0,2.0,5.0,3.0,2.0,2.5,14.0,12.0,14.0
268,517,3.0,26.019223662515376,6.0,8.06225774829855,7.0710678118654755,8.06225774829855,8.0,25.019992006393608,17.0,15.5,18.0,19.0,10.5,6.5,2.5,4.5,3.0,3.0,3.0,14.0,11.0,13.038404810405298
269,518,3.0,26.019223662515376,6.0,8.06225774829855,7.0710678118654755,8.06225774829855,8.0,25.019992006393608,17.0,15.5,18.0,19.0,10.5,6.5,2.5,4.5,3.0,3.1622776601683795,3.0,14.0,11.0,13.038404810405298
270,519,3.0,28.0178514522438,6.0,8.0,8.0,8.06225774829855,8.0,25.0,17.0,15.5,18.0,19.0,10.5,6.5,2.5,4.5,3.0,3.0,3.0,14.0,12.0,14.0
271,520,4.0,27.018512172212592,5.0,8.0,8.0,9.0,9.055385138137417,26.019223662515376,18.027756377319946,16.0,18.0,19.0,9.5,7.5,1.5,4.5,3.0,3.0,3.0,14.0,12.0,13.0
272,521,4.0,27.018512172212592,5.0,8.0,8.0,9.0,9.055385138137417,26.019223662515376,18.027756377319946,16.0,18.0,19.0,9.5,7.5,1.5,4.5,3.0,3.0,3.0,14.0,12.0,13.038404810405298
273,522,6.0,28.0178514522438,5.0,8.0,8.0,9.0,9.055385138137417,28.0178514522438,20.024984394500787,17.0,19.0,20.0,10.5,8.5,0.5,5.5,3.1622776601683795,3.1622776601683795,3.0,14.0,12.0,13.0
274,523,6.0,29.068883707497267,6.082762530298219,8.06225774829855,8.06225774829855,9.055385138137417,8.0,28.071337695236398,20.024984394500787,17.0,19.0,21.0,12.0,8.0,1.0,6.0,3.1622776601683795,3.1622776601683795,3.0,14.0,12.0,13.038404810405298
275,524,5.0,29.017236257093817,6.0,8.06225774829855,8.0,9.0,8.06225774829855,27.073972741361768,19.026297590440446,16.5,19.0,20.0,11.5,7.5,0.5,5.5,3.0,3.1622776601683795,3.0,14.0,12.0,13.0
276,525,5.0,30.01666203960727,6.0,8.06225774829855,8.0,9.055385138137417,8.06225774829855,27.073972741361768,19.026297590440446,16.5,19.0,20.0,11.5,7.5,1.5,5.5,4.0,3.0,3.0,14.0,12.0,13.038404810405298
277,526,4.0,31.064449134018133,6.0,8.06225774829855,8.0,9.055385138137417,8.0,26.019223662515376,18.0,16.0,18.0,20.0,11.0,7.0,1.0,5.0,3.0,3.1622776601683795,3.0,14.0,12.0,13.0
278,527,4.0,30.066592756745816,6.0,7.0710678118654755,8.0,10.0,8.0,25.019992006393608,18.0,16.0,18.0,20.0,11.0,6.0,2.0,5.0,3.0,3.0,3.0,15.0,12.0,14.0
279,528,5.0,30.066592756745816,5.0,8.06225774829855,8.06225774829855,9.055385138137417,8.06225774829855,26.076809620810597,18.027756377319946,15.5,18.0,20.0,11.0,7.0,1.0,5.0,2.0,3.1622776601683795,3.0,14.0,12.0,13.0
280,529,4.0,30.01666203960727,5.0,7.0,9.0,9.055385138137417,9.055385138137417,25.019992006393608,18.027756377319946,16.0,18.0,19.0,9.5,6.5,0.5,4.5,3.0,3.0,3.0,14.0,11.0,12.0
281,530,4.0,30.066592756745816,6.082762530298219,8.0,8.0,9.055385138137417,8.0,26.019223662515376,18.027756377319946,16.0,18.0,20.0,11.0,7.0,1.0,5.0,4.0,3.1622776601683795,3.0,14.0,12.0,12.0
282,531,4.123105625617661,30.066592756745816,5.0,7.0,9.0,9.055385138137417,9.0,25.019992006393608,18.027756377319946,16.0,18.0,20.0,10.0,6.0,2.0,5.0,4.123105625617661,3.1622776601683795,3.0,14.0,12.0,12.041594578792296
283,532,2.0,27.018512172212592,5.0990195135927845,8.0,8.0,9.0,10.0,25.019992006393608,17.029386365926403,16.0,18.0,19.0,8.5,6.5,1.5,3.5,4.0,3.1622776601683795,3.0,15.0,11.0,13.038404810405298
284,533,2.0,27.018512172212592,5.0,7.0,8.0,9.0,10.04987562112089,24.020824298928627,17.029386365926403,16.0,18.0,19.0,8.5,5.5,1.5,3.5,3.0,3.1622776601683795,3.0,15.0,11.0,13.038404810405298
285,534,3.0,27.018512172212592,6.0,7.0710678118654755,8.0,9.0,9.0,25.019992006393608,18.0,16.5,19.0,20.0,10.5,5.5,2.5,4.5,4.123105625617661,4.0,3.5,15.0,12.0,13.038404810405298
286,535,6.0,28.0178514522438,6.082762530298219,8.0,9.055385138137417,9.055385138137417,9.0,29.017236257093817,21.02379604162864,18.0,20.0,21.0,11.5,8.5,0.5,5.5,4.0,3.1622776601683795,3.0,14.0,12.0,13.038404810405298
287,536,6.0,28.0178514522438,6.082762530298219,8.0,9.055385138137417,9.055385138137417,9.0,29.017236257093817,21.02379604162864,18.0,20.0,21.0,11.5,8.5,0.5,5.5,4.0,3.1622776601683795,3.5,14.0,12.0,13.038404810405298
288,537,6.0,31.016124838541646,5.0,8.0,8.0,9.055385138137417,9.055385138137417,28.0178514522438,20.024984394500787,17.0,19.0,20.0,10.5,8.5,0.5,5.5,4.123105625617661,4.123105625617661,4.0,15.0,11.0,14.035668847618199
289,538,8.06225774829855,30.066592756745816,5.0,8.0,9.055385138137417,9.055385138137417,9.055385138137417,30.066592756745816,22.090722034374522,18.0,19.0,21.0,11.0,10.0,1.0,5.0,4.0,4.0,3.5,14.0,11.0,14.035668847618199
290,539,6.0,31.064449134018133,5.0990195135927845,9.0,9.055385138137417,10.0,8.0,28.0178514522438,19.026297590440446,16.0,18.0,20.0,11.0,9.0,0.0,5.0,3.0,4.123105625617661,3.5,16.0,12.0,14.035668847618199
291,540,7.0,31.064449134018133,6.0,9.055385138137417,8.0,10.0,9.055385138137417,31.064449134018133,22.02271554554524,18.5,20.0,22.0,12.0,10.0,1.0,6.0,3.0,4.123105625617661,3.5,15.0,12.0,15.033296378372908
292,541,7.0,30.066592756745816,6.0,9.0,8.0,9.055385138137417,8.06225774829855,30.01666203960727,21.02379604162864,17.5,19.0,21.0,12.0,10.0,1.0,6.0,4.0,4.123105625617661,4.0,15.0,12.0,14.035668847618199
293,542,7.0,31.064449134018133,6.082762530298219,9.055385138137417,8.0,10.04987562112089,8.0,30.066592756745816,21.02379604162864,17.5,19.0,21.0,12.0,10.0,0.0,6.0,4.0,3.0,3.5,15.0,12.0,16.0312195418814
294,543,7.0,31.144823004794873,5.0,9.055385138137417,8.06225774829855,10.04987562112089,9.055385138137417,30.066592756745816,21.02379604162864,17.5,19.0,22.0,11.5,9.5,0.5,5.5,4.0,4.123105625617661,3.5,15.0,11.0,15.033296378372908
295,544,5.0,32.0624390837628,5.0990195135927845,9.0,9.0,10.0,9.0,28.0178514522438,19.026297590440446,16.5,18.0,20.0,10.0,9.0,0.0,5.0,3.0,3.0,3.0,15.0,12.0,15.033296378372908
296,545,5.0,32.0624390837628,5.0990195135927845,9.0,9.0,10.0,9.0,28.0178514522438,19.026297590440446,16.5,18.0,20.0,10.0,9.0,0.0,5.0,3.0,3.0,3.0,15.0,12.0,15.033296378372908
297,546,5.0,31.064449134018133,6.0,8.06225774829855,9.0,10.04987562112089,8.06225774829855,27.073972741361768,19.026297590440446,16.5,18.0,20.0,11.0,8.0,1.0,5.0,4.0,3.0,3.0,15.0,12.0,15.132745950421556
298,547,4.0,32.0624390837628,4.0,7.0710678118654755,9.0,9.0,10.04987562112089,25.079872407968907,18.027756377319946,16.0,17.0,19.0,8.0,7.0,1.0,4.0,3.0,3.0,3.0,16.0,13.0,14.035668847618199
299,548,4.0,32.0624390837628,4.0,6.082762530298219,9.0,9.0,10.04987562112089,24.08318915758459,18.027756377319946,16.0,17.0,19.0,8.0,6.0,1.0,4.0,3.0,3.0,3.0,16.0,12.0,14.035668847618199
300,549,2.0,33.06055050963308,5.0,7.0,9.0,10.0,10.04987562112089,24.020824298928627,17.029386365926403,16.0,17.0,19.0,8.0,6.0,1.0,3.0,2.0,2.0,2.0,16.0,13.0,14.0
301,550,1.0,33.06055050963308,5.0,6.082762530298219,9.0,9.055385138137417,10.04987562112089,22.090722034374522,16.0312195418814,15.5,17.0,19.0,8.0,4.0,3.0,3.0,3.0,2.23606797749979,2.0,16.0,13.0,14.0
302,551,1.0,32.0624390837628,5.0,7.0710678118654755,9.0,9.055385138137417,10.04987562112089,23.08679276123039,16.0312195418814,15.5,17.0,19.0,8.0,5.0,2.0,3.0,3.0,2.23606797749979,2.0,16.0,13.0,15.0
303,552,1.4142135623730951,32.0624390837628,5.0,7.0,9.055385138137417,10.04987562112089,10.04987562112089,23.08679276123039,16.1245154965971,15.5,17.0,19.0,8.0,5.0,2.0,3.0,2.0,2.0,2.0,16.0,13.0,14.0
304,553,1.0,32.01562118716424,5.0,7.0710678118654755,9.0,9.055385138137417,9.0,22.02271554554524,15.0,14.5,16.0,17.0,7.5,5.5,1.5,2.5,1.0,1.0,1.0,15.0,13.0,14.035668847618199
305,554,1.0,32.01562118716424,5.0,7.0710678118654755,8.0,9.055385138137417,9.055385138137417,22.090722034374522,15.033296378372908,14.5,16.0,17.0,7.5,5.5,1.5,2.5,2.0,2.23606797749979,1.5,15.0,13.0,14.035668847618199
306,555,1.0,32.0624390837628,5.0,7.0710678118654755,9.0,9.055385138137417,9.0,22.02271554554524,15.0,14.5,16.0,18.0,8.0,5.0,2.0,3.0,2.0,1.4142135623730951,1.0,15.0,13.0,14.035668847618199
307,556,1.0,32.01562118716424,5.0,7.0710678118654755,9.0,9.0,9.0,22.02271554554524,15.0,14.5,16.0,17.0,7.5,5.5,1.5,2.5,2.0,2.0,2.0,15.0,13.0,15.033296378372908
308,557,1.0,33.06055050963308,5.0,7.0710678118654755,9.0,9.0,9.0,22.02271554554524,15.0,14.5,16.0,18.0,8.0,5.0,3.0,3.0,2.0,2.23606797749979,2.0,15.0,12.0,14.035668847618199
309,558,1.4142135623730951,33.015148038438355,5.0,7.0,7.0,8.06225774829855,9.0,22.02271554554524,15.033296378372908,14.5,16.0,17.0,7.5,5.5,1.5,2.5,2.0,3.1622776601683795,3.0,15.0,13.0,15.033296378372908
310,559,0.0,33.015148038438355,6.0,7.0,8.0,9.0,9.055385138137417,22.02271554554524,15.033296378372908,15.0,17.0,18.0,8.5,4.5,2.5,2.5,2.0,3.1622776601683795,3.0,15.0,12.0,14.0
311,560,1.0,32.01562118716424,6.0,7.0710678118654755,8.06225774829855,9.0,9.0,23.021728866442675,16.0,15.5,17.0,18.0,8.5,5.5,2.5,2.5,2.0,3.0,3.0,15.0,12.0,13.0
312,561,2.0,32.01562118716424,5.0,7.0,9.0,9.055385138137417,9.055385138137417,23.021728866442675,16.0312195418814,15.0,17.0,18.0,8.5,5.5,2.5,3.5,3.0,3.1622776601683795,3.0,14.0,12.0,14.0
313,562,2.0,32.01562118716424,5.0,7.0,9.055385138137417,10.04987562112089,9.055385138137417,23.021728866442675,16.0312195418814,15.0,17.0,18.0,8.5,5.5,1.5,2.5,3.0,3.0,3.0,15.0,13.0,14.035668847618199
314,563,2.0,32.01562118716424,5.0,7.0,9.055385138137417,10.04987562112089,9.055385138137417,23.021728866442675,16.0312195418814,15.0,17.0,18.0,8.5,5.5,1.5,2.5,3.0,3.0,3.0,15.0,13.0,14.035668847618199
315,564,2.23606797749979,31.016124838541646,5.0,7.0,9.0,10.04987562112089,9.0,23.021728866442675,16.0312195418814,15.0,17.0,18.0,8.5,5.5,1.5,3.5,4.0,3.1622776601683795,3.0,15.0,13.0,14.0
316,565,6.0,30.01666203960727,5.0,8.06225774829855,8.0,9.0,8.06225774829855,27.073972741361768,19.026297590440446,16.0,18.0,19.0,10.5,8.5,0.5,5.5,4.0,4.123105625617661,3.5,14.0,13.0,14.0
317,566,7.0,31.016124838541646,5.0990195135927845,7.0,9.0,9.0,8.0,27.018512172212592,20.024984394500787,16.5,18.0,19.0,10.5,8.5,0.5,5.5,4.0,3.1622776601683795,3.0,14.0,12.0,15.0
318,567,8.0,30.01666203960727,5.0,8.0,8.06225774829855,9.0,8.06225774829855,29.017236257093817,21.02379604162864,17.0,19.0,20.0,11.5,9.5,1.5,5.5,4.0,4.0,4.0,14.0,13.0,15.0
319,568,9.055385138137417,30.01666203960727,5.0,7.0,9.0,10.04987562112089,8.0,29.017236257093817,22.02271554554524,17.5,19.0,20.0,11.5,9.5,1.5,6.5,4.0,3.1622776601683795,3.5,14.0,13.0,15.0
320,569,8.0,31.016124838541646,5.0990195135927845,8.0,9.0,10.0,8.0,29.017236257093817,21.02379604162864,17.0,19.0,20.0,11.5,9.5,1.5,6.5,4.0,3.1622776601683795,3.5,14.0,13.0,15.033296378372908
321,570,9.0,30.0,6.0,8.0,8.0,10.0,7.0710678118654755,30.01666203960727,22.02271554554524,17.5,20.0,20.0,13.0,10.0,2.0,7.0,4.0,4.123105625617661,4.0,14.0,13.0,15.0
322,571,9.0,31.016124838541646,6.0,9.055385138137417,8.06225774829855,10.0,7.0710678118654755,31.064449134018133,22.02271554554524,17.5,20.0,21.0,13.5,10.5,1.5,6.5,4.0,4.0,4.0,14.0,13.0,15.0
323,572,8.0,29.0,6.0,8.06225774829855,9.0,10.04987562112089,8.0,30.01666203960727,22.0,18.0,21.0,21.0,13.0,9.0,1.0,7.0,4.0,4.123105625617661,4.0,13.0,13.0,14.035668847618199
324,573,11.0,30.01666203960727,6.0,8.0,9.0,9.0,7.0710678118654755,32.01562118716424,24.020824298928627,18.5,20.0,21.0,13.5,11.5,2.5,7.5,4.0,5.0990195135927845,4.5,14.0,13.0,15.033296378372908
325,574,10.0,30.01666203960727,5.0990195135927845,8.0,9.0,9.0,8.0,31.016124838541646,23.021728866442675,18.0,20.0,21.0,12.5,10.5,1.5,7.5,4.0,4.0,3.5,14.0,13.0,15.0
326,575,10.0,30.01666203960727,5.0990195135927845,8.0,9.0,9.0,8.0,31.016124838541646,23.021728866442675,18.0,20.0,21.0,12.5,10.5,1.5,7.5,4.0,4.0,3.5,14.0,13.0,15.0
327,576,11.0,31.144823004794873,6.082762530298219,8.06225774829855,9.0,11.0,8.0,33.06055050963308,25.019992006393608,19.5,20.0,23.0,13.5,11.5,2.5,7.5,4.0,3.0,3.5,15.0,13.0,14.035668847618199
328,577,9.055385138137417,30.066592756745816,6.0,9.0,9.0,10.0,8.0,32.01562118716424,23.021728866442675,18.5,21.0,23.0,14.0,10.0,1.0,8.0,4.0,3.0,3.5,14.0,12.0,15.033296378372908
329,578,9.055385138137417,30.066592756745816,6.0,9.0,10.0,11.0,8.0,32.01562118716424,23.021728866442675,18.5,21.0,23.0,14.0,10.0,0.0,8.0,4.0,3.0,3.5,15.0,12.0,14.0
330,579,9.0,31.064449134018133,6.082762530298219,9.055385138137417,9.055385138137417,11.045361017187261,8.0,32.0624390837628,23.021728866442675,18.5,21.0,23.0,14.0,10.0,0.0,7.0,4.123105625617661,3.0,3.0,15.0,12.0,14.0
331,580,9.055385138137417,31.064449134018133,6.0,9.0,10.0,10.0,8.0,32.01562118716424,23.021728866442675,18.5,20.0,22.0,13.0,11.0,1.0,7.0,4.0,3.1622776601683795,3.5,15.0,12.0,15.0
332,581,10.04987562112089,31.064449134018133,6.0,9.0,9.0,10.04987562112089,8.0,33.015148038438355,24.020824298928627,19.0,20.0,22.0,13.0,12.0,3.0,7.0,4.0,3.0,3.5,15.0,12.0,16.0
333,582,8.0,30.066592756745816,6.0,9.055385138137417,9.0,10.0,8.0,31.016124838541646,22.0,18.0,20.0,22.0,13.0,10.0,0.0,7.0,4.0,3.0,3.5,15.0,12.0,14.0
334,583,7.0,30.066592756745816,5.0990195135927845,9.0,9.0,10.0,9.0,30.01666203960727,21.02379604162864,17.5,19.0,21.0,11.0,10.0,1.0,6.0,4.123105625617661,3.0,3.0,14.0,11.0,14.0
335,584,7.0,30.066592756745816,5.0990195135927845,9.0,9.0,10.0,9.0,30.01666203960727,21.02379604162864,17.5,19.0,21.0,11.0,10.0,1.0,6.0,4.123105625617661,3.0,3.0,14.0,11.0,14.0
336,585,1.0,30.01666203960727,7.0,7.0,8.0,8.0,9.055385138137417,24.020824298928627,17.029386365926403,16.5,18.0,19.0,9.5,5.5,2.5,2.5,4.0,3.1622776601683795,3.0,15.0,12.0,14.0
337,586,3.1622776601683795,32.01562118716424,5.0,7.0,9.0,10.04987562112089,9.0,24.020824298928627,17.029386365926403,15.5,18.0,19.0,9.5,5.5,2.5,4.5,3.0,3.1622776601683795,3.0,14.0,12.0,13.0
338,587,2.0,31.064449134018133,5.0,7.0710678118654755,9.055385138137417,9.055385138137417,9.0,23.021728866442675,16.0,15.0,17.0,19.0,9.0,5.0,2.0,3.0,4.0,3.0,3.0,14.0,12.0,14.0
339,588,3.0,31.016124838541646,6.0,7.0710678118654755,9.055385138137417,10.04987562112089,9.0,25.019992006393608,18.0,16.5,18.0,19.0,9.5,6.5,1.5,3.5,3.0,3.1622776601683795,3.0,14.0,12.0,14.0
340,589,4.0,32.0624390837628,6.0,7.0710678118654755,10.04987562112089,9.055385138137417,8.06225774829855,25.079872407968907,18.027756377319946,16.0,17.0,19.0,10.0,7.0,1.0,4.0,3.0,3.0,3.0,14.0,12.0,14.0
341,590,4.0,32.0624390837628,6.0,7.0710678118654755,10.04987562112089,9.055385138137417,8.06225774829855,25.079872407968907,18.027756377319946,16.0,17.0,19.0,10.0,7.0,1.0,4.0,3.0,3.0,3.0,14.0,12.0,14.0
342,591,4.0,30.01666203960727,5.0,8.06225774829855,9.055385138137417,10.0,8.0,25.019992006393608,17.0,15.0,18.0,19.0,10.5,6.5,1.5,4.5,3.0,3.0,3.0,15.0,12.0,14.0
343,592,4.0,30.066592756745816,5.0990195135927845,8.0,9.055385138137417,10.0,8.0,25.019992006393608,17.029386365926403,15.0,17.0,19.0,10.0,7.0,2.0,4.0,4.0,3.0,3.0,14.0,12.0,13.0
344,593,4.0,30.066592756745816,5.0990195135927845,8.0,9.055385138137417,10.0,8.0,25.019992006393608,17.029386365926403,15.0,17.0,19.0,10.0,7.0,2.0,4.0,4.0,3.0,3.0,14.0,12.0,13.0
345,594,4.0,30.066592756745816,5.0,8.0,9.055385138137417,10.0,8.06225774829855,25.019992006393608,17.029386365926403,15.0,17.0,19.0,10.0,7.0,2.0,4.0,3.0,3.1622776601683795,3.0,14.0,12.0,13.0
346,595,5.0,30.01666203960727,5.0,8.06225774829855,9.055385138137417,10.04987562112089,8.0,26.019223662515376,18.0,15.5,18.0,19.0,10.5,7.5,1.5,4.5,3.0,3.1622776601683795,3.0,14.0,12.0,14.0
347,596,5.0,30.01666203960727,5.0,8.06225774829855,9.055385138137417,10.04987562112089,8.0,26.019223662515376,18.0,15.5,18.0,19.0,10.5,7.5,1.5,4.5,3.0,3.1622776601683795,3.0,14.0,12.0,14.0
348,597,4.123105625617661,31.064449134018133,5.0,7.0,9.0,10.0,8.0,24.020824298928627,17.029386365926403,15.0,17.0,19.0,10.0,6.0,2.0,5.0,3.0,3.0,3.0,14.0,12.0,14.0
349,598,4.123105625617661,30.066592756745816,6.0,8.0,9.0,9.055385138137417,7.0,25.019992006393608,17.029386365926403,15.0,17.0,19.0,11.0,7.0,2.0,5.0,3.0,3.0,3.0,14.0,12.0,14.0
350,599,4.0,31.064449134018133,5.0,8.06225774829855,9.055385138137417,10.04987562112089,8.0,25.019992006393608,17.0,15.0,17.0,19.0,10.0,7.0,2.0,4.0,3.0,3.0,3.0,14.0,12.0,14.0
351,600,4.0,31.064449134018133,5.0,8.0,9.0,9.055385138137417,8.0,25.0,17.0,15.0,17.0,19.0,10.0,7.0,1.0,5.0,3.0,3.0,3.0,15.0,12.0,14.0
352,601,5.0,30.066592756745816,6.082762530298219,8.0,9.0,9.055385138137417,7.0,26.019223662515376,18.027756377319946,15.5,17.0,19.0,11.0,8.0,0.0,5.0,3.0,3.0,3.0,15.0,12.0,14.0
353,602,5.0,30.066592756745816,6.082762530298219,8.0,9.0,9.055385138137417,7.0,26.019223662515376,18.027756377319946,15.5,17.0,19.0,11.0,8.0,0.0,5.0,3.0,3.0,3.0,15.0,12.0,14.0
354,603,4.0,31.064449134018133,5.0990195135927845,8.0,9.0,9.055385138137417,8.0,25.019992006393608,17.029386365926403,15.0,17.0,19.0,10.0,7.0,2.0,5.0,3.0,3.1622776601683795,3.0,15.0,12.0,15.0
355,604,5.0,31.016124838541646,5.0,7.0,8.06225774829855,9.0,8.06225774829855,25.019992006393608,18.027756377319946,15.5,18.0,19.0,10.5,6.5,1.5,4.5,3.0,3.0,3.0,15.0,12.0,14.0
356,605,4.0,31.016124838541646,5.0,8.0,8.06225774829855,9.0,8.0,25.0,17.0,15.0,18.0,19.0,10.5,6.5,1.5,4.5,3.0,3.0,2.5,15.0,12.0,14.0
357,606,4.0,30.066592756745816,5.0,9.0,8.06225774829855,9.0,8.06225774829855,26.019223662515376,17.029386365926403,15.0,18.0,20.0,11.0,7.0,2.0,5.0,3.0,3.0,3.0,15.0,12.0,14.0
358,607,4.123105625617661,31.064449134018133,6.0,8.0,9.055385138137417,10.0,8.0,26.019223662515376,18.027756377319946,16.0,18.0,20.0,11.0,7.0,2.0,5.0,3.0,3.0,3.0,15.0,12.0,15.0
359,608,6.0,32.0624390837628,6.082762530298219,7.0,9.0,10.04987562112089,8.0,27.018512172212592,20.024984394500787,17.0,18.0,20.0,11.0,8.0,0.0,5.0,3.0,3.0,3.0,15.0,12.0,13.038404810405298
360,609,5.0990195135927845,31.144823004794873,6.0,9.0,9.0,10.0,8.0,28.0178514522438,19.026297590440446,16.5,18.0,21.0,11.5,8.5,0.5,5.5,3.0,2.0,2.5,15.0,12.0,14.0
361,610,6.0,31.064449134018133,5.0,8.06225774829855,10.04987562112089,10.04987562112089,8.06225774829855,27.073972741361768,19.026297590440446,16.0,18.0,20.0,11.0,8.0,1.0,5.0,2.0,3.0,2.5,15.0,12.0,14.0
362,611,6.0,31.064449134018133,6.082762530298219,8.0,9.055385138137417,11.045361017187261,7.0,27.018512172212592,19.026297590440446,16.0,18.0,20.0,12.0,8.0,1.0,5.0,3.0,3.0,3.0,15.0,12.0,15.0
363,612,5.0,31.064449134018133,6.082762530298219,8.0,9.0,10.0,7.0,26.019223662515376,18.027756377319946,15.5,18.0,20.0,12.0,7.0,1.0,6.0,4.0,4.0,3.5,15.0,12.0,14.035668847618199
364,613,7.0,32.0624390837628,6.0,8.06225774829855,9.055385138137417,10.04987562112089,7.0710678118654755,28.071337695236398,20.024984394500787,16.5,18.0,20.0,12.0,9.0,0.0,5.0,4.0,3.0,3.0,15.0,12.0,13.038404810405298
365,614,6.0,31.064449134018133,6.0,8.06225774829855,9.055385138137417,10.0,7.0,27.018512172212592,19.0,16.0,18.0,20.0,12.0,8.0,1.0,5.0,4.0,3.0,3.0,15.0,11.0,14.035668847618199
366,615,5.0,31.016124838541646,6.0,8.06225774829855,8.06225774829855,10.0,8.0,27.018512172212592,19.0,16.5,19.0,20.0,11.5,7.5,0.5,5.5,3.0,3.1622776601683795,3.0,15.0,12.0,14.035668847618199
367,616,8.0,32.0624390837628,5.0,8.06225774829855,9.055385138137417,10.0,8.0,29.017236257093817,21.0,17.0,18.0,20.0,11.0,10.0,1.0,5.0,3.0,3.0,3.0,15.0,12.0,14.035668847618199
368,617,8.0,32.0624390837628,5.0,8.06225774829855,9.055385138137417,10.0,8.0,29.017236257093817,21.0,17.0,18.0,20.0,11.0,10.0,1.0,5.0,3.0,3.0,3.0,15.0,12.0,14.035668847618199
369,618,7.0710678118654755,31.064449134018133,5.0,7.0,9.0,10.0,8.0,27.018512172212592,20.024984394500787,16.5,18.0,20.0,11.0,8.0,0.0,6.0,3.0,3.1622776601683795,3.0,14.0,11.0,14.035668847618199
370,619,7.0710678118654755,32.0624390837628,6.0,7.0,9.0,10.04987562112089,7.0,27.018512172212592,20.024984394500787,16.5,18.0,20.0,12.0,8.0,0.0,6.0,2.0,3.1622776601683795,2.5,15.0,12.0,14.035668847618199
371,620,6.082762530298219,32.0624390837628,5.0,8.0,9.055385138137417,10.0,8.0,27.018512172212592,19.026297590440446,16.0,18.0,20.0,11.0,8.0,1.0,5.0,3.0,3.0,2.5,15.0,11.0,13.038404810405298
372,621,5.0,30.066592756745816,5.0990195135927845,7.0,9.055385138137417,9.0,8.0,25.019992006393608,18.027756377319946,15.5,18.0,20.0,11.0,6.0,2.0,5.0,3.0,3.0,2.5,15.0,12.0,13.0
373,622,5.0,31.064449134018133,6.0,8.06225774829855,8.0,9.0,7.0,26.019223662515376,18.0,15.5,18.0,20.0,12.0,7.0,2.0,6.0,4.0,3.0,3.5,15.0,12.0,14.035668847618199
374,623,5.0,31.064449134018133,5.0,8.0,9.0,9.0,8.0,26.0,18.0,15.5,18.0,20.0,11.0,7.0,2.0,6.0,3.0,3.1622776601683795,3.0,15.0,12.0,14.035668847618199
375,624,6.0,29.068883707497267,5.0,8.0,8.0,9.0,7.0,26.0,18.0,15.0,17.0,19.0,11.0,8.0,0.0,6.0,3.0,3.1622776601683795,3.0,14.0,12.0,15.132745950421556
376,625,4.0,31.064449134018133,6.082762530298219,8.0,8.06225774829855,10.04987562112089,7.0710678118654755,25.0,17.0,15.0,17.0,19.0,11.0,7.0,2.0,5.0,3.0,3.0,2.5,16.0,12.0,14.035668847618199
377,626,4.0,31.064449134018133,6.082762530298219,8.0,8.06225774829855,10.04987562112089,7.0710678118654755,25.0,17.0,15.0,17.0,19.0,11.0,7.0,2.0,5.0,3.0,3.0,2.5,16.0,12.0,14.035668847618199
378,627,5.0,29.068883707497267,5.0,8.06225774829855,8.0,9.055385138137417,7.0,25.019992006393608,17.0,14.5,17.0,19.0,11.0,7.0,1.0,6.0,3.0,3.0,3.0,15.0,12.0,14.035668847618199
379,628,5.0,29.068883707497267,6.0,8.06225774829855,8.0,9.0,7.0,26.019223662515376,18.0,15.5,17.0,19.0,11.0,8.0,1.0,5.0,3.0,3.0,3.0,15.0,12.0,14.0
380,629,5.0,29.068883707497267,6.0,8.06225774829855,8.0,9.0,7.0,26.019223662515376,18.0,15.5,17.0,19.0,11.0,8.0,1.0,5.0,3.0,3.0,3.0,15.0,12.0,14.0
381,630,3.0,28.0178514522438,6.0,8.0,8.06225774829855,9.055385138137417,8.0,25.0,17.0,15.5,18.0,19.0,10.5,6.5,1.5,4.5,3.0,3.1622776601683795,3.0,15.0,12.0,16.0312195418814
382,631,3.0,29.017236257093817,6.0,8.0,8.06225774829855,9.0,8.0,25.0,17.0,15.5,18.0,19.0,10.5,6.5,1.5,4.5,3.0,3.1622776601683795,3.0,15.0,11.0,15.0
383,632,5.0,29.017236257093817,5.0,7.0,8.06225774829855,9.0,8.0,25.0,18.0,15.5,18.0,19.0,10.5,6.5,1.5,4.5,3.0,3.1622776601683795,3.0,15.0,11.0,15.0
384,633,5.0990195135927845,28.071337695236398,5.0,8.0,8.06225774829855,8.0,8.0,26.019223662515376,18.027756377319946,15.5,18.0,20.0,11.0,7.0,1.0,5.0,3.1622776601683795,3.1622776601683795,3.0,15.0,12.0,14.0
385,634,5.0,28.0178514522438,6.0,8.06225774829855,8.0,9.0,8.0,27.018512172212592,19.0,16.5,19.0,20.0,11.5,7.5,1.5,5.5,3.0,3.0,3.0,16.0,13.0,15.0
386,635,4.0,29.068883707497267,5.0,8.06225774829855,9.0,10.0,9.0,26.019223662515376,18.0,16.0,18.0,20.0,10.0,7.0,1.0,5.0,3.0,3.1622776601683795,3.0,16.0,12.0,15.0
387,636,5.0,31.064449134018133,6.0,8.0,8.0,9.0,8.06225774829855,27.018512172212592,19.026297590440446,16.5,18.0,20.0,11.0,8.0,0.0,5.0,3.0,3.1622776601683795,3.0,15.0,11.0,15.033296378372908
388,637,5.0,31.064449134018133,6.0,8.0,8.06225774829855,9.0,8.06225774829855,27.018512172212592,19.026297590440446,16.5,18.0,20.0,11.0,8.0,1.0,5.0,3.0,3.0,3.0,15.0,11.0,14.0
389,638,5.0,31.064449134018133,6.0,8.0,8.06225774829855,9.0,8.06225774829855,27.018512172212592,19.026297590440446,16.5,18.0,20.0,11.0,8.0,1.0,5.0,3.0,3.0,3.0,15.0,11.0,14.0
390,639,4.0,31.064449134018133,6.0,8.0,9.0,10.04987562112089,8.06225774829855,26.019223662515376,18.027756377319946,16.0,18.0,20.0,11.0,7.0,1.0,5.0,3.0,3.1622776601683795,3.0,15.0,12.0,15.0
391,640,6.0,32.0624390837628,6.0,8.06225774829855,9.0,10.0,8.0,28.0178514522438,20.0,17.0,18.0,20.0,11.0,9.0,0.0,5.0,4.0,2.0,2.5,16.0,12.0,14.035668847618199
392,641,5.0,32.0624390837628,6.0,8.06225774829855,9.0,10.04987562112089,8.0,27.018512172212592,19.0,16.5,18.0,20.0,11.0,8.0,0.0,5.0,3.0,2.0,2.5,16.0,13.0,14.035668847618199
393,642,6.0,29.068883707497267,5.0990195135927845,8.0,9.055385138137417,10.04987562112089,9.0,28.0178514522438,20.024984394500787,17.0,19.0,21.0,11.0,8.0,1.0,5.0,3.0,2.23606797749979,2.0,16.0,12.0,14.0
394,643,8.0,30.066592756745816,5.0990195135927845,8.0,8.0,9.0,9.055385138137417,30.0,22.0,18.0,19.0,21.0,11.0,10.0,1.0,6.0,3.0,3.1622776601683795,3.0,15.0,12.0,14.035668847618199
395,644,6.0,31.064449134018133,6.0,9.055385138137417,8.0,9.0,8.0,29.017236257093817,20.0,17.0,19.0,21.0,12.0,9.0,0.0,6.0,3.0,3.1622776601683795,3.0,15.0,12.0,14.035668847618199
396,645,8.0,29.068883707497267,5.0990195135927845,9.0,9.055385138137417,10.04987562112089,9.0,31.016124838541646,22.02271554554524,18.0,20.0,22.0,12.0,10.0,1.0,6.0,3.0,4.123105625617661,3.5,15.0,12.0,14.035668847618199
397,646,9.0,29.068883707497267,5.0,9.0,8.06225774829855,9.055385138137417,9.055385138137417,32.01562118716424,23.021728866442675,18.5,21.0,23.0,13.0,10.0,1.0,7.0,3.0,3.0,2.5,15.0,12.0,15.033296378372908
398,647,9.0,29.068883707497267,5.0,9.0,8.06225774829855,9.055385138137417,9.055385138137417,32.01562118716424,23.021728866442675,18.5,21.0,23.0,13.0,10.0,1.0,7.0,3.0,3.0,2.5,15.0,12.0,15.033296378372908
399,648,9.0,29.068883707497267,5.0990195135927845,9.0,9.055385138137417,10.04987562112089,9.0,32.01562118716424,23.021728866442675,18.5,21.0,23.0,13.0,10.0,0.0,7.0,4.0,3.1622776601683795,2.5,16.0,12.0,15.0
400,649,9.0,30.14962686336267,6.0,9.055385138137417,8.06225774829855,10.04987562112089,8.0,32.01562118716424,23.0,18.5,20.0,23.0,13.5,10.5,0.5,6.5,3.0,3.0,2.5,16.0,12.0,15.033296378372908
401,650,8.0,29.154759474226502,5.0,9.055385138137417,9.055385138137417,10.04987562112089,9.0,31.016124838541646,22.0,18.0,20.0,23.0,12.5,9.5,0.5,6.5,3.0,3.0,2.5,16.0,13.0,14.035668847618199
402,651,7.0,28.0178514522438,4.0,8.06225774829855,8.06225774829855,9.0,9.0,28.0178514522438,20.0,16.5,19.0,20.0,10.5,8.5,0.5,5.5,3.0,3.1622776601683795,3.0,15.0,12.0,15.033296378372908
403,652,6.0,27.073972741361768,5.0990195135927845,8.0,8.06225774829855,9.0,8.0,27.018512172212592,19.026297590440446,16.0,18.0,20.0,11.0,8.0,1.0,5.0,3.1622776601683795,3.0,3.0,14.0,11.0,14.0
404,653,6.0,28.071337695236398,5.0990195135927845,8.0,8.0,9.0,9.055385138137417,28.0,20.0,17.0,19.0,21.0,11.0,8.0,1.0,6.0,4.0,3.0,3.0,16.0,12.0,14.0
405,654,5.0,26.1725046566048,5.0990195135927845,8.0,8.0,9.055385138137417,9.0,27.018512172212592,19.026297590440446,16.5,18.0,21.0,10.5,7.5,1.5,5.5,3.0,3.1622776601683795,3.0,15.0,12.0,14.0
406,655,5.0,25.019992006393608,5.0,8.0,8.0,8.0,9.055385138137417,27.018512172212592,19.026297590440446,16.5,20.0,21.0,11.5,6.5,2.5,6.5,4.0,3.1622776601683795,3.0,16.0,12.0,14.0
407,656,5.0,27.073972741361768,5.0,8.0,8.0,9.0,9.055385138137417,27.018512172212592,19.026297590440446,16.5,19.0,21.0,11.0,7.0,2.0,6.0,4.123105625617661,3.0,3.0,16.0,12.0,14.0
408,657,4.0,27.073972741361768,5.0,8.06225774829855,8.0,9.055385138137417,9.0,26.019223662515376,18.0,16.0,18.0,20.0,10.0,7.0,1.0,5.0,3.0,2.23606797749979,2.0,15.0,11.0,14.0
409,658,5.0,28.071337695236398,5.0,8.0,8.06225774829855,9.055385138137417,8.0,26.0,18.0,15.5,18.0,20.0,11.0,7.0,1.0,5.0,3.0,3.0,3.0,16.0,12.0,15.033296378372908
410,659,4.0,29.068883707497267,6.0,8.0,8.06225774829855,9.055385138137417,8.0,26.0,18.0,16.0,18.0,20.0,11.0,7.0,2.0,5.0,2.0,2.23606797749979,2.0,16.0,12.0,15.033296378372908
411,660,5.0,29.017236257093817,5.0,8.0,8.0,9.055385138137417,8.0,26.0,18.0,15.5,18.0,19.0,10.5,7.5,0.5,5.5,2.0,2.23606797749979,2.0,15.0,12.0,14.035668847618199
412,661,5.0,29.154759474226502,6.0,9.055385138137417,9.0,10.0,7.0,27.018512172212592,18.0,15.5,17.0,20.0,11.5,8.5,0.5,5.5,2.0,2.23606797749979,2.0,16.0,12.0,14.0
413,662,5.0,29.068883707497267,6.0,8.06225774829855,9.0,10.0,7.0,26.019223662515376,18.0,15.5,17.0,19.0,11.0,8.0,0.0,5.0,2.0,2.23606797749979,2.0,16.0,12.0,15.033296378372908
414,663,2.0,30.066592756745816,5.0,8.0,8.06225774829855,9.055385138137417,9.0,24.0,16.0,15.0,17.0,19.0,9.0,6.0,2.0,4.0,2.0,2.0,2.0,15.0,12.0,14.035668847618199
415,664,1.4142135623730951,30.066592756745816,5.0990195135927845,8.06225774829855,9.0,9.0,9.0,23.021728866442675,15.0,14.5,16.0,18.0,8.0,6.0,2.0,3.0,3.0,3.1622776601683795,3.0,15.0,12.0,14.035668847618199
416,665,1.0,30.01666203960727,5.0,7.0710678118654755,9.0,9.0,9.0,22.02271554554524,15.0,14.5,17.0,18.0,8.5,4.5,2.5,3.5,3.1622776601683795,2.23606797749979,2.5,15.0,11.0,14.0
417,666,4.0,31.064449134018133,4.0,6.0,9.055385138137417,10.0,9.055385138137417,23.021728866442675,17.029386365926403,15.0,17.0,19.0,9.0,5.0,2.0,4.0,3.0,3.0,3.0,15.0,12.0,14.035668847618199
418,667,5.0,31.064449134018133,5.0,7.0,9.055385138137417,10.04987562112089,8.06225774829855,25.019992006393608,18.027756377319946,15.5,17.0,19.0,10.0,7.0,1.0,5.0,3.0,3.0,3.0,15.0,12.0,14.0
419,668,4.0,31.064449134018133,5.0,8.0,9.055385138137417,10.0,9.055385138137417,26.019223662515376,18.027756377319946,16.0,18.0,20.0,10.0,7.0,1.0,5.0,3.0,3.1622776601683795,3.0,15.0,12.0,15.033296378372908
420,669,4.0,31.064449134018133,5.0,8.06225774829855,9.0,10.0,8.0,25.019992006393608,17.0,15.0,17.0,19.0,10.0,7.0,2.0,5.0,3.0,3.1622776601683795,3.0,15.0,12.0,14.0
421,670,4.123105625617661,31.144823004794873,5.0,8.0,9.0,9.055385138137417,8.06225774829855,25.079872407968907,17.11724276862369,15.0,17.0,20.0,10.5,6.5,1.5,5.5,3.0,3.0,3.0,15.0,11.0,14.0
422,671,4.123105625617661,31.144823004794873,5.0,8.0,9.0,9.055385138137417,8.06225774829855,25.079872407968907,17.11724276862369,15.0,17.0,20.0,10.5,6.5,1.5,5.5,3.0,3.0,3.0,15.0,11.0,14.0
423,672,6.0,31.064449134018133,5.0,8.06225774829855,8.06225774829855,10.0,8.06225774829855,27.073972741361768,19.026297590440446,16.0,18.0,20.0,11.0,8.0,1.0,5.0,3.0,3.1622776601683795,2.5,15.0,12.0,14.0
424,673,4.0,31.064449134018133,5.0,8.06225774829855,9.055385138137417,10.04987562112089,8.06225774829855,25.079872407968907,17.029386365926403,15.0,17.0,19.0,10.0,7.0,1.0,5.0,3.0,3.1622776601683795,3.0,15.0,12.0,13.0
425,674,4.0,31.064449134018133,5.0,8.06225774829855,9.055385138137417,10.04987562112089,8.06225774829855,25.079872407968907,17.029386365926403,15.0,17.0,19.0,10.0,7.0,1.0,5.0,3.0,3.1622776601683795,3.0,15.0,12.0,13.0
426,675,5.0,31.144823004794873,5.0,8.06225774829855,8.0,10.04987562112089,8.0,26.019223662515376,18.0,15.5,17.0,20.0,10.5,7.5,1.5,5.5,3.0,3.1622776601683795,3.0,15.0,12.0,14.0
427,676,6.0,31.064449134018133,5.0,8.06225774829855,9.0,10.04987562112089,8.06225774829855,27.073972741361768,19.026297590440446,16.0,18.0,20.0,11.0,8.0,1.0,6.0,3.0,3.1622776601683795,3.0,15.0,12.0,14.035668847618199
428,677,5.0990195135927845,31.064449134018133,5.0,9.0,9.055385138137417,10.04987562112089,8.0,27.018512172212592,18.027756377319946,15.5,18.0,20.0,11.0,8.0,1.0,5.0,3.0,3.1622776601683795,3.0,15.0,11.0,14.035668847618199
429,678,5.0990195135927845,31.064449134018133,5.0,8.0,9.0,10.04987562112089,9.0,27.018512172212592,19.026297590440446,16.5,19.0,21.0,11.0,7.0,2.0,6.0,3.0,3.1622776601683795,3.0,15.0,12.0,14.0
430,679,6.082762530298219,30.066592756745816,5.0,8.0,8.0,10.0,8.0,27.018512172212592,19.026297590440446,16.0,17.0,19.0,10.0,9.0,1.0,5.0,3.0,3.0,3.0,15.0,12.0,14.035668847618199
431,680,5.0990195135927845,30.14962686336267,5.0,9.0,9.0,10.0,9.0,28.0178514522438,19.026297590440446,16.5,18.0,21.0,10.5,8.5,0.5,5.5,3.0,3.1622776601683795,3.0,15.0,12.0,14.0
432,681,7.0710678118654755,31.064449134018133,5.0,7.0,9.0,10.04987562112089,8.0,27.018512172212592,20.024984394500787,16.5,18.0,20.0,11.0,8.0,0.0,6.0,3.1622776601683795,3.0,3.0,15.0,12.0,15.033296378372908
433,682,6.082762530298219,31.144823004794873,6.0,8.0,8.0,10.04987562112089,7.0,27.018512172212592,19.026297590440446,16.0,17.0,20.0,11.5,8.5,0.5,5.5,3.0,3.1622776601683795,2.5,15.0,12.0,15.033296378372908
434,683,5.0990195135927845,31.064449134018133,5.0,8.0,8.0,10.0,9.0,27.018512172212592,19.026297590440446,16.5,18.0,20.0,10.0,8.0,0.0,5.0,3.1622776601683795,2.23606797749979,2.0,15.0,12.0,14.035668847618199
435,684,4.0,31.064449134018133,6.0,8.0,10.0,9.055385138137417,8.06225774829855,26.019223662515376,18.027756377319946,16.0,18.0,20.0,11.0,7.0,2.0,5.0,3.0,3.0,3.0,15.0,11.0,14.0
436,685,5.0,29.068883707497267,5.0,8.06225774829855,8.06225774829855,9.055385138137417,8.06225774829855,26.076809620810597,18.027756377319946,15.5,18.0,20.0,11.0,7.0,2.0,5.0,3.0,3.1622776601683795,3.0,15.0,12.0,14.035668847618199
437,686,5.0,29.068883707497267,5.0,8.06225774829855,8.06225774829855,9.055385138137417,8.06225774829855,26.076809620810597,18.027756377319946,15.5,18.0,20.0,11.0,7.0,2.0,5.0,3.0,3.1622776601683795,3.0,15.0,12.0,14.035668847618199
438,687,5.0,28.071337695236398,5.0,9.0,8.0,9.055385138137417,9.055385138137417,28.0178514522438,19.026297590440446,16.5,19.0,21.0,11.0,8.0,2.0,6.0,3.1622776601683795,2.23606797749979,2.0,15.0,11.0,14.0
439,688,5.0,28.071337695236398,6.082762530298219,9.0,9.0,9.055385138137417,8.0,28.0178514522438,19.026297590440446,16.5,19.0,21.0,12.0,8.0,2.0,6.0,3.0,3.1622776601683795,3.0,15.0,11.0,14.0
440,689,6.0,28.071337695236398,6.082762530298219,8.0,8.06225774829855,9.055385138137417,8.0,28.0178514522438,20.024984394500787,17.0,20.0,22.0,13.0,7.0,2.0,7.0,4.0,4.0,4.0,15.0,12.0,15.033296378372908
441,690,5.0990195135927845,28.160255680657446,6.0,9.0,8.06225774829855,10.04987562112089,8.06225774829855,28.071337695236398,19.1049731745428,16.5,18.0,21.0,11.5,8.5,1.5,4.5,3.0,2.23606797749979,2.0,16.0,12.0,14.035668847618199
442,691,5.0990195135927845,28.160255680657446,6.0,8.06225774829855,9.055385138137417,9.055385138137417,8.0,27.073972741361768,19.026297590440446,16.5,18.0,21.0,11.5,7.5,1.5,5.5,2.0,3.0,2.5,15.0,12.0,13.0
443,692,5.0,28.160255680657446,5.0,8.06225774829855,8.0,9.0,9.055385138137417,27.073972741361768,19.026297590440446,16.5,18.0,21.0,10.5,7.5,0.5,5.5,3.0,3.0,3.0,15.0,12.0,14.035668847618199
444,693,6.0,27.073972741361768,5.0,8.06225774829855,8.06225774829855,9.0,8.0,27.018512172212592,19.0,16.0,19.0,21.0,12.0,7.0,1.0,6.0,3.0,3.0,2.5,15.0,12.0,14.035668847618199
445,694,6.0,28.071337695236398,5.0,8.06225774829855,8.06225774829855,9.055385138137417,8.06225774829855,27.073972741361768,19.026297590440446,16.0,19.0,21.0,12.0,7.0,2.0,6.0,2.0,2.23606797749979,2.0,14.0,11.0,14.035668847618199
446,695,5.0,27.16615541441225,5.0,8.0,8.0,9.055385138137417,8.06225774829855,26.019223662515376,18.027756377319946,15.5,18.0,21.0,11.5,6.5,1.5,6.5,2.0,2.23606797749979,2.0,14.0,11.0,13.0
447,696,5.0,28.071337695236398,5.0,8.06225774829855,9.055385138137417,10.0,8.0,26.019223662515376,18.0,15.5,18.0,20.0,11.0,7.0,2.0,5.0,3.1622776601683795,2.23606797749979,2.0,16.0,12.0,13.0
448,697,4.0,27.018512172212592,5.0990195135927845,8.0,9.0,9.055385138137417,8.06225774829855,25.0,17.0,15.0,18.0,19.0,10.5,6.5,1.5,5.5,3.0,3.1622776601683795,3.0,15.0,12.0,14.035668847618199
449,698,4.0,28.071337695236398,5.0,8.06225774829855,8.0,9.0,9.0,26.019223662515376,18.0,16.0,18.0,20.0,10.0,7.0,1.0,5.0,3.1622776601683795,3.1622776601683795,3.0,15.0,12.0,13.038404810405298
450,699,3.0,26.019223662515376,5.0990195135927845,8.0,9.0,10.0,9.0,25.019992006393608,17.029386365926403,15.5,19.0,20.0,10.5,5.5,2.5,5.5,3.0,2.23606797749979,2.0,14.0,11.0,14.035668847618199
451,700,4.0,27.073972741361768,5.0,8.06225774829855,8.0,9.055385138137417,8.0,25.019992006393608,17.0,15.0,17.0,19.0,10.0,7.0,2.0,5.0,3.0,2.23606797749979,2.0,16.0,12.0,13.038404810405298
452,701,4.0,27.073972741361768,5.0,8.06225774829855,8.0,9.055385138137417,8.06225774829855,25.079872407968907,17.029386365926403,15.0,17.0,19.0,10.0,7.0,2.0,5.0,3.0,3.1622776601683795,2.5,16.0,12.0,13.038404810405298
453,702,4.0,30.066592756745816,4.0,8.06225774829855,8.06225774829855,10.0,10.04987562112089,26.076809620810597,18.027756377319946,16.0,18.0,20.0,9.0,7.0,2.0,4.0,3.0,2.0,2.0,16.0,12.0,14.0
454,703,3.0,32.0624390837628,6.0,8.06225774829855,9.055385138137417,9.0,9.0,26.019223662515376,18.0,16.5,18.0,20.0,10.0,7.0,1.0,4.0,3.0,3.1622776601683795,2.5,15.0,12.0,12.041594578792296
455,704,3.0,32.0624390837628,6.082762530298219,8.0,9.055385138137417,10.0,9.0,26.019223662515376,18.027756377319946,16.5,18.0,20.0,10.0,7.0,2.0,4.0,2.0,2.0,2.0,15.0,12.0,13.038404810405298
456,705,4.123105625617661,32.01562118716424,5.0,7.0,9.0,9.0,9.0,25.019992006393608,18.027756377319946,16.0,18.0,19.0,9.5,6.5,1.5,4.5,3.0,2.23606797749979,2.0,14.0,11.0,14.035668847618199
457,706,3.1622776601683795,32.01562118716424,5.0,7.0,9.0,10.04987562112089,9.0,24.020824298928627,17.029386365926403,15.5,18.0,19.0,9.5,5.5,1.5,4.5,2.0,2.0,2.0,15.0,12.0,13.0
458,707,3.0,32.0624390837628,5.0,7.0,9.0,9.0,9.055385138137417,24.020824298928627,17.029386365926403,15.5,17.0,19.0,9.0,6.0,2.0,4.0,3.0,2.23606797749979,2.0,15.0,12.0,13.0
459,708,4.0,31.064449134018133,5.0,7.0710678118654755,9.055385138137417,10.0,9.0,25.019992006393608,18.0,16.0,18.0,20.0,10.0,6.0,1.0,4.0,3.0,2.0,2.5,15.0,13.0,14.0
460,709,4.0,32.01562118716424,6.0,7.0,10.0,10.04987562112089,8.06225774829855,25.019992006393608,18.027756377319946,16.0,18.0,19.0,10.5,6.5,1.5,4.5,3.0,3.1622776601683795,3.0,14.0,11.0,14.035668847618199
461,710,4.0,32.0,6.082762530298219,8.0,10.0,10.0,8.0,26.019223662515376,18.027756377319946,16.0,18.0,18.0,10.0,8.0,0.0,4.0,3.0,2.23606797749979,2.0,14.0,12.0,15.033296378372908
462,711,4.123105625617661,32.0624390837628,6.0,7.0,10.04987562112089,10.0,8.0,25.019992006393608,18.027756377319946,16.0,17.0,19.0,10.0,7.0,1.0,4.0,2.0,2.0,2.0,14.0,12.0,13.0
463,712,4.0,31.016124838541646,5.0990195135927845,9.0,9.0,10.0,9.0,27.018512172212592,18.027756377319946,16.0,18.0,19.0,9.5,8.5,0.5,4.5,3.0,3.0,2.5,15.0,13.0,14.0
464,713,4.123105625617661,31.064449134018133,5.0,8.0,8.0,9.0,9.0,26.019223662515376,18.027756377319946,16.0,18.0,20.0,10.0,7.0,1.0,5.0,3.0,3.0,3.0,14.0,12.0,13.038404810405298
465,714,3.0,32.0624390837628,5.0,9.055385138137417,9.055385138137417,10.0,9.0,26.019223662515376,17.0,15.5,17.0,19.0,9.0,8.0,1.0,4.0,3.0,3.0,3.0,15.0,13.0,14.0
466,715,4.0,30.01666203960727,5.0,8.0,9.0,9.055385138137417,9.0,26.0,18.0,16.0,18.0,19.0,9.5,7.5,0.5,4.5,4.0,3.0,3.0,14.0,12.0,14.0
467,716,4.0,31.016124838541646,5.0990195135927845,8.0,9.0,10.0,9.055385138137417,26.0,18.0,16.0,18.0,19.0,9.5,7.5,0.5,4.5,3.0,4.0,3.5,14.0,12.0,14.0
468,717,5.0,31.064449134018133,5.0,8.06225774829855,9.0,9.055385138137417,9.0,27.018512172212592,19.0,16.5,18.0,20.0,10.0,8.0,1.0,5.0,3.0,3.0,2.5,14.0,12.0,14.0
469,718,5.0,31.016124838541646,5.0990195135927845,8.0,9.0,10.04987562112089,9.0,27.018512172212592,19.026297590440446,16.5,18.0,19.0,9.5,8.5,0.5,4.5,2.0,2.0,2.5,14.0,12.0,15.033296378372908
470,719,5.0,31.064449134018133,5.0,8.06225774829855,9.0,10.0,8.0,26.019223662515376,18.0,15.5,17.0,19.0,10.0,8.0,1.0,5.0,3.0,3.0,2.5,15.0,12.0,15.033296378372908
471,720,5.0,32.01562118716424,5.0,9.055385138137417,9.0,10.0,8.0,27.018512172212592,18.0,15.5,18.0,19.0,10.5,8.5,0.5,5.5,3.0,3.0,3.0,14.0,13.0,14.0
472,721,5.0,31.064449134018133,5.0990195135927845,9.0,9.0,10.0,9.0,28.0178514522438,19.026297590440446,16.5,18.0,20.0,10.0,9.0,0.0,5.0,3.0,4.0,3.5,14.0,13.0,14.0
473,722,5.0,31.064449134018133,5.0990195135927845,9.0,9.0,10.0,9.0,28.0178514522438,19.026297590440446,16.5,18.0,20.0,10.0,9.0,0.0,5.0,3.0,4.0,3.5,14.0,13.0,14.0
474,723,5.0,32.01562118716424,6.0,8.06225774829855,8.06225774829855,10.0,8.0,27.018512172212592,19.0,16.5,18.0,19.0,10.5,8.5,0.5,4.5,3.0,3.1622776601683795,3.5,14.0,12.0,14.0
475,724,6.0,31.016124838541646,5.0,9.055385138137417,8.06225774829855,10.04987562112089,8.0,28.0178514522438,19.0,16.0,18.0,19.0,10.5,9.5,0.5,4.5,4.0,3.0,3.5,15.0,13.0,14.0
476,725,6.0,31.016124838541646,6.082762530298219,8.0,9.0,10.04987562112089,8.0,28.0178514522438,20.024984394500787,17.0,18.0,19.0,10.5,9.5,0.5,4.5,4.0,3.0,3.5,14.0,13.0,14.035668847618199
477,726,6.0,30.066592756745816,5.0,9.055385138137417,8.06225774829855,10.0,9.0,29.017236257093817,20.0,17.0,19.0,21.0,11.0,9.0,0.0,5.0,3.0,4.0,3.5,14.0,13.0,14.0
478,727,7.0,30.01666203960727,5.0,10.0,9.055385138137417,10.0,8.06225774829855,30.01666203960727,20.024984394500787,16.5,19.0,20.0,11.5,10.5,0.5,5.5,3.0,4.123105625617661,3.5,15.0,14.0,15.0
479,728,6.0,30.01666203960727,5.0,10.0,8.06225774829855,9.055385138137417,9.0,30.0,20.0,17.0,20.0,21.0,11.5,9.5,0.5,5.5,4.123105625617661,4.0,3.5,15.0,14.0,14.0
480,729,6.0,30.01666203960727,6.082762530298219,9.0,9.0,10.0,8.0,29.017236257093817,20.024984394500787,17.0,19.0,20.0,11.5,9.5,0.5,5.5,4.123105625617661,3.0,3.5,14.0,12.0,14.0
481,730,7.0710678118654755,30.01666203960727,5.0,9.0,8.06225774829855,10.04987562112089,9.0,30.01666203960727,21.02379604162864,17.5,20.0,21.0,11.5,9.5,0.5,5.5,3.0,3.0,3.5,14.0,13.0,15.0
482,731,7.0,30.01666203960727,5.0990195135927845,9.0,9.055385138137417,10.04987562112089,9.0,30.01666203960727,21.02379604162864,17.5,20.0,21.0,11.5,9.5,0.5,5.5,3.1622776601683795,4.0,3.5,15.0,14.0,14.0
483,732,5.0,29.017236257093817,5.0,8.0,8.0,9.0,9.055385138137417,27.018512172212592,19.026297590440446,16.5,18.0,19.0,9.5,8.5,0.5,4.5,4.0,4.123105625617661,4.0,13.0,12.0,14.0
484,733,1.0,31.016124838541646,5.0,8.06225774829855,8.0,8.06225774829855,10.04987562112089,24.08318915758459,16.0312195418814,15.5,17.0,18.0,7.5,6.5,1.5,2.5,4.0,3.0,3.0,14.0,13.0,15.0
485,734,1.0,31.016124838541646,5.0,8.06225774829855,8.0,8.06225774829855,10.04987562112089,24.08318915758459,16.0312195418814,15.5,17.0,18.0,7.5,6.5,1.5,2.5,4.0,3.0,3.0,14.0,13.0,15.0
486,735,1.0,32.01562118716424,5.0,6.082762530298219,8.0,9.0,10.04987562112089,22.090722034374522,16.0312195418814,15.5,18.0,19.0,8.5,3.5,2.5,3.5,4.0,3.0,3.5,14.0,12.0,13.0
487,736,1.0,32.01562118716424,5.0,7.0710678118654755,9.0,9.0,9.055385138137417,22.090722034374522,15.033296378372908,14.5,17.0,18.0,8.5,4.5,2.5,3.5,3.0,4.0,3.5,14.0,12.0,14.0
488,737,2.0,32.01562118716424,5.0,6.082762530298219,8.0,9.055385138137417,10.04987562112089,23.08679276123039,17.029386365926403,16.0,18.0,19.0,8.5,4.5,2.5,3.5,3.0,4.123105625617661,3.5,14.0,13.0,14.0
489,738,1.0,31.016124838541646,5.0,7.0710678118654755,8.0,9.0,10.04987562112089,23.08679276123039,16.0312195418814,15.5,18.0,19.0,8.5,4.5,2.5,3.5,3.0,3.0,3.0,14.0,12.0,14.0
490,739,1.0,32.01562118716424,6.0,6.0,9.055385138137417,9.055385138137417,9.055385138137417,22.02271554554524,16.0312195418814,15.5,17.0,18.0,8.5,4.5,2.5,2.5,4.0,4.0,3.5,14.0,12.0,13.0
491,740,0.0,31.016124838541646,6.0,7.0,9.0,9.055385138137417,9.055385138137417,22.02271554554524,15.033296378372908,15.0,17.0,18.0,8.5,4.5,2.5,2.5,4.0,4.0,3.5,14.0,12.0,13.0
492,741,2.0,31.016124838541646,5.0990195135927845,6.0,9.0,9.0,9.0,22.02271554554524,16.0312195418814,15.0,17.0,18.0,8.5,4.5,1.5,3.5,3.0,4.0,4.0,13.0,12.0,13.038404810405298
493,742,2.0,31.016124838541646,5.0990195135927845,7.0,9.0,10.0,9.0,23.021728866442675,16.0312195418814,15.0,17.0,18.0,8.5,5.5,2.5,3.5,3.0,3.0,3.0,14.0,13.0,14.0
494,743,2.0,31.016124838541646,5.0990195135927845,7.0,9.0,10.0,9.0,23.021728866442675,16.0312195418814,15.0,17.0,18.0,8.5,5.5,2.5,3.5,3.0,3.0,3.0,14.0,13.0,14.0
495,744,2.0,31.016124838541646,6.0,7.0,9.0,9.0,9.0,24.0,17.0,16.0,18.0,19.0,9.5,5.5,1.5,3.5,4.0,4.123105625617661,4.0,14.0,13.0,14.035668847618199
496,745,3.0,31.016124838541646,5.0,7.0,8.0,8.0,9.055385138137417,24.020824298928627,17.029386365926403,15.5,18.0,19.0,9.5,5.5,1.5,4.5,4.0,4.0,4.0,14.0,13.0,14.035668847618199
497,746,3.0,31.016124838541646,5.0990195135927845,7.0,8.0,8.0,9.0,24.020824298928627,17.029386365926403,15.5,18.0,19.0,9.5,5.5,1.5,4.5,4.0,4.0,4.0,14.0,13.0,13.0
498,747,5.0990195135927845,29.017236257093817,5.0,7.0,9.0,9.0,9.0,26.019223662515376,19.026297590440446,16.5,19.0,20.0,10.5,6.5,1.5,5.5,3.0,3.0,3.5,13.0,12.0,14.0
499,748,5.0,30.01666203960727,5.0,7.0,8.0,9.0,9.0,26.0,19.0,16.5,19.0,20.0,10.5,6.5,1.5,5.5,3.0,3.1622776601683795,3.5,14.0,13.0,13.0
500,749,5.0,30.01666203960727,5.0,7.0,8.0,9.0,9.0,26.0,19.0,16.5,19.0,20.0,10.5,6.5,0.5,5.5,3.0,4.0,4.0,14.0,13.0,14.0
501,750,5.0,30.01666203960727,5.0,7.0710678118654755,9.055385138137417,9.0,8.0,25.019992006393608,18.0,15.5,18.0,19.0,10.5,6.5,1.5,4.5,3.0,4.123105625617661,3.5,13.0,13.0,14.0
502,751,4.0,30.0,6.0,7.0710678118654755,9.0,9.0,8.0,25.019992006393608,18.0,16.0,19.0,19.0,11.0,6.0,2.0,5.0,4.0,4.123105625617661,4.0,13.0,13.0,13.038404810405298
503,752,4.0,30.01666203960727,5.0,8.0,8.0,9.0,9.055385138137417,26.019223662515376,18.027756377319946,16.0,19.0,20.0,10.5,6.5,1.5,5.5,4.0,4.0,4.0,13.0,12.0,13.038404810405298
504,753,5.0,29.0,5.0,8.06225774829855,9.0,10.0,8.0,26.019223662515376,18.0,15.5,18.0,18.0,10.0,8.0,0.0,5.0,3.0,4.123105625617661,3.5,14.0,13.0,14.0
505,754,5.0,31.016124838541646,5.0,7.0,9.0,9.0,9.0,26.0,19.0,16.5,18.0,19.0,9.5,7.5,0.5,4.5,4.0,3.1622776601683795,3.0,13.0,12.0,14.0
506,755,4.0,30.0,6.0,8.06225774829855,9.0,9.0,8.0,26.019223662515376,18.0,16.0,19.0,19.0,11.0,7.0,1.0,5.0,4.0,4.123105625617661,4.0,13.0,12.0,15.0
507,756,6.082762530298219,31.0,6.0,8.0,9.0,10.0,7.0,27.018512172212592,19.026297590440446,16.0,19.0,19.0,12.0,8.0,0.0,6.0,4.0,4.0,3.5,13.0,12.0,13.0
508,757,5.0,30.01666203960727,6.082762530298219,8.0,8.0,9.0,8.0,27.018512172212592,19.026297590440446,16.5,19.0,20.0,11.5,7.5,1.5,5.5,4.0,4.0,3.5,13.0,12.0,13.0
509,758,5.0,30.01666203960727,6.082762530298219,8.0,8.0,9.0,8.0,27.018512172212592,19.026297590440446,16.5,19.0,20.0,11.5,7.5,1.5,5.5,4.0,4.0,3.5,13.0,12.0,13.0
510,759,4.0,30.01666203960727,5.0,8.0,8.0,9.0,9.055385138137417,26.019223662515376,18.027756377319946,16.0,18.0,19.0,9.5,7.5,0.5,4.5,3.0,3.1622776601683795,3.5,14.0,13.0,15.0
511,760,5.0,29.017236257093817,5.0,8.0,8.0,9.0,8.06225774829855,26.019223662515376,18.027756377319946,15.5,18.0,19.0,10.5,7.5,0.5,5.5,3.0,3.1622776601683795,3.5,14.0,13.0,12.0
512,761,5.0,29.017236257093817,5.0,8.0,8.0,9.0,8.06225774829855,26.019223662515376,18.027756377319946,15.5,18.0,19.0,10.5,7.5,0.5,5.5,4.0,3.0,3.5,14.0,13.0,13.0
513,762,4.0,28.0,6.0,8.0,8.0,9.055385138137417,8.06225774829855,26.019223662515376,18.027756377319946,16.0,19.0,19.0,11.0,7.0,1.0,5.0,3.0,4.0,3.5,13.0,12.0,14.0
514,763,6.0,30.01666203960727,6.0,8.06225774829855,8.0,9.0,7.0,27.018512172212592,19.0,16.0,19.0,20.0,12.5,7.5,0.5,6.5,3.0,4.0,3.5,13.0,12.0,14.0
515,764,6.0,29.0,5.0990195135927845,7.0,7.0710678118654755,8.0,8.0,26.019223662515376,19.026297590440446,16.0,19.0,19.0,11.0,7.0,1.0,5.0,3.0,4.0,3.5,13.0,12.0,14.0
516,765,4.0,30.01666203960727,6.082762530298219,8.0,9.0,9.0,7.0,25.019992006393608,17.029386365926403,15.0,17.0,18.0,10.5,7.5,0.5,4.5,3.0,3.0,3.0,14.0,12.0,13.0
517,766,5.0,30.01666203960727,5.0,7.0,8.0,10.0,8.06225774829855,25.019992006393608,18.027756377319946,15.5,18.0,19.0,10.5,6.5,1.5,5.5,2.23606797749979,2.0,2.0,14.0,13.0,14.0
518,767,5.0,30.066592756745816,5.0990195135927845,8.0,9.0,9.0,8.0,26.019223662515376,18.027756377319946,15.5,17.0,19.0,10.0,8.0,1.0,5.0,3.1622776601683795,3.0,2.5,14.0,13.0,14.0
519,768,6.0,30.01666203960727,5.0,8.0,8.0,9.0,8.0,27.0,19.0,16.0,18.0,19.0,10.5,8.5,0.5,5.5,2.0,2.23606797749979,2.0,13.0,11.0,14.0
520,769,7.0,31.016124838541646,5.0,8.0,8.06225774829855,9.0,8.06225774829855,28.0178514522438,20.024984394500787,16.5,19.0,20.0,11.5,8.5,0.5,5.5,4.0,3.0,3.0,14.0,12.0,14.0
521,770,7.0,31.016124838541646,5.0,8.0,8.06225774829855,9.0,8.06225774829855,28.0178514522438,20.024984394500787,16.5,19.0,20.0,11.5,8.5,0.5,5.5,4.0,3.0,3.0,14.0,12.0,14.0
522,771,6.0,32.01562118716424,5.0,9.0,9.055385138137417,10.0,8.0,28.0,19.0,16.0,19.0,20.0,11.5,8.5,0.5,5.5,3.0,3.1622776601683795,2.5,13.0,12.0,15.033296378372908
523,772,8.0,32.01562118716424,6.0,8.0,9.055385138137417,10.0,7.0710678118654755,29.017236257093817,21.02379604162864,17.0,19.0,20.0,12.5,9.5,0.5,5.5,3.1622776601683795,3.1622776601683795,3.0,13.0,12.0,14.0
524,773,8.0,31.016124838541646,6.0,8.06225774829855,9.0,9.055385138137417,7.0,29.017236257093817,21.0,17.0,19.0,20.0,12.5,9.5,1.5,6.5,3.0,2.0,2.5,13.0,12.0,15.0
525,774,7.0,31.016124838541646,6.0,9.055385138137417,9.0,10.0,8.0,30.01666203960727,21.0,17.5,20.0,21.0,12.5,9.5,0.5,5.5,3.0,3.0,3.0,14.0,13.0,13.0
526,775,7.0,31.016124838541646,6.0,8.06225774829855,9.055385138137417,10.04987562112089,8.0,29.017236257093817,21.0,17.5,20.0,21.0,12.5,8.5,0.5,5.5,4.123105625617661,3.0,3.0,14.0,13.0,13.038404810405298
527,776,7.0,31.016124838541646,6.0,9.055385138137417,9.0,10.0,7.0,29.017236257093817,20.0,16.5,19.0,20.0,12.5,9.5,0.5,6.5,4.0,4.0,3.5,14.0,13.0,14.0
528,777,8.0,32.01562118716424,5.0990195135927845,9.0,9.0,10.0,8.06225774829855,30.0,21.0,17.0,19.0,20.0,11.5,10.5,1.5,6.5,3.0,3.0,3.0,14.0,13.0,14.0
529,778,8.0,31.016124838541646,5.0,8.0,9.055385138137417,10.04987562112089,8.06225774829855,29.017236257093817,21.02379604162864,17.0,19.0,20.0,11.5,9.5,0.5,5.5,3.0,3.1622776601683795,3.0,14.0,13.0,14.0
530,779,8.0,31.016124838541646,5.0,8.0,9.055385138137417,10.04987562112089,8.06225774829855,29.017236257093817,21.02379604162864,17.0,19.0,20.0,11.5,9.5,0.5,5.5,3.0,3.1622776601683795,3.0,14.0,13.0,14.0
531,780,9.0,31.016124838541646,6.0,7.0710678118654755,9.0,10.04987562112089,8.0,30.01666203960727,23.0,18.5,19.0,20.0,11.5,10.5,2.5,5.5,4.0,4.0,3.5,13.0,13.0,14.035668847618199
532,781,9.055385138137417,31.016124838541646,6.0,8.0,9.0,10.0,8.0,31.016124838541646,23.021728866442675,18.5,20.0,21.0,12.5,10.5,1.5,6.5,3.0,3.1622776601683795,3.0,14.0,13.0,15.0
533,782,8.0,31.016124838541646,6.0,8.06225774829855,9.0,10.0,8.0,30.01666203960727,22.0,18.0,20.0,21.0,12.5,9.5,1.5,6.5,3.0,4.0,3.5,13.0,12.0,13.0
534,783,5.0,30.01666203960727,5.0990195135927845,8.0,8.06225774829855,9.0,8.0,26.019223662515376,18.027756377319946,15.5,18.0,19.0,10.5,7.5,1.5,4.5,4.123105625617661,3.0,3.5,14.0,13.0,14.0
535,784,4.0,29.0,5.0,8.06225774829855,8.06225774829855,9.0,8.0,25.019992006393608,17.0,15.0,18.0,18.0,10.0,7.0,1.0,4.0,4.0,3.0,3.0,14.0,13.0,14.0
536,785,4.0,30.0,5.0,8.06225774829855,8.0,9.055385138137417,8.0,25.019992006393608,17.0,15.0,18.0,18.0,10.0,7.0,1.0,5.0,4.123105625617661,3.1622776601683795,3.5,14.0,13.0,14.0
537,786,4.123105625617661,28.0,5.0,7.0,7.0,9.0,8.0,24.020824298928627,17.029386365926403,15.0,18.0,18.0,10.0,6.0,2.0,5.0,3.1622776601683795,3.0,3.5,14.0,13.0,14.0
538,787,2.0,28.0,6.0,8.0,8.0,9.0,8.0,24.0,16.0,15.0,18.0,18.0,10.0,6.0,2.0,4.0,4.0,3.0,3.0,14.0,13.0,13.0
539,788,3.0,28.0178514522438,5.0,8.0,8.0,9.0,9.0,25.0,17.0,15.5,18.0,19.0,9.5,6.5,1.5,4.5,4.0,4.0,4.0,14.0,13.0,14.0
540,789,3.0,28.0,6.0,8.0,8.0,9.0,8.0,25.0,17.0,15.5,18.0,18.0,10.0,7.0,1.0,4.0,4.0,4.0,3.5,14.0,12.0,14.0
541,790,4.0,29.017236257093817,6.0,8.0,8.0,9.0,8.0,26.0,18.0,16.0,18.0,19.0,10.5,7.5,0.5,4.5,3.0,4.0,3.5,14.0,12.0,15.0
542,791,4.0,29.017236257093817,6.0,8.0,8.06225774829855,9.055385138137417,8.0,26.0,18.0,16.0,18.0,19.0,10.5,7.5,0.5,4.5,3.0,4.0,3.5,14.0,12.0,14.0
543,792,6.0,32.01562118716424,6.0,9.0,9.0,10.04987562112089,8.06225774829855,29.017236257093817,20.024984394500787,17.0,19.0,20.0,11.5,9.5,0.5,5.5,3.1622776601683795,4.123105625617661,3.5,15.0,13.0,14.0
544,793,6.082762530298219,31.016124838541646,5.0,9.0,9.055385138137417,10.0,8.0,28.0178514522438,19.026297590440446,16.0,18.0,19.0,10.5,9.5,0.5,4.5,3.1622776601683795,4.0,4.0,14.0,12.0,15.0
545,794,6.082762530298219,31.016124838541646,5.0,9.0,9.0,10.0,8.0,28.0178514522438,19.026297590440446,16.0,18.0,19.0,10.5,9.5,0.5,4.5,4.0,4.0,4.0,14.0,12.0,15.0
546,795,4.123105625617661,33.015148038438355,5.0,9.0,9.0,10.0,9.0,27.018512172212592,18.027756377319946,16.0,18.0,19.0,9.5,8.5,0.5,4.5,3.1622776601683795,3.0,3.0,14.0,12.0,15.0
547,796,3.0,30.0,6.0,9.055385138137417,9.055385138137417,9.0,8.0,26.019223662515376,17.0,15.5,18.0,18.0,10.0,8.0,1.0,4.0,4.0,3.0,3.0,15.0,13.0,15.0
548,797,4.0,32.0,6.082762530298219,8.0,9.0,10.0,8.0,26.019223662515376,18.027756377319946,16.0,18.0,18.0,10.0,8.0,1.0,4.0,3.0,4.123105625617661,3.5,14.0,13.0,15.0
549,798,4.0,32.0,5.0,8.0,9.0,10.04987562112089,8.0,25.0,17.0,15.0,17.0,17.0,9.0,8.0,1.0,4.0,4.0,4.123105625617661,3.5,14.0,13.0,14.0
550,799,4.0,32.01562118716424,5.0,9.0,10.0,10.0,9.0,27.0,18.0,16.0,17.0,18.0,8.5,9.5,0.5,3.5,3.0,3.0,3.0,14.0,13.0,14.0
551,800,4.123105625617661,31.016124838541646,5.0,9.0,9.0,10.0,9.0,27.018512172212592,18.027756377319946,16.0,18.0,19.0,9.5,8.5,0.5,4.5,3.0,3.0,3.0,15.0,14.0,15.033296378372908
552,801,4.0,31.016124838541646,5.0990195135927845,8.0,9.0,10.0,9.0,26.019223662515376,18.027756377319946,16.0,17.0,18.0,8.5,8.5,0.5,3.5,3.0,3.0,3.0,15.0,14.0,16.0
553,802,3.0,32.01562118716424,6.082762530298219,9.0,9.0,10.0,8.0,26.019223662515376,17.029386365926403,15.5,17.0,18.0,9.5,8.5,0.5,3.5,3.0,2.23606797749979,2.0,15.0,14.0,14.0
554,803,3.0,32.01562118716424,6.082762530298219,9.0,9.0,10.0,8.0,26.019223662515376,17.029386365926403,15.5,17.0,18.0,9.5,8.5,0.5,3.5,3.0,2.23606797749979,2.0,15.0,14.0,14.0
555,804,4.0,32.01562118716424,5.0,8.0,9.0,10.0,9.0,26.0,18.0,16.0,17.0,18.0,8.5,8.5,0.5,3.5,3.0,2.23606797749979,2.0,16.0,14.0,14.0
556,805,3.0,31.016124838541646,5.0,8.0,8.0,9.0,9.0,25.0,17.0,15.5,17.0,18.0,8.5,7.5,0.5,3.5,3.0,3.1622776601683795,2.5,15.0,13.0,15.0
557,806,3.0,31.016124838541646,5.0,8.0,8.0,9.0,9.0,25.0,17.0,15.5,17.0,18.0,8.5,7.5,0.5,3.5,3.0,3.1622776601683795,2.5,15.0,13.0,15.0
558,807,1.4142135623730951,30.01666203960727,5.0,8.0,8.0,9.0,9.055385138137417,23.0,15.0,14.5,16.0,17.0,7.5,6.5,1.5,2.5,3.0,3.1622776601683795,2.5,15.0,13.0,14.0
559,808,1.0,30.01666203960727,6.0,8.0,8.0,9.0,8.0,23.0,15.0,14.5,16.0,17.0,8.5,6.5,1.5,2.5,3.0,3.1622776601683795,3.0,15.0,13.0,15.033296378372908
560,809,1.0,30.01666203960727,6.0,8.0,8.0,9.0,8.0,23.0,15.0,14.5,16.0,17.0,8.5,6.5,1.5,2.5,3.0,3.1622776601683795,3.0,15.0,13.0,15.033296378372908
561,810,2.0,30.0,5.0,7.0,8.0,9.0,9.055385138137417,23.021728866442675,16.0312195418814,15.0,17.0,17.0,8.0,6.0,2.0,3.0,4.123105625617661,3.0,3.0,14.0,13.0,14.0
562,811,2.0,31.016124838541646,6.0,7.0,9.0,9.0,8.06225774829855,23.021728866442675,16.0312195418814,15.0,16.0,17.0,8.5,6.5,1.5,2.5,3.0,3.0,3.0,15.0,14.0,15.0
563,812,2.0,32.0,5.0,7.0,9.0,10.0,9.055385138137417,23.021728866442675,16.0312195418814,15.0,17.0,17.0,8.0,6.0,2.0,3.0,3.0,2.0,2.5,15.0,14.0,16.0
564,813,1.0,31.0,6.0,8.0,9.0,9.0,8.0,23.0,15.0,14.5,17.0,17.0,9.0,6.0,2.0,3.0,4.0,3.0,3.0,14.0,14.0,14.0
565,814,1.4142135623730951,30.0,6.0,8.0,9.0,9.0,9.0,24.020824298928627,16.0312195418814,15.5,17.0,17.0,8.0,7.0,1.0,2.0,4.0,3.0,3.5,15.0,14.0,14.035668847618199
566,815,1.4142135623730951,30.0,6.0,8.0,9.0,9.0,9.0,24.020824298928627,16.0312195418814,15.5,17.0,17.0,8.0,7.0,1.0,2.0,4.0,3.0,3.5,15.0,14.0,14.035668847618199
567,816,1.4142135623730951,32.0,6.082762530298219,8.06225774829855,9.0,9.0,9.0,24.020824298928627,16.0,15.5,17.0,17.0,8.0,7.0,2.0,3.0,4.0,4.0,4.0,14.0,13.0,15.0
568,817,1.0,32.0,5.0,8.0,9.0,9.0,9.0,23.0,15.0,14.5,17.0,17.0,8.0,6.0,2.0,3.0,3.0,4.0,3.5,14.0,13.0,15.0
569,818,1.0,32.0,5.0,8.0,9.0,9.0,9.0,23.0,15.0,14.5,17.0,17.0,8.0,6.0,2.0,3.0,3.0,4.0,3.5,14.0,13.0,15.0
570,819,1.0,32.01562118716424,5.0,8.06225774829855,8.0,9.0,9.055385138137417,23.0,15.033296378372908,14.5,16.0,17.0,7.5,6.5,1.5,2.5,3.0,3.0,3.0,14.0,13.0,15.033296378372908
571,820,1.0,32.0,6.0,8.0,9.0,9.0,9.055385138137417,24.020824298928627,16.0312195418814,15.5,17.0,17.0,8.0,7.0,1.0,2.0,4.0,3.1622776601683795,3.0,14.0,13.0,16.0
572,821,1.0,31.016124838541646,6.0,7.0,9.0,9.0,8.06225774829855,22.02271554554524,15.033296378372908,14.5,16.0,17.0,8.5,5.5,2.5,2.5,3.0,4.0,3.5,14.0,13.0,15.0
573,822,1.0,31.016124838541646,6.0,8.0,8.0,9.0,9.0,24.0,16.0,15.5,17.0,18.0,8.5,6.5,2.5,2.5,3.0,3.1622776601683795,3.0,14.0,13.0,16.0
574,823,2.0,31.016124838541646,5.0990195135927845,8.0,9.0,10.0,9.0,24.020824298928627,16.0312195418814,15.0,17.0,18.0,8.5,6.5,1.5,3.5,3.0,4.0,3.5,14.0,13.0,15.0
575,824,2.0,31.016124838541646,5.0990195135927845,8.0,9.0,10.0,9.0,24.020824298928627,16.0312195418814,15.0,17.0,18.0,8.5,6.5,1.5,3.5,3.0,4.0,3.5,14.0,13.0,15.0
576,825,4.0,30.01666203960727,6.082762530298219,8.0,9.0,9.0,8.0,26.019223662515376,18.027756377319946,16.0,18.0,19.0,10.5,7.5,0.5,4.5,4.0,3.0,3.0,13.0,12.0,14.035668847618199
577,826,5.0,28.0,5.0,8.0,9.0,10.0,9.0,27.0,19.0,16.5,19.0,19.0,10.0,8.0,0.0,5.0,4.0,3.1622776601683795,3.5,14.0,12.0,14.0
578,827,4.0,29.017236257093817,6.082762530298219,9.0,8.0,10.0,9.0,28.0178514522438,19.026297590440446,17.0,19.0,20.0,10.5,8.5,0.5,4.5,4.0,3.0,3.5,14.0,12.0,14.0
579,828,5.0,29.017236257093817,5.0990195135927845,8.0,9.0,10.04987562112089,9.055385138137417,27.0,19.0,16.5,19.0,20.0,10.5,7.5,0.5,5.5,4.0,4.0,3.5,14.0,13.0,14.0
580,829,7.0,29.017236257093817,5.0,8.0,8.06225774829855,9.0,9.0,29.0,21.0,17.5,20.0,21.0,11.5,8.5,0.5,5.5,3.0,4.0,3.5,14.0,13.0,14.0
581,830,7.0,29.017236257093817,5.0,8.0,8.06225774829855,9.0,9.0,29.0,21.0,17.5,20.0,21.0,11.5,8.5,0.5,5.5,3.0,4.0,3.5,14.0,13.0,14.0
582,831,8.0,29.017236257093817,6.0,8.06225774829855,8.0,9.055385138137417,8.0,30.01666203960727,22.0,18.0,20.0,21.0,12.5,9.5,0.5,6.5,3.0,4.0,4.0,14.0,12.0,15.0
583,832,8.0,29.0,7.0,9.0,9.0,10.0,8.06225774829855,32.01562118716424,23.021728866442675,19.0,22.0,22.0,14.0,10.0,0.0,7.0,5.0,4.123105625617661,4.0,14.0,13.0,15.033296378372908
584,833,10.0,28.0178514522438,6.0,9.0,8.0,9.0,8.06225774829855,33.015148038438355,24.020824298928627,19.0,22.0,21.0,13.5,11.5,2.5,7.5,5.0,5.0,4.5,13.0,12.0,15.0
585,834,1.4142135623730951,19.1049731745428,4.0,7.0,8.0,8.06225774829855,10.04987562112089,22.090722034374522,15.132745950421556,14.5,18.0,20.0,9.0,3.0,5.0,5.0,3.0,2.0,2.0,13.0,11.0,8.06225774829855
586,835,13.0,29.017236257093817,6.0,8.0,8.0,10.0,8.0,35.0,27.0,20.5,22.0,23.0,14.5,12.5,3.5,8.5,4.0,4.0,3.5,14.0,12.0,15.033296378372908
587,836,13.0,29.017236257093817,6.0,9.055385138137417,8.0,10.0,9.0,37.013511046643494,28.0,21.5,23.0,24.0,14.5,13.5,4.5,8.5,4.123105625617661,4.123105625617661,4.0,14.0,12.0,13.152946437965905
588,837,6.0,30.066592756745816,6.0,8.0,8.0,9.0,10.0,30.0,22.0,19.0,20.0,22.0,11.0,9.0,1.0,5.0,3.0,3.0,3.0,14.0,12.0,14.0
589,838,2.0,30.01666203960727,5.0,8.0,8.06225774829855,10.0,10.04987562112089,25.019992006393608,17.029386365926403,16.0,19.0,20.0,9.5,5.5,2.5,3.5,3.0,4.123105625617661,3.5,15.0,12.0,14.0
590,839,2.0,30.01666203960727,5.0,8.0,8.06225774829855,10.0,10.04987562112089,25.019992006393608,17.029386365926403,16.0,19.0,20.0,9.5,5.5,2.5,3.5,3.0,4.123105625617661,3.5,15.0,12.0,14.0
591,840,1.0,30.01666203960727,5.0990195135927845,7.0710678118654755,9.0,9.0,11.0,23.021728866442675,16.0,16.0,19.0,20.0,8.5,3.5,3.5,3.5,3.1622776601683795,3.1622776601683795,2.5,15.0,13.0,14.0
592,841,1.0,30.066592756745816,5.0,6.082762530298219,9.0,9.0,11.0,23.021728866442675,17.0,16.5,19.0,21.0,9.0,3.0,3.0,4.0,4.0,3.0,3.5,14.0,12.0,13.038404810405298
593,842,1.0,31.064449134018133,5.0,7.0,9.055385138137417,9.055385138137417,10.0,23.0,16.0,15.5,18.0,20.0,9.0,4.0,3.0,4.0,4.0,3.0,3.5,14.0,12.0,14.0
594,843,2.0,30.01666203960727,6.0,6.0,8.0,9.0,9.055385138137417,23.021728866442675,17.029386365926403,16.0,19.0,20.0,10.5,3.5,2.5,4.5,3.0,3.0,3.0,14.0,13.0,13.0
595,844,2.0,30.01666203960727,6.0,7.0,8.0,9.0,10.04987562112089,25.019992006393608,18.027756377319946,17.0,20.0,21.0,10.5,4.5,2.5,4.5,4.0,4.123105625617661,4.0,14.0,13.0,14.0
596,845,3.0,31.016124838541646,6.0,7.0710678118654755,9.0,9.055385138137417,9.0,25.019992006393608,18.0,16.5,19.0,20.0,10.5,5.5,2.5,4.5,4.0,4.123105625617661,3.5,14.0,12.0,14.0
597,846,9.0,30.0,6.082762530298219,8.0,9.0,10.0,9.0,32.01562118716424,24.020824298928627,19.5,22.0,22.0,13.0,10.0,1.0,7.0,3.0,4.123105625617661,3.5,14.0,12.0,14.0
598,847,10.0,30.066592756745816,6.0,8.0,9.0,10.0,9.055385138137417,33.015148038438355,25.019992006393608,20.0,21.0,23.0,13.0,11.0,2.0,7.0,4.0,3.1622776601683795,3.0,14.0,12.0,14.0
599,848,10.0,30.066592756745816,6.0,8.0,9.0,10.0,9.0,33.0,25.0,20.0,21.0,23.0,13.0,11.0,2.0,7.0,4.0,3.0,3.0,14.0,12.0,15.0
600,849,3.0,31.016124838541646,5.0,7.0,8.0,9.0,10.0,25.0,18.0,16.5,19.0,20.0,9.5,5.5,1.5,4.5,4.0,4.0,3.5,14.0,12.0,14.0
601,850,1.0,30.01666203960727,6.082762530298219,8.0,9.0,10.0,10.0,25.019992006393608,17.029386365926403,16.5,19.0,20.0,9.5,5.5,2.5,3.5,3.0,3.0,2.5,14.0,12.0,12.0
602,851,1.4142135623730951,30.01666203960727,6.0,8.0,9.0,9.0,10.0,25.019992006393608,17.029386365926403,16.5,19.0,20.0,9.5,5.5,2.5,3.5,4.0,3.0,3.0,14.0,11.0,13.0
603,852,6.0,30.066592756745816,5.0990195135927845,8.0,9.055385138137417,9.055385138137417,9.0,28.0178514522438,20.024984394500787,17.0,19.0,21.0,11.0,8.0,1.0,5.0,3.0,2.23606797749979,2.5,14.0,12.0,14.0
604,853,4.0,30.066592756745816,5.0,8.06225774829855,9.055385138137417,10.0,8.06225774829855,25.079872407968907,17.029386365926403,15.0,17.0,19.0,10.0,7.0,1.0,4.0,3.0,3.0,3.0,15.0,12.0,14.0
605,854,4.0,29.068883707497267,5.0,8.06225774829855,8.0,10.0,8.0,25.019992006393608,17.0,15.0,17.0,19.0,10.0,7.0,1.0,5.0,3.0,2.0,2.5,15.0,13.0,13.038404810405298
606,855,5.0,28.0178514522438,5.0,8.0,9.0,9.055385138137417,8.0,26.0,18.0,15.5,18.0,19.0,10.5,7.5,0.5,5.5,3.0,2.0,2.0,15.0,12.0,14.0
607,856,5.0990195135927845,28.0178514522438,5.0,8.0,8.0,9.055385138137417,8.06225774829855,26.0,18.0,15.5,19.0,20.0,11.5,6.5,2.5,6.5,3.0,3.1622776601683795,2.5,14.0,12.0,14.0
608,857,5.0,29.017236257093817,5.0990195135927845,8.0,8.0,9.055385138137417,8.06225774829855,26.0,18.0,15.5,18.0,19.0,10.5,7.5,1.5,5.5,2.23606797749979,2.0,2.0,15.0,12.0,13.0
609,858,5.0,28.0178514522438,6.0,8.06225774829855,8.0,9.055385138137417,8.0,27.018512172212592,19.0,16.5,19.0,20.0,11.5,7.5,1.5,5.5,3.1622776601683795,2.0,2.0,14.0,11.0,14.0
610,859,5.0,29.017236257093817,6.0,8.06225774829855,8.0,9.0,8.0,27.018512172212592,19.0,16.5,19.0,20.0,11.5,7.5,0.5,5.5,3.0,3.1622776601683795,2.5,15.0,12.0,13.0
611,860,5.0,29.017236257093817,6.082762530298219,8.0,8.0,9.055385138137417,8.06225774829855,27.0,19.0,16.5,19.0,20.0,11.5,7.5,0.5,5.5,2.0,3.0,3.0,15.0,12.0,13.0
612,861,5.0,30.01666203960727,6.0,9.0,8.0,9.0,8.0,28.0,19.0,16.5,19.0,20.0,11.5,8.5,0.5,5.5,3.0,3.1622776601683795,3.0,14.0,12.0,14.035668847618199
613,862,5.0,29.017236257093817,6.082762530298219,9.0,8.06225774829855,9.055385138137417,8.06225774829855,28.0,19.0,16.5,19.0,20.0,11.5,8.5,0.5,5.5,4.0,3.0,3.0,15.0,12.0,14.0
614,863,6.0,29.017236257093817,6.0,8.0,8.0,9.0,8.0,28.0,20.0,17.0,19.0,20.0,11.5,8.5,0.5,5.5,4.0,3.0,3.0,14.0,12.0,14.0
615,864,6.0,30.01666203960727,6.0,8.06225774829855,8.0,10.0,8.0,28.0178514522438,20.0,17.0,19.0,20.0,11.5,8.5,0.5,5.5,4.123105625617661,3.0,2.5,15.0,12.0,14.0
616,865,6.0,30.01666203960727,6.0,8.06225774829855,9.0,10.0,8.0,28.0178514522438,20.0,17.0,19.0,20.0,11.5,8.5,0.5,5.5,3.0,3.0,2.5,15.0,12.0,14.0
617,866,6.0,30.01666203960727,6.0,8.06225774829855,9.0,10.0,8.0,28.0178514522438,20.0,17.0,19.0,20.0,11.5,8.5,0.5,5.5,3.0,3.0,2.5,15.0,12.0,14.0
618,867,5.0,31.016124838541646,5.0990195135927845,8.0,9.0,10.0,9.0,27.018512172212592,19.026297590440446,16.5,19.0,20.0,10.5,7.5,1.5,5.5,3.0,3.0,3.0,14.0,12.0,15.033296378372908
619,868,6.0,31.016124838541646,5.0990195135927845,9.0,9.0,10.0,9.0,29.017236257093817,20.024984394500787,17.0,20.0,21.0,11.5,8.5,0.5,6.5,3.0,3.0,3.0,14.0,12.0,13.0
620,869,5.0,31.016124838541646,6.082762530298219,9.0,9.055385138137417,10.04987562112089,8.0,28.0178514522438,19.026297590440446,16.5,19.0,20.0,11.5,8.5,0.5,4.5,3.0,3.0,3.0,14.0,12.0,14.0
621,870,5.0,30.01666203960727,7.0,9.055385138137417,8.06225774829855,10.0,8.0,29.017236257093817,20.0,17.5,20.0,21.0,12.5,8.5,1.5,5.5,3.0,3.1622776601683795,3.0,14.0,12.0,14.0
622,871,7.0,30.066592756745816,6.0,8.06225774829855,9.0,10.04987562112089,7.0,28.0178514522438,20.0,16.5,18.0,20.0,12.0,9.0,0.0,6.0,3.0,3.0,3.0,14.0,12.0,14.0
623,872,6.082762530298219,30.01666203960727,5.0,9.0,9.0,10.0,8.0,28.0178514522438,19.026297590440446,16.0,19.0,20.0,11.5,8.5,0.5,6.5,3.1622776601683795,3.0,3.0,14.0,12.0,14.0
624,873,5.0,31.064449134018133,6.0,9.0,9.0,10.0,8.0,28.0,19.0,16.5,19.0,21.0,12.0,8.0,1.0,6.0,2.0,3.0,2.5,14.0,12.0,15.033296378372908
625,874,4.0,30.01666203960727,6.0,9.055385138137417,8.0,9.055385138137417,8.0,27.018512172212592,18.0,16.0,19.0,20.0,11.5,7.5,1.5,5.5,4.123105625617661,3.0,3.0,13.0,11.0,14.0
626,875,6.0,31.016124838541646,6.0,8.0,8.0,9.0,8.0,28.0,20.0,17.0,19.0,20.0,11.5,8.5,0.5,5.5,4.0,3.0,2.5,14.0,12.0,13.038404810405298
627,876,8.0,31.0,5.0,8.0,8.0,9.055385138137417,8.06225774829855,29.017236257093817,21.02379604162864,17.0,19.0,19.0,11.0,10.0,2.0,6.0,4.0,4.0,4.0,13.0,12.0,15.033296378372908
628,877,9.0,30.01666203960727,5.0990195135927845,8.0,9.055385138137417,10.0,8.0,30.01666203960727,22.02271554554524,17.5,20.0,21.0,12.5,9.5,1.5,6.5,4.0,3.0,3.0,14.0,12.0,13.038404810405298
629,878,8.06225774829855,30.01666203960727,6.0,8.0,8.0,9.0,8.0,30.01666203960727,22.02271554554524,18.0,20.0,21.0,12.5,9.5,1.5,6.5,4.0,3.1622776601683795,2.5,13.0,12.0,13.038404810405298
630,879,8.0,29.017236257093817,6.0,9.055385138137417,9.0,10.0,7.0,30.01666203960727,21.0,17.0,20.0,21.0,13.5,9.5,0.5,7.5,3.1622776601683795,3.0,3.0,14.0,13.0,13.038404810405298
631,880,8.0,29.017236257093817,6.0,9.055385138137417,9.055385138137417,10.04987562112089,8.0,31.016124838541646,22.0,18.0,21.0,22.0,13.5,9.5,0.5,6.5,3.0,3.0,2.5,15.0,13.0,14.0
632,881,8.0,29.017236257093817,6.0,9.055385138137417,9.0,10.04987562112089,8.0,31.016124838541646,22.0,18.0,21.0,22.0,13.5,9.5,0.5,7.5,3.0,3.1622776601683795,3.0,15.0,13.0,15.033296378372908
633,882,7.0,29.068883707497267,5.0,8.0,9.055385138137417,10.04987562112089,9.0,29.0,21.0,17.5,19.0,21.0,11.0,9.0,0.0,5.0,3.0,2.0,2.0,14.0,12.0,13.0
634,883,3.0,30.01666203960727,5.0,7.0,8.0,9.055385138137417,10.0,25.0,18.0,16.5,19.0,20.0,9.5,5.5,2.5,4.5,3.0,3.1622776601683795,2.5,15.0,12.0,13.0
635,884,3.0,30.01666203960727,5.0,7.0710678118654755,8.0,9.0,10.0,25.019992006393608,18.0,16.5,19.0,20.0,9.5,5.5,2.5,4.5,2.0,3.0,2.5,15.0,13.0,13.038404810405298
636,885,3.0,31.016124838541646,5.0,7.0,8.0,9.0,10.04987562112089,25.019992006393608,18.027756377319946,16.5,19.0,20.0,9.5,5.5,1.5,4.5,3.0,2.0,2.0,14.0,12.0,13.0
637,886,5.0,30.01666203960727,5.0,7.0710678118654755,9.0,10.0,10.0,27.018512172212592,20.0,17.5,20.0,21.0,10.5,6.5,1.5,5.5,3.0,3.0,3.0,14.0,12.0,13.0
638,887,5.0,30.01666203960727,5.0,7.0710678118654755,9.0,10.0,10.0,27.018512172212592,20.0,17.5,20.0,21.0,10.5,6.5,1.5,5.5,3.0,3.0,3.0,14.0,12.0,13.0
639,888,8.0,31.016124838541646,6.082762530298219,8.0,9.055385138137417,10.04987562112089,8.0,30.01666203960727,22.02271554554524,18.0,20.0,21.0,12.5,9.5,0.5,5.5,2.0,2.23606797749979,2.0,14.0,12.0,15.033296378372908
640,889,7.0,30.01666203960727,5.0990195135927845,9.0,9.055385138137417,10.0,9.0,30.01666203960727,21.02379604162864,17.5,20.0,21.0,11.5,9.5,0.5,5.5,3.0,3.0,3.0,13.0,11.0,14.0
641,890,6.0,31.064449134018133,6.0,8.0,9.0,10.0,9.055385138137417,29.017236257093817,21.02379604162864,18.0,20.0,22.0,12.0,8.0,1.0,6.0,3.0,3.1622776601683795,3.0,14.0,12.0,14.0
642,891,9.0,31.064449134018133,6.0,8.06225774829855,8.06225774829855,10.0,8.0,31.016124838541646,23.0,18.5,20.0,22.0,13.0,10.0,2.0,6.0,2.0,3.1622776601683795,3.0,14.0,12.0,14.0
643,892,5.0,30.01666203960727,6.0,9.0,8.0,9.0,9.0,29.0,20.0,17.5,20.0,21.0,11.5,8.5,0.5,5.5,2.0,3.1622776601683795,3.0,14.0,12.0,13.0
644,893,6.0,31.016124838541646,6.0,8.0,10.0,10.0,8.0,28.0,20.0,17.0,19.0,20.0,11.5,8.5,0.5,5.5,3.0,3.1622776601683795,3.0,14.0,12.0,14.0
645,894,2.0,31.016124838541646,5.0,7.0710678118654755,8.0,9.0,9.0,23.021728866442675,16.0,15.0,18.0,19.0,9.5,4.5,2.5,4.5,3.0,3.0,2.5,15.0,13.0,14.035668847618199
646,895,1.0,30.01666203960727,5.0,8.0,8.0,9.0,9.0,23.0,15.0,14.5,17.0,18.0,8.5,5.5,2.5,3.5,3.0,2.0,2.5,15.0,12.0,14.0
647,896,1.0,30.01666203960727,5.0,7.0,8.0,9.0,9.0,22.0,15.0,14.5,17.0,18.0,8.5,4.5,2.5,3.5,3.0,2.0,2.5,15.0,12.0,14.0
648,897,4.0,28.0178514522438,6.0,8.0,8.0,9.055385138137417,7.0,25.0,17.0,15.0,18.0,19.0,11.5,6.5,2.5,5.5,3.0,2.0,2.0,14.0,12.0,14.0
649,898,5.0,27.018512172212592,6.0,9.0,8.0,9.0,6.0,26.0,17.0,14.5,17.0,18.0,11.5,8.5,1.5,5.5,2.0,3.0,2.5,15.0,12.0,14.0
650,899,5.0,27.018512172212592,6.0,9.0,8.0,9.0,6.0,26.0,17.0,14.5,17.0,18.0,11.5,8.5,1.5,5.5,2.0,3.0,2.5,15.0,12.0,14.0
651,900,4.0,28.0178514522438,6.0,9.055385138137417,8.0,9.055385138137417,7.0,26.019223662515376,17.0,15.0,18.0,19.0,11.5,7.5,1.5,5.5,3.0,3.1622776601683795,3.0,14.0,12.0,14.0
652,901,5.0990195135927845,29.017236257093817,6.0,8.0,8.0,10.04987562112089,8.0,27.018512172212592,19.026297590440446,16.5,19.0,20.0,11.5,7.5,1.5,5.5,3.0,3.1622776601683795,3.0,14.0,12.0,14.0
653,902,5.0,29.017236257093817,6.0,8.0,8.0,9.055385138137417,7.0,26.0,18.0,15.5,18.0,19.0,11.5,7.5,1.5,5.5,2.0,3.0,3.0,14.0,12.0,14.0
654,903,5.0,31.016124838541646,6.0,8.06225774829855,9.0,10.0,8.0,27.018512172212592,19.0,16.5,19.0,20.0,11.5,7.5,1.5,5.5,2.0,3.0,2.5,14.0,12.0,13.0
655,904,4.123105625617661,30.01666203960727,6.0,8.0,9.0,10.0,8.0,26.019223662515376,18.027756377319946,16.0,18.0,19.0,10.5,7.5,1.5,4.5,4.0,3.0,3.0,13.0,11.0,15.033296378372908
656,905,4.0,31.016124838541646,6.082762530298219,8.0,9.0,10.04987562112089,8.0,26.019223662515376,18.027756377319946,16.0,18.0,19.0,10.5,7.5,1.5,4.5,4.0,3.1622776601683795,3.0,13.0,11.0,14.0
657,906,4.123105625617661,31.016124838541646,5.0,7.0,9.0,10.0,9.0,25.019992006393608,18.027756377319946,16.0,18.0,19.0,9.5,6.5,1.5,4.5,3.1622776601683795,3.0,3.0,15.0,12.0,14.035668847618199
658,907,1.0,32.01562118716424,6.0,8.0,9.0,9.0,9.055385138137417,24.020824298928627,16.0312195418814,15.5,18.0,19.0,9.5,5.5,2.5,3.5,2.0,2.0,2.0,15.0,13.0,15.0
659,908,1.0,32.0624390837628,5.0,7.0,9.0,9.0,10.0,23.0,16.0,15.5,17.0,19.0,8.0,5.0,2.0,3.0,3.0,2.0,2.0,15.0,13.0,14.035668847618199
660,909,0.0,33.015148038438355,5.0,7.0710678118654755,9.0,9.055385138137417,9.055385138137417,21.095023109728988,14.035668847618199,14.0,17.0,18.0,8.5,3.5,3.5,3.5,2.0,1.4142135623730951,1.0,14.0,12.0,14.0
661,910,1.0,33.015148038438355,5.0,6.082762530298219,9.0,9.0,9.0,21.02379604162864,15.0,14.5,17.0,18.0,8.5,3.5,2.5,3.5,1.0,1.0,1.0,15.0,13.0,15.0
662,911,1.4142135623730951,32.0624390837628,5.0,7.0,9.0,10.0,9.0,22.02271554554524,15.033296378372908,14.5,16.0,18.0,8.0,5.0,2.0,3.0,2.0,2.0,1.5,15.0,13.0,14.0
663,912,1.0,34.0147027033899,6.0,6.0,9.0,10.0,8.06225774829855,21.02379604162864,15.033296378372908,14.5,16.0,17.0,8.5,4.5,2.5,2.5,2.0,2.23606797749979,2.0,15.0,12.0,14.0
664,913,1.0,32.01562118716424,5.0,6.0,9.0,9.055385138137417,9.055385138137417,21.02379604162864,15.033296378372908,14.5,16.0,17.0,7.5,4.5,2.5,2.5,2.0,2.0,2.5,15.0,12.0,15.0
665,914,1.0,32.01562118716424,5.0,6.0,9.0,9.055385138137417,9.055385138137417,21.02379604162864,15.033296378372908,14.5,16.0,17.0,7.5,4.5,2.5,2.5,2.0,2.0,2.5,15.0,12.0,15.0
666,915,1.0,33.015148038438355,5.0,7.0,9.0,9.0,9.055385138137417,22.02271554554524,15.033296378372908,14.5,17.0,18.0,8.5,4.5,2.5,3.5,2.0,3.1622776601683795,2.5,15.0,13.0,15.033296378372908
667,916,0.0,33.06055050963308,6.0,8.0,9.055385138137417,10.0,8.06225774829855,22.02271554554524,14.035668847618199,14.0,15.0,17.0,8.0,6.0,2.0,2.0,4.0,4.123105625617661,3.5,14.0,12.0,15.0
668,917,1.0,33.06055050963308,6.082762530298219,8.0,9.0,9.0,7.0,22.02271554554524,14.035668847618199,13.5,15.0,17.0,9.0,6.0,2.0,3.0,3.0,3.0,3.5,15.0,12.0,15.0
669,918,0.0,31.016124838541646,6.0,8.0,9.0,9.0,9.055385138137417,23.021728866442675,15.033296378372908,15.0,17.0,18.0,8.5,5.5,2.5,3.5,4.0,4.0,4.0,14.0,13.0,14.0
670,919,2.0,31.016124838541646,6.0,7.0,8.0,9.0,8.06225774829855,23.021728866442675,16.0312195418814,15.0,17.0,18.0,9.5,5.5,1.5,3.5,5.0990195135927845,5.0,4.5,14.0,13.0,14.0
671,920,2.0,31.016124838541646,5.0,7.0,9.0,9.0,9.055385138137417,23.021728866442675,16.0312195418814,15.0,17.0,18.0,8.5,5.5,1.5,3.5,5.0,4.0,4.5,14.0,12.0,15.0
672,921,5.0,30.01666203960727,6.0,8.06225774829855,8.0,9.0,8.06225774829855,27.073972741361768,19.026297590440446,16.5,19.0,20.0,11.5,7.5,1.5,5.5,3.1622776601683795,3.0,3.5,14.0,13.0,14.035668847618199
673,922,6.082762530298219,29.017236257093817,6.0,9.0,8.0,10.0,8.06225774829855,29.068883707497267,20.09975124224178,17.0,19.0,20.0,11.5,9.5,0.5,5.5,4.0,4.123105625617661,4.0,14.0,13.0,14.0
674,923,6.082762530298219,29.017236257093817,6.0,9.0,8.0,10.0,8.06225774829855,29.068883707497267,20.09975124224178,17.0,19.0,20.0,11.5,9.5,0.5,5.5,4.0,4.123105625617661,4.0,14.0,13.0,14.0
675,924,6.082762530298219,29.017236257093817,6.0,9.0,9.0,10.0,8.0,29.017236257093817,20.024984394500787,17.0,19.0,20.0,11.5,9.5,0.5,5.5,4.0,4.123105625617661,4.0,13.0,12.0,14.0
676,925,8.0,29.017236257093817,6.082762530298219,9.0,9.0,10.04987562112089,8.0,31.016124838541646,22.02271554554524,18.0,21.0,22.0,13.5,9.5,0.5,7.5,4.123105625617661,4.0,4.0,14.0,13.0,13.0
677,926,9.0,29.017236257093817,6.0,9.0,9.055385138137417,10.0,8.06225774829855,32.01562118716424,23.021728866442675,18.5,21.0,22.0,13.5,10.5,0.5,6.5,3.1622776601683795,4.0,4.0,14.0,13.0,13.038404810405298
678,927,8.06225774829855,29.068883707497267,6.0,10.0,9.0,10.0,9.055385138137417,33.06055050963308,23.08679276123039,19.0,21.0,23.0,13.0,11.0,1.0,7.0,4.0,4.123105625617661,4.0,13.0,12.0,14.035668847618199
679,928,9.0,29.017236257093817,6.0,9.0,9.0,10.0,8.06225774829855,32.01562118716424,23.021728866442675,18.5,21.0,22.0,13.5,10.5,0.5,7.5,4.0,5.0,4.5,14.0,12.0,13.0
680,929,9.0,29.017236257093817,6.0,9.055385138137417,9.0,10.0,9.0,33.015148038438355,24.0,19.5,22.0,23.0,13.5,10.5,0.5,7.5,4.0,4.0,4.0,14.0,12.0,13.0
681,930,9.055385138137417,30.01666203960727,6.0,10.0,9.0,10.0,8.06225774829855,33.06055050963308,23.08679276123039,18.5,21.0,22.0,13.5,11.5,1.5,7.5,4.0,4.0,4.0,14.0,12.0,13.0
682,931,9.0,31.016124838541646,6.082762530298219,9.0,9.055385138137417,11.0,8.0,32.01562118716424,23.021728866442675,18.5,21.0,22.0,13.5,10.5,0.5,6.5,4.0,4.0,4.0,13.0,12.0,12.0
683,932,9.0,29.017236257093817,6.082762530298219,9.0,9.055385138137417,10.0,8.0,32.01562118716424,23.021728866442675,18.5,21.0,22.0,13.5,10.5,0.5,6.5,4.0,4.0,4.0,14.0,13.0,14.035668847618199
684,933,5.0,32.01562118716424,5.0990195135927845,9.0,9.055385138137417,10.0,9.0,28.0178514522438,19.026297590440446,16.5,19.0,20.0,10.5,8.5,0.5,4.5,3.0,4.0,3.5,13.0,12.0,15.0
685,934,4.0,32.0624390837628,6.0,8.06225774829855,8.0,9.055385138137417,8.0,26.019223662515376,18.0,16.0,18.0,20.0,11.0,7.0,2.0,5.0,3.0,4.123105625617661,3.5,13.0,12.0,14.0
686,935,4.0,32.0624390837628,6.0,8.06225774829855,9.055385138137417,10.0,8.0,26.019223662515376,18.0,16.0,18.0,20.0,11.0,7.0,1.0,4.0,3.0,4.0,3.5,13.0,13.0,14.035668847618199
687,936,4.123105625617661,30.0,6.0,8.0,9.055385138137417,9.0,8.0,26.019223662515376,18.027756377319946,16.0,19.0,19.0,11.0,7.0,1.0,5.0,4.0,4.0,4.0,14.0,13.0,14.0
688,937,5.0990195135927845,30.01666203960727,5.0,9.0,8.06225774829855,10.0,8.0,27.018512172212592,18.027756377319946,15.5,19.0,20.0,11.5,7.5,1.5,5.5,4.0,3.1622776601683795,3.5,14.0,13.0,15.0
689,938,5.0990195135927845,30.01666203960727,5.0,9.0,8.06225774829855,10.0,8.0,27.018512172212592,18.027756377319946,15.5,19.0,20.0,11.5,7.5,1.5,5.5,4.0,3.1622776601683795,3.5,14.0,13.0,15.0
