,video_id,frame_seq,gap,time_seconds,m1,m3,m4,m5,m6,m7,m8,m9,m10,m11,m12,m13,m14,m15,m16,m17,e1,e2,e3,b1,b2,b3,label_measures
0,76,0,0,0.0,21.33890045971783,178.25043759867754,7.715095743455587,21.82158607080344,46.92909530595468,50.23706379577814,32.95890346378371,83.27301376511409,61.5759379828248,50.02928775232897,1.725147853528597,46.578992045271775,8.62573926764287,56.92987916644324,25.87721780292873,18.97662638881434,22.42692209587161,20.77353104066501,20.70177424234293,93.15798409054366,44.85384419174329,58.5788681126909,{}
1,76,1,0,0.0333333333333333,21.518975369549143,179.7546590340121,9.368603779772624,22.00573427241757,45.66521261161392,48.99056709641415,33.46391397099013,86.07590147819671,64.15718897660742,52.19118141395052,1.7397060471316763,46.9720632725556,8.698530235658382,59.150005602477336,27.83529675410693,19.13676651844844,23.66256049393036,22.682991693612948,21.746325589146068,92.2044204979794,46.9720632725556,62.460050601323104,{}
2,76,2,0,0.0666666666666666,18.814237952922813,178.36781741780004,8.907263741328242,21.607441867693662,47.5196789375846,49.71645423322758,33.60148721657373,82.62103476785926,61.01513172227408,50.65888604856741,1.7468581396058198,45.41831162975007,9.607719767831668,56.77288953718744,25.32944302428359,20.08886860546625,22.09620188143451,21.2514464746808,20.96229767526916,89.0897651198942,45.41831162975007,59.31605941035446,{}
3,76,3,0,0.0999999999999999,21.721249103568,182.71453297132223,7.853334187383508,20.554142558916748,47.2833331881205,51.13720732705279,33.54945835511722,83.05620296822201,62.67925051881873,50.925708369736185,0.0,43.90147273253126,11.41438291045813,58.82797346159191,28.974972003470725,20.194677456964428,22.212583435291982,19.396304620680407,19.31664800231374,86.04688655576126,45.65753164183252,57.92333094284807,{}
4,76,4,0,0.1333333333333332,22.59024013469839,182.0642298243402,9.31240394359438,21.37644174857712,46.95435313026901,49.68107584863266,35.12982562921142,88.15624690902428,66.97863218268945,54.78938010789943,7.30525068105328,49.31044209710944,6.392094345921578,57.52884911329432,26.481533718818014,15.52365769723815,22.590240134698416,20.41879639438962,20.08943937289655,91.3156335131656,47.48412942684615,61.60929840019419,{}
5,76,5,0,0.1666666666666665,21.59010320600016,181.2102339136014,9.55702802700516,20.77227886252105,46.07377625513568,48.276938409852505,34.45835459241361,86.08645502416267,65.44753813872835,53.24086654326857,5.324086654326834,49.69147544038413,6.21143443004803,55.90290987043204,25.7330854959132,16.859607738701698,22.448320383704583,21.59010320600016,21.296346617307336,90.50947312355665,47.91677988894173,59.86803332122837,{}
6,76,6,0,0.1999999999999998,22.269893042909395,181.2347350079993,8.05169682228477,21.0733072574818,46.74146972332248,50.700122594706905,34.631657508453365,85.59071126081903,64.63963188110267,52.2120101436584,5.401242428654314,46.81076771500409,8.101863642981357,56.71304550087029,26.106005071829145,17.10393435740525,20.52787960718148,21.90298337471704,21.60496971461737,88.22029300135387,48.61118185788894,53.7115170745584,{}
7,76,7,0,0.2333333333333331,25.10156360817428,185.72984472410167,7.7573830091367375,20.263747655025355,48.37171703433281,50.65936913756355,38.37403251785527,91.26447030374416,71.22195147341453,57.38397297139943,9.40720868383596,52.68036862948145,6.585046078685082,57.38397297139932,27.28090518312422,15.992254762521044,21.035158095583565,21.035158095583565,19.75513823605548,79.02055294422212,50.79892689271424,62.5420212719316,{}
8,76,8,0,0.2666666666666664,25.141086202780407,190.5858376592236,8.42731124204483,23.30879119544312,48.92197532560375,52.56102604177861,36.588508912226594,93.23516478177234,69.92637358632923,55.58992037404357,3.768808160952176,50.878910172853466,8.479818362142282,63.12753669594781,29.208263247378795,17.901838764522495,23.308791195443145,19.217226355682502,19.786242844998583,96.10460810427878,52.763314253329554,63.5689688797124,{}
9,76,9,0,0.2999999999999997,18.33656296369305,177.49747777671195,9.682784434600984,22.743707204799776,46.68003926596344,48.91219178851704,34.586142496357326,85.04215492783952,62.41583543001526,52.14338997228288,7.192191720314781,48.54729411212543,6.29316775527559,54.84046186740113,22.475599125984104,18.879503265826656,22.24062460691333,20.102786992294075,19.77852723086596,91.7004444340148,50.345342042204265,58.89807834774556,{}
10,76,10,0,0.333333333333333,23.42388711953153,167.1999942372431,7.316393139022708,19.14883335006211,46.56124082186672,48.641635442914456,29.49332363734167,78.61293347025615,59.7082233064383,47.443861986006254,1.6359952408968184,45.80786674510944,7.361978584035341,54.8058405700416,25.35792623389977,17.177950029416024,18.29098284755664,17.080291762081192,15.54195478851932,93.25172873111568,37.627890540625685,56.7904826183528,{}
11,76,11,0,0.3666666666666663,24.25188027283511,168.8783753873293,6.86755182995009,22.65496258497757,46.904453339730026,48.50376054567022,31.690695485112634,84.93059351657902,62.43320747833422,49.9687792663907,3.331251951092668,46.63752731529803,6.662503902185449,58.29690914412265,24.98438963319541,16.65625975546368,19.49565220726973,18.991058047247336,18.32188573101007,93.27505463059606,39.97502341311258,59.80038000501855,{}
12,76,12,0,0.3999999999999997,27.70656188922549,182.74630212593544,8.100087430790547,20.25021857697637,50.52013556427735,53.27000806001452,32.802853972448816,87.85888195205986,68.20446775541467,53.431421050871,3.622469223787789,47.092099909242165,7.244938447575805,59.770742192499824,28.979753790303,16.301111507045448,17.838592138234734,14.935823235226632,13.58425958920452,88.7504959828027,50.71456913303007,53.63823830576349,{}
13,76,13,0,0.433333333333333,30.804282324164728,178.11278027198227,6.08640229229319,21.352511756737407,47.53632153081975,49.647459712720334,30.57214425844706,88.07102255251938,66.88655136520939,50.641928187610006,0.0,45.57773536884906,7.596289228141472,63.302410234512536,32.91725332194653,16.03661059274316,12.8559144906765,12.289293407028484,10.128385637521887,97.90772782937928,52.32999246053032,61.90847705194357,{}
14,76,14,0,0.4666666666666663,28.689310286434026,181.03566746188287,8.94975145255483,23.147966251715616,45.2093054909532,48.87874305944612,30.098780333006253,90.31163379970424,67.48733883862829,52.35070436135607,4.985781367748245,43.21010518715104,10.802526296787732,68.9699755871834,35.73143313552873,20.774089032284223,9.40127950572881,8.30963561291378,6.647708490330842,98.05370023238127,58.16744929039567,74.32364039491237,{}
15,76,15,0,0.4999999999999996,29.41379824753793,182.5971659812312,9.069851751650353,25.037866898593133,44.2090111110435,49.53466648837853,32.177153461077324,95.185028757125,70.35563792339224,54.73744861774924,0.0,45.47418808243788,9.26326053531136,69.89551131189523,36.2109275471264,21.05286485298052,7.145579280454282,9.820659376512609,8.421145941192208,101.0537512943065,65.68493834129924,80.03190570219684,{}
16,76,16,0,0.533333333333333,28.113094954900387,178.58421535290603,10.299841061803887,28.441365736818327,43.45507704505772,47.00272403632193,29.718209789695617,96.45623806313196,68.02965101570531,52.92780560116955,3.257095729302705,42.34224448093562,6.514191458605524,71.65610604466042,34.199505157678914,17.91402651116516,9.495984257235248,9.495984257235207,7.328465390931115,97.7128718790824,66.7704624507063,75.19589410590103,{}
17,76,17,0,0.5666666666666663,20.30470018215432,177.3848421334366,11.950574964377902,30.268459913366208,43.80168952742191,48.97177765632806,31.57560843086717,94.01297318062562,63.74579422377616,52.52920693177748,8.207688583090317,42.679980632069146,5.745382008163233,66.4822775230308,28.726910040815824,18.87768374110749,12.5015787944809,14.025304398864584,13.13230173294437,98.49226299708248,72.22765953119381,77.43117923066944,{}
18,76,18,0,0.5999999999999996,21.66341787586915,178.70944149202464,11.646325601607154,30.36990154950816,41.991424127343535,45.22614788240578,33.309305639003675,96.9377348264961,66.61861127800725,55.17581191897955,13.176313294084707,42.82301820577516,4.941117485281779,67.52860563218383,29.64670491169045,18.117430779366373,15.625185439973825,16.796569650937474,16.470391617605856,95.52827138211376,77.41084060274738,77.56837554588415,{}
19,76,19,0,0.633333333333333,21.86386979878292,178.6856576088868,11.587827817722488,33.141997886389376,43.10921141588261,46.61130820055272,33.14199788638948,99.68226402653367,66.54682795989898,54.89867191519579,14.748896932440744,39.33039181984179,5.735682140393578,71.28633517346304,30.317177027794628,17.207046421180735,15.10867899607412,16.469397746639974,16.387663258267366,91.77091424629737,73.74448466220326,73.81728278917187,{}
20,76,20,0,0.6666666666666663,23.38538651770926,177.48260486245127,13.16813590672257,29.580434143741908,41.12560034923383,44.37065121561281,34.45463292499997,100.48484427102656,70.9125820604464,58.79902472009837,19.59967490669942,39.19934981339895,4.899918726674741,70.23216841567307,34.299431086723985,16.33306242224944,19.87002802141637,19.66761159188371,20.416328027811915,86.56523083792268,81.66531211124783,84.94762801167658,{}
21,76,21,0,0.6999999999999996,24.22363589656713,170.43214404387254,12.90560198650662,29.210817110516714,38.71680595951996,41.74226830134657,32.17453443669774,98.4814718669426,69.29571530503267,56.826373557416105,22.410400839544423,38.41783001064755,1.6007429171102103,67.23120251863315,32.01485834220625,14.406686253992689,21.05448584970528,20.87113415067333,20.8096579224341,83.23863168973634,80.03714585551569,81.65358082251095,{}
22,76,22,0,0.733333333333333,21.42855167978258,171.69142365820443,13.134890165481533,29.729792906348607,39.23591310215137,44.25862813205262,34.367644924656375,98.6160265108714,68.90883974224104,57.83598285145354,24.43773923300853,39.100382772813646,2.443773923300796,65.98189592912297,31.76906100291103,13.848052232038183,19.617956551075693,21.1793740019408,21.1793740019408,79.82994816116121,81.45913077669513,79.97942702574518,{}
23,76,23,0,0.7666666666666663,14.689170476870926,174.05423598990856,17.91720489907521,31.2026304082848,38.9653203855339,43.91797753682525,32.60476148016351,96.37795292518148,65.20952296032704,57.58623669497263,24.332212688016625,37.30939278829214,1.6221475125344114,64.88590050137759,29.19865522561986,16.22147512534434,18.13616053779604,21.0879176629478,21.0879176629478,77.86308060165317,77.86308060165317,79.55141066363382,{}
24,76,24,0,0.7999999999999996,21.853235174332404,174.11851720038612,13.10375381619292,29.66488439024126,39.34537100939821,42.86975722166408,32.92277400563176,97.31798115473453,67.65427613894501,56.50993833233201,24.56953840536164,37.67329222155456,1.6379692270242003,65.51876908096472,31.12141531345821,13.10375381619292,21.35650584892716,21.29359995131358,21.29359995131358,76.9845536701335,76.9845536701335,75.36438635344473,{}
25,76,25,0,0.8333333333333329,21.62458926341134,172.9107568846846,14.796783693190491,31.280889992002056,41.135045524884646,44.42078670267379,34.6820548841683,102.26433075030384,71.00096211238429,60.00917831127265,27.94948030935984,37.8140027714868,1.6440870770211404,69.05165723488892,32.88174154042326,14.796783693190491,21.62458926341134,23.017219078296307,23.017219078296307,73.98391846595246,75.62800554297365,75.69945384000704,{}
26,76,26,0,0.8666666666666663,24.99147543194776,172.14286259926715,14.863348636422756,31.551541886970387,41.41898748407116,44.7122106475407,33.19440113542331,104.5142276577654,72.96491182826976,60.279136136603256,26.42373090919591,37.98411318196918,0.8257415909123438,71.83951840937652,35.50688840923203,14.0376070455103,21.721869833742428,21.46928136372173,22.29502295463408,74.31674318211367,74.31674318211367,77.68995364117563,{}
27,76,27,0,0.8999999999999996,32.733844761412875,168.7136533452789,14.656905597668048,27.70570301813637,42.207518627881946,45.34925875825175,32.412128406207415,107.42573179756512,79.72247311475213,63.124793654732,29.134520148337856,40.46461131713591,2.427876679028145,72.02700814450179,39.65531909079312,10.520798942455372,21.289154611495853,21.04159788491063,22.660182337596098,72.83630037084453,74.45488482353,76.09068631146498,{}
28,76,28,0,0.9333333333333328,28.277516333640754,167.25125468231593,16.602295467131093,31.561227371687213,41.33278017913173,44.6343157941811,33.08107683875105,109.48096517518204,77.92421920952827,63.60162051570319,31.38781272203528,42.951743724890434,4.129975358162483,71.86157123202827,35.517788080197874,10.737935931222635,21.539316230688787,21.47587186244516,22.30186693407768,74.33955644692577,74.33955644692577,76.00950088378816,{}
29,76,29,0,0.9666666666666662,34.56778283755847,165.79745931754638,14.838788530230357,31.306747585898385,39.46440108194432,42.731287251010656,32.93686062426352,113.64859149846356,82.34215156065878,64.72746746856285,32.77340124990519,42.60542162487684,4.916010187485767,75.37882287478203,39.32808149988625,9.832020374971648,21.365643625505324,21.302710812438363,22.941380874933657,72.10148274979139,72.10148274979139,75.39663240199435,{}
30,76,30,0,0.9999999999999996,37.85365800082847,163.5980562243926,14.77827154928314,29.55654309856628,40.93002773624436,44.09386278413986,32.68051580774187,114.8088701804194,85.25473014180753,66.09547673740099,31.00775451878076,42.43166407833155,4.079967699839585,77.51938629695178,41.61567053836359,8.97592893964702,19.65172677441437,21.21583203916566,22.847819119101587,71.80743151717644,73.43941859711231,68.56288302224279,{}
31,76,31,0,1.0333333333333328,37.83576378442597,167.67594316519163,14.840407526805825,31.310163330858025,37.83576378442598,42.735949478495336,32.940454223865515,116.92241905707183,85.61318789365757,66.37337845569095,31.13812816439816,44.24891897046052,4.916546552273417,78.66474483637444,40.97122126894499,8.194244253789066,21.36797473924773,21.30503505985144,22.12445948523032,72.1093494333432,72.1093494333432,65.55395403031207,{}
32,76,32,0,1.066666666666666,32.65555255758964,158.00324596595905,17.945115980155713,34.46454990199647,37.50852263365878,40.74662823860513,31.039362034564043,116.08182502710454,81.63888139397388,64.98697852331702,35.742838187824304,47.11555942940481,10.560384010039002,73.92268807027313,34.93050095628291,5.686360620790197,21.183163334803144,21.18316333480304,21.93310525161951,69.86100191256588,69.86100191256588,73.12840054912617,{}
33,76,33,0,1.0999999999999992,23.36649898810008,155.45908373925587,19.58384495922985,36.051772946553015,39.201674905260056,42.46303684718569,32.8025343372627,111.56156725001232,75.51357822309079,63.64749611749721,37.535702838524,48.9596123980748,10.60791601958283,67.72746381733691,28.559773898876983,7.343941859711208,19.65172677441436,19.583844959229964,21.21583203916566,68.54345735730476,70.17544443724057,68.62112702228787,{}
34,76,34,0,1.1333333333333324,23.660770282999767,160.9848676141461,18.17793866558077,34.860366930696486,41.44548930660439,46.389004989528296,33.21564047953647,109.67935933049746,74.82192528830605,62.796515390188006,34.7033374524724,49.57619636067477,9.088969332790498,66.92786508691074,27.26690799837104,7.43642945410113,21.546483903687296,23.13555830164819,23.13555830164819,71.05921478363376,72.7117546623229,67.77428495533324,{}
35,76,35,0,1.1666666666666656,21.95489541110328,157.03092696997186,18.1761244133157,34.713737644932465,39.63103077541102,43.069185344534354,34.59652716630953,109.2180272351223,74.50721014241208,63.35517588096502,37.84854663018689,52.6588474854774,10.696328395487626,63.35517588096502,22.21545128293576,7.405150427645253,19.81551538770545,21.39265679097514,21.39265679097514,67.4691483407679,67.4691483407679,70.77945847776039,{}
36,76,36,0,1.1999999999999988,25.480945417238097,157.2957513257356,16.740495008838767,30.167861856820576,40.11636791227247,43.437224276306935,35.1388556827103,107.4370992705361,77.27317240964565,64.13104819782905,38.31205476753416,53.303728372221485,10.827319825607448,60.79956517456526,25.81899343029488,4.164353779079875,20.058183956136343,19.98889813958317,21.654639651214893,69.96114348854081,69.96114348854081,74.97687397805097,{}
37,76,37,0,1.233333333333332,18.99880119519812,155.85966211088387,16.746158947035937,31.83471413192174,41.7907191639837,43.61137784635185,36.696563109298246,103.96729003375596,72.13388371662361,62.48644104550704,38.32501717457762,54.98806812004614,9.997830567281085,56.65437321459308,19.995661134562283,6.665220378187428,20.06497039310941,21.66196622910911,22.495118776382583,68.31850887642105,71.6511190655147,73.39312621859648,{}
38,76,38,0,1.2666666666666653,18.913655747128114,156.81058823085056,18.322457341479964,30.042822076348244,43.25718563075716,45.06423311452231,34.993212122637466,102.0555777895062,72.0210553862731,62.2064004278667,36.49442158434852,53.0827950317796,9.953024068458603,56.40046972126595,21.56488548166056,6.635349378972478,21.56488548166056,21.56488548166056,21.56488548166056,69.67116847921085,71.33000582395397,71.34929202298797,{}
39,76,39,0,1.2999999999999985,20.346290557658428,157.77906853358704,16.807962536524503,30.289444346105967,40.17374245551088,41.9449525293666,35.478123517851934,102.8933545526849,72.61227801191605,61.88082691734269,38.466459975645535,51.84609822804396,10.034728689298843,56.86346257269338,23.414366941697267,5.017364344649423,20.069457378597576,21.74191216014742,21.74191216014742,66.89819126199217,68.57064604354196,73.66399183371657,{}
40,76,40,0,1.3333333333333317,17.39311430804206,158.97466744934937,16.742672766414888,31.697016612195927,40.12158661841595,41.78201925878438,35.143426868278,100.63545949006856,69.0318082710808,59.97449543795551,36.65108054541725,51.64470440490618,9.162770136354313,55.809599921430845,20.824477582623445,7.496811929744467,21.657456685928423,21.72143749499643,21.657456685928423,66.638328264395,69.97024467761474,75.04212535623272,{}
41,76,41,0,1.366666666666665,26.41943559543255,156.0760441055071,14.83692111551171,28.04598333466048,40.9943522055378,44.35972536997191,34.44672961556809,103.69029777346088,75.65375028963138,62.26162595944709,39.3231321849139,50.79237907218044,10.650014966747449,58.16546635685188,27.0346533771284,2.457695761557148,21.36295482666601,21.300029933495125,21.300029933495125,67.17701748256138,70.4539451646375,70.62520416315448,{}
42,76,42,0,1.399999999999998,27.116307227331976,162.27092621944152,16.65741511631927,28.366555787342307,41.77658457638588,46.75959248599333,33.48099001767742,105.41656704813091,77.07542754751032,63.29817744201307,36.64631325590233,51.63798686058965,10.82731982560756,60.799565174565146,27.48473494192672,5.830095290711711,23.32038116284696,23.32038116284696,23.32038116284696,68.29540197690886,71.62688500017276,76.69649888473711,{}
43,76,43,0,1.4333333333333311,36.65374113697225,164.6745603446862,13.273895196340504,31.69967645597221,43.172055998296536,46.57699932345626,31.56913502373653,113.13270480213946,81.45484444780881,63.05100218261737,36.50321178993636,48.11787008673434,10.785039847026724,70.51756823055894,34.014356440622464,0.8296184497712602,21.570079694053334,21.63380237259773,21.570079694053334,66.36947598170258,71.34718668033031,74.73936796081807,{}
44,76,44,0,1.4666666666666646,47.32440133908329,173.29932179447604,13.444310130064425,30.29634346074189,45.49886074847208,50.5280746970048,26.941085910525235,117.93742804391404,87.6461789362061,63.86047311780578,33.610775325160944,42.01346915645115,10.923501980677315,79.82559139725731,44.53427730583826,0.840269383128998,20.166465195096634,20.236366497223145,20.166465195096634,67.22155065032189,72.26316694909605,72.34128931455757,{}
45,76,45,0,1.4999999999999978,47.07386948643863,178.10260061096676,13.44110759290038,31.96681412595633,45.39484113834966,52.11138388370844,27.09141845914378,119.47899128214196,87.51247516674098,63.84526106627664,33.60276898225084,35.28290743136347,7.560623021006563,84.84699168018346,47.88394579970748,4.200346122781298,21.906325237055903,21.84179983846309,21.84179983846309,67.20553796450184,73.92609176095203,73.94518177850993,{}
46,76,46,0,1.533333333333331,48.44435494509422,179.9859391477347,13.332291788721136,30.04391353980089,46.69277135679465,51.66263068129422,25.053536732848965,116.84785923728136,86.80399632337414,62.49511775963015,31.664192998212684,31.664192998212684,6.666145894360625,84.99336015309689,51.66263068129422,4.999609420770412,18.33190120949144,20.06775656574264,19.16516944628654,68.32799541719561,74.99414131155618,68.40924157599996,{}
47,76,47,0,1.5666666666666642,51.98342989252256,180.73557535302865,13.491429016688064,30.167752394927664,46.8852356088258,50.202174519421646,23.42768144239676,119.00021641904502,88.83247631866978,62.75271814927703,31.794710528967016,30.12130471165301,7.530326177913253,87.8538054089878,52.712283245392655,2.510108725971122,20.08086980776864,20.150474417888383,20.08086980776852,66.9362326925621,75.30326177913236,72.13136142249996,{}
48,76,48,0,1.5999999999999974,50.67119451145204,183.19166027424137,15.125916903377744,26.94298829447806,48.73906557755038,53.80729174300726,25.26582131145754,117.9457559291112,91.00414709558926,65.54563991463681,30.251833806755485,30.251833806755485,5.041972301125952,87.39418655284896,55.4616953123849,6.722629734834527,20.16788920450369,20.237795442552844,20.16788920450358,65.54563991463681,73.94892708317997,70.66759820427478,{}
49,76,49,0,1.6333333333333306,50.88499322158864,185.68303962739765,13.501989514417003,30.379476407438347,48.944711989761686,52.32020936836602,25.37242625848928,120.02017514811835,89.70507331266707,64.13445019348092,32.06722509674046,28.69172771813612,5.063246067906334,89.45068053301293,55.69570674697036,5.063246067906448,18.565235582323453,18.641793579626672,19.40910992697445,67.5099475720852,77.63643970789798,69.3826896900617,{}
50,76,50,0,1.666666666666664,48.56271183023394,189.1221225634071,15.062234135590984,28.500067181002613,48.53386554801523,51.88102868925762,25.1594477645316,117.258247973114,88.76295479770904,64.43289046891687,30.124468271181968,28.45088670056066,4.183953926553045,87.86303245761383,54.39140104518958,5.85753549717424,18.40939727683337,18.40939727683337,18.409397276833488,65.26968125422741,76.98475224857594,65.46250200297993,{}
51,76,51,0,1.699999999999997,45.121721203038206,183.33454326215283,13.332870394481574,28.33234958827336,48.33165517999589,53.357515985910126,25.054624026834503,111.77466991649764,83.4803000045816,60.83122117482242,29.998958387583684,28.33234958827348,4.166521998275584,82.49713556585493,49.16495957965094,5.833130797585568,16.666087993101996,18.40829586280215,18.332696792412207,63.33113437378768,74.9973959689591,65.33871728030023,{}
52,76,52,0,1.7333333333333305,45.79038890818667,183.0360595196006,13.558226631081538,25.478104913774576,47.45379320878533,52.53812819544101,27.16936346518139,111.97086314937924,86.50013113558495,63.554187333194704,32.20078824881864,32.20078824881864,5.084334986655563,79.65458145760397,49.14857153767059,5.084334986655563,16.947783288851838,17.032311410667344,18.6425616177371,62.70679816875213,76.26502479983367,64.75738902029612,{}
53,76,53,0,1.7666666666666635,47.266900444383616,194.0155570011377,13.496224155503,28.729051953151185,47.23678454426056,52.29786860257423,25.305420291568225,114.76751306693626,86.05496689229989,62.42003671920156,26.992448311006115,25.305420291568225,0.8435140097190015,88.56897102048856,56.51543865116889,9.27865410690822,16.87028019437878,16.954421764696576,16.870280194378665,62.42003671920151,75.9162608747045,62.78373993830224,{}
54,76,54,0,1.7999999999999967,47.567863883231055,181.3152437110056,13.55627990362666,30.50162978315973,45.75244467473965,49.1415146506464,25.41802481929983,116.97202081276237,86.4877112089441,62.69779455427306,30.50162978315984,30.50162978315984,5.083604963860012,86.4212843856194,50.83604963859966,5.083604963860012,18.71675069819953,18.71675069819953,19.48715236146313,62.69779455427295,77.94860944585287,66.17370670237462,{}
55,76,55,0,1.83333333333333,47.75333778208866,183.7312354683397,13.609137776199988,30.62055999644997,45.93083999467501,51.03426666074995,25.573775205465587,117.48970499615208,86.9082244867628,62.942262214925,32.32170221847491,30.62055999644997,5.953997777087579,85.90768221226244,51.88483777176248,4.2528555550624105,17.011422220249983,18.789729983846293,17.86199333126251,61.2411199929,76.55139999112498,63.148818963369216,{}
56,76,56,0,1.8666666666666631,42.3824223871543,176.169997461937,13.656999298608154,30.49096109918139,42.34855708219641,45.73644164877214,28.84679762368837,115.20053004819876,84.71405189362211,63.52283562329456,35.57278794904494,35.57278794904494,6.775769133151471,79.61528731452927,45.73644164877214,3.387884566575736,13.551538266302828,15.339299776947357,13.551538266302828,62.67586448165071,79.61528731452927,71.32683880561984,{}
57,76,57,0,1.8999999999999964,36.99207520141111,171.3400416985396,13.542364668945051,31.914748541034555,41.99309018557176,45.352537400417646,28.60466229877173,110.87448253851274,78.96487692707119,60.47004986722334,35.27419575588033,36.95391936330316,7.55875623340296,74.74770053031784,39.47350477443752,2.519585411134358,8.398618037114375,10.217359820489186,8.398618037114375,60.4700498672234,78.94700954887497,67.52405332984144,{}
58,76,58,0,1.9333333333333296,33.78270976232907,175.4833538690982,15.18325217494089,30.366504349881893,42.17570048594701,45.54975652482278,28.679476330444004,107.98297234608674,77.62162398923448,60.73300869976367,33.74056038875767,37.11461642763334,6.748112077751557,72.54220483582878,37.11461642763334,5.061084058313554,8.602188791091585,10.26179082419988,9.27865410690822,60.73300869976367,79.2903169135804,64.46125011212554,{}
59,76,59,0,1.9666666666666628,30.55113132934004,176.25402012271917,15.2520466889589,30.50409337791791,40.67212450389047,45.75614006687681,29.00810954369924,105.19258343352864,74.73867934039397,59.31351490150689,35.588108940904135,37.28278079523295,7.626023344479449,68.63421010031516,34.74077301373973,5.931351490150746,8.473359271643858,8.641164854358884,7.626023344479563,61.00818675583565,81.34424900778083,71.49828386094529,{}
60,76,60,0,1.999999999999996,33.65068370691474,176.44567004987823,16.804349528559783,28.61677607499185,40.33043886854364,45.37174372711161,28.61677607499185,107.66592773181432,79.05191831269077,62.17609325567128,36.969568962831545,36.969568962831545,8.402174764279835,70.57826801995134,38.65000391568765,5.041304858567969,10.22168676583587,10.22168676583585,10.082609717135938,58.81522334995941,80.66087773708722,67.74049859587433,{}
61,76,61,0,2.033333333333329,41.7476353770281,171.46056517083,15.07347847692404,28.297982934872262,39.95009355511377,46.608442480966005,28.34689910437245,113.24087960415068,84.95920165729842,64.08660841132837,39.95009355511377,38.28550632365068,10.8198170045099,74.0741318001069,44.11156163377154,2.4968808471946886,11.770409192440791,13.726537956753456,12.484404235973102,58.26055310120762,81.56477434169068,67.10165652290999,{}
62,76,62,0,2.0666666666666624,43.79422943770578,175.20930693807426,15.159540959205856,32.003475358323385,43.79422943770578,47.19308518658171,28.6841866804892,119.60379557115402,87.60465346903713,65.69134415655867,43.79422943770578,40.42544255788221,13.475147519294069,77.48209823594095,42.109835997794,0.0,11.91046023547736,11.910460235477393,12.632950799338118,53.90059007717633,79.16649167585274,69.79570347906318,{}
63,76,63,0,2.099999999999996,55.40505354622629,184.78937798698428,15.10353615060228,28.528901617804195,43.66469835526725,50.37308224840195,26.85073093440394,125.87398856238288,97.34836555089107,69.64408336111023,41.95426708500622,33.563413668004955,10.90810944210159,88.10396087851291,56.21871789390832,0.8390853417000699,15.196481865720454,15.196481865720454,15.103536150602167,55.37963255220808,82.23036348661202,71.19875221324656,{}
64,76,64,0,2.133333333333329,51.793899386549406,190.72741141732425,15.12160881453298,30.10459252510665,48.54219686898237,51.87459624055254,25.048535071435825,121.9143078317077,91.84462859526468,65.96114235478103,41.74755845239304,30.05824208572301,10.8543651976222,85.99997041192967,52.60192365001524,0.8349511690478266,13.463183064214109,12.157072525703294,12.524267535717968,55.10677715715883,83.49511690478607,71.10333559998227,{}
65,76,65,0,2.166666666666662,48.44202211979313,190.78217971693263,15.11726214303598,28.429237840424417,46.86291794010479,51.9938629422875,26.762875856766943,118.57600198164116,90.16426202970382,65.94218197689463,43.40498054175339,30.049601913521656,10.016533971173883,81.80169409791984,51.75209218439829,1.1368683772161605e-13,13.45931310336527,13.76640918857915,14.190089792496336,53.42151451292733,83.47111642644899,74.37833863644283,{}
66,76,66,0,2.199999999999996,48.331235668973136,189.2153474330038,15.091653558090927,28.38107881895124,46.783532334200025,50.24719728499254,25.054406556712383,116.76869239506134,88.39236765013696,64.16388183639526,46.66464133556019,28.332103668018704,12.499457500596575,79.16323083711109,50.83112716909238,2.499891500119361,15.09165355809094,16.99599405463073,15.832646167422126,49.99783000238602,83.32971667064334,70.96248295143786,{}
67,76,67,0,2.2333333333333285,43.67666497718858,194.0669952865883,13.543558870468424,28.607184733525905,47.30561742446337,52.18428990490102,27.087117740936865,112.75180918791963,84.14463912504925,62.155254005999154,45.35653670708052,26.877947678269948,9.239294514405287,76.43416371008016,47.876344301918266,0.8399358649459145,13.852577159666474,13.852577159666527,13.438973839134915,50.39615189675612,83.99358649459356,73.47398690874475,{}
68,76,68,0,2.2666666666666617,54.80009689410451,193.65862352871807,11.742278825303394,23.30775796433464,46.76317393523588,51.90565411107182,25.12957407142328,114.77439366664944,91.46926192354285,63.93344637645532,43.17583391656717,23.24852595507457,8.303044983955147,81.36984084276139,58.12131488768671,1.6606089967909838,13.69373259324088,15.753920198480833,14.115176472723933,48.15766090694041,84.69105883634342,66.11226248400551,{}
69,76,69,0,2.299999999999995,52.03199245558904,199.44635839871395,13.84086456811189,25.39957816531233,45.597070760324506,52.27507082632718,25.17677054302692,116.00758433178122,90.69851751650354,64.62037772710244,45.31818697744848,21.81986780395664,8.39225684767564,82.24411710722143,57.0673465641944,1.6784513695350824,15.474557020833291,15.474557020833268,15.106062325816197,48.67508971651876,85.60101984629159,65.1792612096876,{}
70,76,70,0,2.333333333333328,50.3075011246674,197.59885918118675,13.519734691329653,25.376354464004617,49.091002589103255,52.41538410738279,27.039469382659192,116.0106440891844,90.69313742272536,65.39975146206768,46.953667716356335,23.47683385817811,8.384583520777937,80.49200179946786,55.33825123713416,1.6769167041555877,13.82820939319226,15.460408105139448,14.253791985322437,45.27675101220069,83.84583520777909,72.39931294776274,{}
71,76,71,0,2.3666666666666614,44.8592568025731,199.27753296273715,13.395070027387384,26.79014005477467,48.63833739410631,51.93206498949053,25.1423606191873,109.97018018536843,83.2220943024772,60.64306938125617,44.8592568025731,19.937447467810216,7.476542800428888,77.25760893776464,52.335799603001874,0.8307269778254067,15.045105457700451,13.700700302497472,14.122358623032198,46.52071075822391,84.73415173819353,69.40424364241022,{}
72,76,72,0,2.3999999999999946,48.50500463479011,193.7675244037088,13.792500515883829,25.14448656928116,45.65272324653593,48.76385322150164,25.14448656928116,112.26282073484204,87.11911387948822,62.72198875188394,48.50500463479023,25.088795500753577,11.708104567018268,75.26638650226073,51.85017736822408,5.01775910015067,15.42048436660848,13.792500515883743,14.216984117093716,43.4872455346395,81.95673196912827,68.5760410353931,{}
73,76,73,0,2.433333333333328,52.61691679310247,193.65842941884537,13.552453307966726,24.87031033599675,46.48453135052405,49.7406206719936,24.70686731463531,115.46518051168678,90.62993602063548,64.0955783095568,47.66081464043975,24.652145503675683,11.504334568381978,78.88686561176235,55.87819647499839,4.9304291007350685,10.394257200199185,11.964688551552776,10.682596384926114,47.660814640439696,85.46077107940914,63.8210777834782,{}
74,76,74,0,2.466666666666661,55.61690957531641,202.0522225922689,15.254589675354316,23.823666556671544,49.315565219835776,54.32631828734632,25.32490492913892,119.9019363654898,96.15439598289088,68.22579850854618,50.53762852484897,25.268814262424485,12.634407131212242,81.70249944850582,58.11827280357636,4.211469043737338,7.533704853546332,8.422938087474881,6.738350469979878,47.16845328985903,89.28314372723315,79.30096681185223,{}
75,76,75,0,2.4999999999999942,55.31797725445018,199.5221692280724,15.17259860590547,27.01716134791493,50.959353400975125,54.26762140812796,23.517229399049608,120.92893305608972,93.9644048390381,66.18356213356356,50.26599655713676,23.45746505999716,13.404265748569856,83.77666092856134,58.64366264999296,5.026599655713653,7.493212350568512,8.377666092856133,7.5398994835705935,46.91493011999438,92.15432702141749,82.15240353119144,{}
76,76,76,0,2.5333333333333274,54.94470112854007,200.0536548015556,15.343414912375078,25.45777800815228,52.25778814311039,55.32146920728715,25.01881789307081,120.38931233978064,95.09422847154131,67.40119393422322,54.91949135381151,26.62763217154497,15.810156601854828,79.05078300927414,55.75160485917229,7.489021548247024,7.442649451929363,9.704027641619616,8.321135053607804,43.26990227876058,93.19671260040737,78.7128356888027,{}
77,76,77,0,2.5666666666666607,54.6433192944443,197.56080032752263,15.259253447618644,25.31813739367057,48.706034227480174,51.971144523018346,25.046183885283728,119.90042894523717,94.7028744740054,67.03148593634694,56.27334621816783,26.48157469090245,16.5509841818141,77.78962565452605,54.61824779998642,8.27549209090705,9.650799257650352,11.10273771751802,9.93059050908846,41.3774604545352,94.3406098363402,76.67233373725949,{}
78,76,78,0,2.599999999999994,53.26144281824748,198.83421392560427,15.337707709987036,25.448308623906858,50.8966172478138,53.88138349342288,25.00951178631161,118.6888400515603,93.3994026694676,66.54431910832454,56.56267124207591,24.954119665621647,15.804275788227072,77.35777096342736,54.06725927551384,9.149843877394574,8.958803134421997,12.669660895330086,10.813451855102755,41.5901994427029,98.1528706847788,81.12541275894338,{}
79,76,79,0,2.633333333333327,55.94534821544649,198.2031343523993,15.163755201647946,23.54909557953064,48.7076412391804,53.27028814666793,25.15968680363114,119.34287327393368,95.90400863686722,67.43434734194238,55.92116608844003,24.67110268607655,15.625031701181683,78.12515850590898,56.74353617797601,9.04607098489464,9.590400863686671,11.033252537188964,9.86844107443062,37.82902411865069,93.75019020709072,77.03988280817117,{}
80,76,80,0,2.6666666666666603,57.65981482303403,198.4691011395093,15.163755201647922,21.943570941946508,48.40121323129746,53.27028814666792,25.15968680363114,119.55801786645092,97.72026916656128,68.25671743147836,57.56590626751188,24.67110268607655,16.447401790717663,77.302788416373,57.56590626751176,8.223700895358888,11.033252537188964,11.033252537188964,10.690811163966488,37.82902411865064,97.03967056523425,80.65937308986803,{}
81,76,81,0,2.699999999999993,52.3996803017585,200.4335578467616,14.799226128993892,23.39963108774862,48.39849718652974,51.31809630673182,25.00000000000002,115.34276306493182,92.04467514322728,65.37204504606143,57.20053941530375,24.51451689227304,16.343011261515358,73.543550676819,52.2976360368491,8.171505630757679,12.446466563427895,13.963474942815346,12.257258446136577,37.58892590148525,93.15516419063744,78.58252779857409,{}
82,76,82,0,2.7333333333333267,46.346520167023975,203.14763533702944,15.25076981184724,22.49925652967243,48.98714169007708,53.856141563066096,25.30406135405339,108.7865888613943,86.5879753097,62.85877307004819,56.24206011530623,21.50431710291128,14.060515028826558,68.64839690544727,50.45243627990703,5.789623835399198,12.59784614248624,14.13330506675146,13.2334259094838,38.04609948976599,97.59651608244316,81.12222307755198,{}
83,76,83,0,2.76666666666666,41.08522654667738,202.7965698292412,14.83430791895016,23.455100268077377,50.11852575820684,53.33512238211888,26.41478239429186,105.65912957716736,82.31728813111638,61.43157231576913,55.69795889963064,21.2962784028,12.286314463153872,66.34609810103052,46.68799495998451,5.733613416138496,12.4759711011565,13.996575571911398,13.924489724907689,39.3162062820922,96.6523404434767,79.26127792704541,{}
84,76,84,0,2.799999999999993,35.81935726598922,201.9251939103103,16.58683746660627,24.8802561999094,49.76051239981878,52.67865324701938,25.249654546686923,102.14459070424898,77.28743392178451,58.55303624608882,55.30008978797275,17.89120551963822,12.198549217935124,64.24569254779192,41.47506734097965,4.0661830726450034,12.38685107526774,13.896593360730428,13.01178583246417,39.03535749739257,95.96192051442335,79.76354725967272,{}
85,76,85,0,2.8333333333333264,32.50866864627967,198.90980560535704,16.49396888454355,24.740953326815447,47.59567028250713,49.481906653630894,26.674295211201148,100.25064639854988,75.51561229628157,58.225201753070905,54.99046832234478,19.40840058435697,11.32156700754149,61.45993518379714,40.434167884077056,1.617366715363005,13.81878727361404,15.34368789687774,14.556300438267726,33.964701022624695,93.80726949105866,82.88116789415069,{}
86,76,86,0,2.86666666666666,31.270818724177737,206.423746702844,15.0904531929762,25.03806418735064,48.47218716510563,49.78100798399272,26.64500197165173,97.94786641378278,72.92443538471616,56.46923636729741,52.37726271749318,14.731105139294982,7.365552569647434,63.016394206984046,41.73813122800243,0.8183947299608008,11.916007133845838,13.98473527586694,13.912710409334125,34.37257865835488,96.57057813537808,77.63974115264008,{}
87,76,87,0,2.899999999999993,31.19803056895536,202.43678105150408,16.653189219730464,26.582981192582324,48.359359895872416,49.95956765919137,23.38070905056998,97.71987607662184,71.14245553242924,54.70481505059831,52.25534571997457,16.329795537492032,11.430856876244434,62.05322304246977,39.1915092899809,3.265959107498474,15.055327593641149,17.048807063925647,16.329795537492032,37.55852973623166,89.81387545620623,74.92155750741577,{}
88,76,88,0,2.933333333333326,36.364560146542935,204.06903170514505,15.176718914812284,26.797320149178635,50.36239236596529,51.97757419459741,24.91071362177138,103.13076954558274,76.36415691281033,57.61512019156771,52.67668131800474,16.461462911876424,9.876877747125832,67.49199793869366,44.44594986206653,3.29229258237524,14.06468007724784,15.61671492597523,14.81531662068886,39.507510988503554,105.35336263600954,73.98507400970509,{}
89,76,89,0,2.9666666666666592,50.689687752485206,195.8776545590526,13.476792334377272,21.80429660473709,46.48430485971149,49.705328266893616,26.60449483262455,112.10162132758606,90.4198421987556,64.55489448298556,53.93193716300061,19.611613513818384,10.622957319984948,74.36070123989475,54.74908772607637,4.085752815378783,15.504341823651076,17.06260468487965,16.343011261515358,37.58892590148525,102.96097094754664,78.61650943380502,{}
90,76,90,0,2.9999999999999925,39.41911017443414,198.07857717416184,16.69204279156706,28.255366947908723,48.472187165105744,49.78100798399274,25.03806418735064,109.2610603285042,81.01694485396915,60.561210017101416,54.01405217741478,18.0046840591383,11.457526219451552,72.0187362365532,45.83010487780666,3.273578919843203,15.527948230528054,15.527948230528,14.731105139294923,37.6461575781982,98.20736759529971,74.54134002480424,{}
91,76,91,0,3.0333333333333257,39.50868285022913,190.36724032679265,15.164011586522442,26.77488299749012,45.16378358254397,50.02366543964287,26.52108690945604,107.71660771412236,81.01212851703471,60.85641555288669,55.92211158913915,23.02675183082204,13.158143903326843,67.43548750455011,42.763967685812304,4.9343039637475385,14.05290384893144,15.603639193039234,15.625295885200671,37.82966372206465,101.975615250783,78.5538160461985,{}
92,76,92,0,3.066666666666659,37.82021277468531,187.71229797580776,13.207391197145936,26.66756119105952,43.372991019110266,46.91020053615489,26.66756119105949,104.25283527223712,77.61908806832892,58.155221792261386,55.69795889963064,24.57262892630763,13.92448972490763,63.069747577523,38.497118651215374,7.371788677892255,17.103051848024837,18.67807175457077,18.01992787929225,39.31620628209225,103.20504149049208,74.60445108954956,{}
93,76,93,0,3.099999999999992,31.33785422666376,182.23893064021715,15.185336971921076,28.43302735062892,45.22729811400337,48.77696424722093,26.81253693198301,101.55961059924218,73.14226854328803,56.82429625000248,59.29491782608966,28.00037786232008,17.294351032609484,56.82429625000248,32.118080489131785,9.058945778985958,15.62558283358026,16.221867056620574,15.647269981884731,37.88286416666836,97.1777819927579,76.05163775806204,{}
94,76,94,0,3.1333333333333253,31.919814865610647,180.917089078063,15.48874485379238,30.65694534293574,44.19364370917526,48.10759974933911,29.001128316685456,106.68930200238884,76.06479398582856,59.63965409100933,63.83962973122141,31.919814865610647,19.31988794497488,57.95966383492464,29.399829481483494,9.239946408466269,15.937786968352258,16.54598514058188,15.11991230476292,40.31976614603451,104.15939587725586,78.09696312934625,{}
95,76,95,0,3.1666666666666585,30.013711317363096,174.07952564070598,16.978319040866314,28.49783257849128,42.15091778447562,46.04778432111038,28.497832578491263,103.877197044536,75.37979483279464,59.93500160587928,61.59986276159816,31.63236195865852,18.313472712907583,56.60527929444152,29.96750080293964,8.324305778594407,15.794259720035678,17.381660760484017,16.6486115571887,38.29180658153399,98.22680818741328,76.87260895660808,{}
96,76,96,0,3.199999999999992,29.699877024201328,172.24853932315958,16.826694721967666,30.10954985287936,40.45007972976854,43.68588668658322,28.24333362341784,104.58926528145712,74.54244753562222,59.39975404840254,61.04974721641372,32.999863360223685,18.974921432128667,56.924764296385774,28.87488044019574,9.074962424061482,15.653209603896604,17.2264344116451,16.499931680111843,39.5998360322684,98.999590080671,72.543427817527,{}
97,76,97,0,3.233333333333325,30.04332282967925,172.59382070546906,17.021276595744762,30.457733065671007,40.61031075422801,45.831189847953226,29.14911536614484,106.21918651121408,75.7729953146727,60.08664565935851,61.75571914989621,33.38146981075465,19.19434514118393,57.58303542355202,29.208786084410463,7.5108307074197,14.26057015436466,14.260570154364608,13.352587924301872,40.05776377290567,103.48255641333964,74.43768376398256,{}
98,76,98,0,3.266666666666658,28.1463042734697,167.6520865583514,16.855399442120135,31.57685054248898,43.76041060067763,47.01069157198333,28.53188805214942,104.96306170759442,73.39658180686772,58.674680357680586,62.80670010117922,34.70896584538855,20.66009871749316,55.36906456288159,25.618522409691536,10.743251333096396,14.121596865671238,13.629403079665977,13.222463179195644,39.667389537586814,89.25162645957033,70.60798432835651,{}
99,76,99,0,3.2999999999999914,29.750542153190167,169.01526602720693,16.855399442120135,31.57685054248899,39.97608983177327,45.11287609486861,30.16091384424704,108.05369889063223,76.47697704379098,61.153892203779606,62.8067001011791,36.36177374278793,19.83369476879352,57.84827640898072,26.44492635839117,8.264039486997376,14.121596865671345,14.121596865671345,14.048867127895278,41.320197434986255,99.16847384396704,71.08995568683446,{}
100,76,100,0,3.3333333333333246,30.162473882780105,172.74436155175695,17.06247185590074,33.62915546480356,42.35983825412358,44.29801719269175,28.63908171087541,109.381163144686,75.75341379452067,60.23206865309942,61.90518167124105,35.13537338097467,20.07735621769973,60.23206865309942,26.769808290266383,8.365565090708287,14.295083893341753,14.295083893341792,13.384904145133191,40.15471243539963,100.386781088499,75.15984215015808,{}
101,76,101,0,3.366666666666658,31.24475347834363,168.19402406746636,16.50378297602723,31.588112727204987,43.19921592886106,48.32610166156033,28.679576687870508,107.76055758850232,76.18052313534244,59.9398541171006,62.40313579314579,34.48594346463324,20.52734730037696,58.29766633307042,27.096098436497527,9.03203281216588,15.140223282089336,15.579161229719908,14.779690056271306,39.41250681672369,88.67814033762829,70.15429288634165,{}
102,76,102,0,3.399999999999991,36.358670010654464,170.3850598617842,16.85396071569164,33.42311795643353,45.10902539484069,50.01877421513143,28.529452655614563,114.79790605770587,81.40118101354213,62.801339109312266,61.14867229064623,36.35867001065458,20.65833523332651,65.28033933731137,32.227002963989094,10.74233432132985,17.25434814398032,15.67857408110816,14.874001367994993,39.6640036479867,89.24400820797013,65.85830616004124,{}
103,76,103,0,3.433333333333324,42.62295081967204,174.11811810956868,16.718096765877995,29.689787338155483,46.36765778272434,51.24098232159926,27.03675820077156,115.50108166431824,85.81149067739273,63.934426229508176,60.65573770491801,34.426229508196684,21.31147540983602,67.21311475409834,36.065573770491824,11.475409836065523,16.718096765877995,15.552185213942876,14.754098360655805,39.34426229508193,86.88524590163934,68.00809348423459,{}
104,76,104,0,3.466666666666657,49.20764268788079,175.738928305015,15.114007307037474,29.55369897921305,43.12441455070791,47.99108579771947,26.686591141147087,120.22106306425644,90.6988602860528,65.57377049180332,59.01639344262298,32.78688524590166,19.672131147540995,73.77049180327867,44.26229508196718,9.836065573770496,15.114007307037584,16.718096765877995,16.39344262295083,39.34426229508193,100.0,78.29477990989871,{}
105,76,105,0,3.4999999999999907,49.51380910340911,173.32776915628733,14.937257530366333,30.101355941824465,46.65615401632443,49.92426494397546,28.80804999944615,122.96574372617614,92.90316972856252,67.63130992250524,61.03313334469988,36.2899711779296,20.61930180564173,73.40471442808496,42.06337568350944,12.37158108338508,16.82211556218031,15.648949792380144,14.84589730006212,42.88814775573502,87.42583965592138,63.22296223937373,{}
106,76,106,0,3.533333333333324,50.29391435798789,170.8468848333829,17.08715315433524,33.677800891394426,43.85290096535145,47.39123603820141,28.92418791993344,129.7105142933609,96.03305158157588,70.37239517999149,63.670262305706615,40.21279724570945,23.45746505999728,77.07452805427636,41.88833046428056,11.728732529998638,20.383741360390093,19.10401799752176,18.43086540428351,46.91493011999432,85.4521941471325,62.17560395460264,{}
107,76,107,0,3.566666666666657,45.052368134571786,170.0239948719541,17.00485228701879,31.85683501646842,42.21679006985539,47.16297450195167,30.199038514287512,123.94309458069586,92.08865157966574,69.19971261436103,63.36359227339085,40.019110909510005,21.677018409317952,71.70090704620543,40.019110909510005,11.67224068194048,15.81894255111794,15.373248840481766,15.007166591066266,41.68657386407284,101.71524022833783,75.93824747673284,{}
108,76,108,0,3.5999999999999903,37.58900108164642,157.96496447999408,18.03444431262562,31.193871732608933,39.72681090238338,42.73346765370572,31.193871732608933,117.96633891559976,86.78248379412089,67.75961761769133,62.04495107162097,42.45180862795121,21.22590431397566,65.31047481223266,32.65523740611627,9.796571221834938,16.65096927547926,17.04653438205478,16.327618703058192,39.18628488733958,96.33295034804314,75.39046985637863,{}
109,76,109,0,3.633333333333324,34.426229508196684,156.9752384200205,16.47520593626377,28.061053719055188,41.2776338098825,44.74539037362679,31.533416494543253,110.27560694322716,82.22908986219318,64.7540983606558,62.29508196721315,42.62295081967216,21.31147540983602,57.377049180327845,27.868852459016352,9.836065573770496,18.32842604508031,18.691400411461306,18.85245901639348,44.26229508196718,98.36065573770492,73.64287686956129,{}
110,76,110,0,3.6666666666666567,24.79317675473908,156.081094141582,18.25663920126868,31.57819845406588,39.80658437345415,41.61841595667645,31.57819845406588,106.10655754395708,74.54463486307579,61.98294188684781,59.503624211373904,44.627718158530456,20.660980628949343,53.718549635268005,22.31385907926517,5.785074576105785,18.47974286725474,18.84571389726185,18.18166295347538,44.627718158530456,94.21407166800869,70.16464154456226,{}
111,76,111,0,3.69999999999999,18.470445266439256,156.09223776110932,18.470445266439256,31.81645106215884,40.272764872446544,42.10581506974617,33.611518411320496,102.34846563128754,70.55169480404042,61.03659728061223,58.52824396771041,45.150359632233744,18.39459096128041,50.16706625803749,18.39459096128041,3.3444710838691663,17.05352331929558,17.458651612891245,17.558473190313237,46.822595174168384,95.31742589027124,75.45470692339885,{}
112,76,112,0,3.733333333333323,19.99774343751858,155.70654496420366,18.40685798304,30.18121145339851,40.13411982755049,43.456445705498886,35.15440499640711,103.65711350983946,73.49529696513416,63.32618755214207,61.65970893234896,46.66140135421006,19.164504127621967,49.16111928389989,17.498025507828743,5.8326751692762855,18.63179738453827,17.398547581187383,16.66478619793213,44.99492273441683,89.98984546883366,70.32855688549195,{}
113,76,113,0,3.766666666666656,21.616513694831728,158.05900489809625,19.963891128180407,30.026043783256025,40.09951544569538,43.391681234351616,33.32359704339659,104.65870448919424,74.67963990992537,63.829570361771175,59.6847930655523,46.42150571765171,19.894931021850766,51.39523847311443,21.55284194033834,4.97373275546272,18.53600757188652,19.405349779602485,18.23702010336308,48.079416636139285,91.18510051681584,72.83495331450217,{}
114,76,114,0,3.7999999999999896,25.115520279668644,159.27441232439756,20.117405074131792,28.450307095590453,40.40786389376511,43.72534505594744,32.135778230456914,105.46348601205172,77.01360033038479,64.32039297504355,58.47308452276684,45.1078080604201,20.047914693520056,53.46110584938674,25.05989336690004,5.011978673380099,18.67854169242822,19.048449715029573,17.541925356830006,50.11978673380014,90.21561612084024,75.38359527763396,{}
115,76,115,0,3.833333333333323,33.02984897501593,161.94700420631258,18.21857131496244,31.382583056521103,41.367542747018085,44.656675540104445,29.87248305725724,112.27047283941788,80.88946108196193,64.3278458873292,54.4312542123555,44.53466253738179,19.79318334994741,62.67841394150048,29.689775024921232,4.948295837486853,18.44120977566654,20.40234640476256,19.79318334994741,49.4829583748687,87.41989312893475,72.46245707790852,{}
116,76,116,0,3.866666666666656,45.35653670708052,163.37130432006947,16.882501944850524,30.28431829163772,43.80569528777202,48.745234867885344,28.6071847335258,121.05571100540982,90.77526956367868,68.03480506062078,52.07602362664795,40.31692151740492,17.63865316386466,74.75429198018833,41.15685738235084,4.199679324729686,18.781536907591946,19.153484637414905,18.47858902881057,52.07602362664795,89.03320168426916,78.73922755825795,{}
117,76,117,0,3.899999999999989,46.8766988247238,169.49657283203192,16.741678151687097,28.51005056590671,43.65695538944284,48.57972302677288,28.65713692765914,120.64467280526624,92.1400885519835,68.64088042191713,50.22503445506129,38.50585974888031,15.904594244102668,76.1746355901762,46.03961491713949,4.185419537921689,18.71776520229772,18.71776520229772,17.578762059271526,51.89920227022992,87.05672638877274,79.8176076196048,{}
118,76,118,0,3.9333333333333225,33.50684309718088,167.66818929018973,16.75342154859038,30.156158787462687,41.91704732254743,45.23423818119409,30.34173690081129,110.62333851541504,80.48619908491497,63.66300188464356,46.90958033605307,40.20821171661692,13.402737238872303,67.01368619436164,33.50684309718088,0.0,18.50475892773046,18.73089471917902,17.591092626019872,56.96163326520736,87.1177920526701,79.60960793989739,{}
119,76,119,0,3.966666666666656,23.712545566421024,169.02090003453063,16.978751507316492,27.03118270898221,45.64639619074613,47.334728857420295,30.5972212711494,98.04627687190072,71.03725900470505,59.130712175898566,43.92567190209604,38.85732514416191,10.981417975523982,56.59653879693144,27.87590716863781,2.534173378967012,18.66057323389113,17.22906601357398,16.89448919311394,57.441263256587206,84.47244596556936,71.67724723880197,{}
120,76,120,0,3.999999999999989,20.10828694152612,168.6932002797534,16.78231079728097,28.38833974762724,43.44956242946999,45.08736312858446,30.24321762906586,95.24300831285944,66.87953652141451,56.7766794952546,41.74755845239315,38.407753776201616,10.019414028574374,55.10677715715883,23.37863273334005,3.33980467619142,18.444674187712383,18.67007571883928,17.53397455000504,56.77667949525454,85.16501924288184,70.8479560312053,{}
121,76,121,0,4.033333333333323,20.36273854276055,170.82785526321237,16.910333934197865,28.747567688136428,42.27583483549472,45.65790162233429,30.625917317735347,96.40373590996244,67.66247035244156,57.495135376272856,42.275834835494834,38.89376804865526,10.146200360518831,55.80410198285301,23.67446750787701,5.073100180259303,16.994675275030964,17.654906944105708,16.91033393419775,57.495135376272856,84.55166967098955,73.41889792478982,{}
122,76,122,0,4.066666666666656,18.44965890894028,167.06876708772265,18.373889969059974,30.0663654039164,41.7588408387727,45.13046997999476,30.2513909373815,96.89490927627612,66.83502150106538,57.627200357506354,43.429194472323616,40.08848720522178,11.692475434856306,55.12166990718004,21.71459723616192,5.011060900652751,18.44965890894028,19.044961641998068,18.373889969060087,58.462377174281926,85.18803531109648,70.86710287580634,{}
123,76,123,0,4.099999999999989,25.421806189005387,170.82785526321226,15.312958658867569,25.36550090129685,42.309641985907774,45.65790162233441,30.485538042484656,96.40373590996232,71.04353102127875,58.34065207298272,42.27583483549472,38.89376804865515,10.146200360518606,55.804101982853126,27.0565342947167,1.6910333934198434,16.99467527503095,17.245224542369055,16.91033393419798,57.495135376272856,84.5516696709895,73.41889792478982,{}
124,76,124,0,4.133333333333322,16.795048684795898,167.15040058202686,16.71169805275929,31.75222630024257,40.10807532662216,45.12158474245007,30.08105649496668,95.27133715716616,63.52643787121504,55.14860357410555,43.45041493717417,40.10807532662227,11.69818863693149,53.477433768829655,20.054037663311192,3.342339610551903,11.8169550182481,13.473401711308387,12.533773539569438,56.8197733793815,83.55849026379633,70.9017301094885,{}
125,76,125,0,4.166666666666655,16.83930671896462,165.0595682003837,18.523237390861027,33.67861343792913,38.73040545361857,42.13193195017045,30.310752094136205,99.35190964189098,65.67329620396185,57.25364284447949,45.46612814120431,42.09826679741138,13.471445375171584,55.5697121725832,20.207168062757543,3.3678613437929243,11.907187971460012,13.576283107094715,12.62948003922338,60.62150418827247,87.5643949386158,73.1105220000216,{}
126,76,126,0,4.199999999999989,18.49843215373715,165.8359964828865,18.498432153737035,28.47107904614348,38.519695180076496,43.57619844792716,31.864660156051688,97.15105922208365,68.68596456183083,59.45431212577012,46.89354195835392,43.54400324704295,13.398154845243994,51.91785002532049,21.77200162352142,1.674769355655485,10.18722428347299,10.59217143864797,9.211231456105224,58.61692744794237,92.11231456105236,71.31056998431062,{}
127,76,127,0,4.233333333333322,11.550934941634296,163.37155654129538,16.50133563090617,28.100762001252885,37.98892748288907,41.286328558008925,33.04389884973147,89.10721240689315,61.07723686589161,55.27947436353554,46.20373976653718,44.55360620344652,12.376001723179684,43.728539421901246,14.02613528627012,2.475200344635823,10.037370607555038,11.668206323248915,9.900801378543749,59.40480827126208,80.85654459144001,66.74377206600147,{}
128,76,128,0,4.266666666666655,19.81425203722904,163.4759184261,14.860689027921808,23.175523338149315,39.66288890008073,42.962621288509496,34.71423279567748,92.46650950706908,69.3695363413044,59.44275611168735,44.58206708376542,46.23325475353454,10.73271985349902,47.058848588419096,22.29103354188271,2.4767815046536725,13.312300584490847,15.223198128769956,14.03509519303725,69.34988213030175,90.81532183729996,79.68584478272986,{}
129,76,129,0,4.299999999999988,20.127941425277005,165.49036273726128,15.0438109871709,25.0730183119515,36.77376019086228,40.1168292991224,33.47245336132423,93.60593503128575,68.53291671933425,58.50370939455365,45.131432961512814,46.80296751564288,12.536509155975637,47.638734792707965,20.8941819266264,0.8357672770650879,16.715345541301076,18.462702603070017,17.55111281836605,73.54752038172455,83.57672770650515,85.26464827948153,{}
130,76,130,0,4.3333333333333215,19.97985805446392,167.714300065041,13.273895196340504,21.63380237259773,38.30645844152565,39.95971610892772,36.54090226129826,91.2731122002518,69.68794978078768,59.73252838353221,43.14015938810667,49.77710698627686,9.955421397255463,44.79939628764919,19.9108427945107,1.6592368995425204,13.273895196340504,15.025029160766897,14.103513646111765,73.00642357987283,73.00642357987283,77.9841342785005,{}
131,76,131,0,4.366666666666655,19.984500794158908,164.51203818420956,13.276979664706914,23.470605886475543,38.31535975177004,41.78822573345361,38.31535975177004,94.61303708274934,71.38306102482495,61.40603094926973,41.49056145220936,49.78867374265121,7.46830106139771,48.95886251360696,22.404903184193017,4.149056145220925,13.380304021973316,15.028520541892492,14.93660212279542,74.68301061397676,73.02338815588843,71.38306102482495,{}
132,76,132,0,4.399999999999988,23.472222208072765,164.72416901510962,11.618157244992062,21.83042856446364,36.85213638209299,40.14367640116628,36.66478317868188,93.00451538257045,71.3686802192367,59.750522974244745,39.83368198282983,51.45183922782178,9.12855212106524,47.302497354610296,20.746709366057075,2.4896051239268218,16.68014789411344,16.59736749284582,16.597367492845706,71.36868021923664,68.04920672066748,63.09183133463219,{}
133,76,133,0,4.433333333333321,23.27746173584424,161.71554796322516,13.167720833780775,21.460759332655023,34.72167191138292,39.81058474484277,34.60443464281365,92.23281157137085,70.79563602362207,59.25474375201316,37.857197397119535,49.37895312667763,9.052808073224242,48.555970574566345,23.86649401122748,2.4689476563339667,16.541744574142268,16.4596510422258,17.282633594337085,75.7143947942389,70.7764994815712,77.4303692882628,{}
134,76,134,0,4.466666666666654,25.05549396395485,163.74946988887905,11.785113019775862,23.39278141269692,36.81787005729094,40.13864859597432,36.81787005729083,96.68103341515447,73.33333333333337,60.83333333333337,38.33333333333337,50.0,7.5,52.5,25.83333333333337,2.5,16.74979270186822,18.33333333333337,19.16666666666663,78.33333333333337,76.66666666666669,78.33333333333337,{}
135,76,135,0,4.499999999999988,26.873259411242472,163.63348782875786,11.666261595171475,23.391969205644585,33.49842228426638,38.476651963717735,33.37381519792444,95.05516107486724,71.68355492290867,58.33130797585704,34.998784785514204,44.99843758137547,6.666435197240844,54.998090377236736,28.33234958827348,3.333217598620422,18.40829586280216,18.40829586280216,18.332696792412207,78.33061356757963,73.330787169649,75.07143092871351,{}
136,76,136,0,4.533333333333321,25.326549774003173,164.22863462629587,11.715378623209062,21.821406999509776,38.638645484768034,41.974314440161386,35.30516897083156,93.73797087958752,71.96589725685578,59.41370587484607,38.49338690482989,46.86151449283636,7.531314829205826,51.045578286839486,25.941195522820067,2.510438276401942,17.06769834539165,18.40988069361424,18.40988069361424,76.98677380965955,70.29227173925437,78.82047718507314,{}
137,76,137,0,4.566666666666654,24.89280247552308,161.50819695319237,13.15970151462409,24.72921164003331,34.70052594601633,37.97691270847197,31.297549652325987,93.8205735268757,69.10801306636884,56.751212781816434,32.89925378656028,42.769029922528375,6.5798507573121015,55.92873143715235,27.964365718576232,6.579850757311988,21.447689441471613,21.447689441471613,21.38451496126413,77.31324639841654,83.89309715572858,75.66828370908854,{}
138,76,138,0,4.599999999999987,16.99304438538692,163.60366903161847,14.996745850921684,28.376153258549927,36.8098826680966,40.30254347861912,35.150744477325055,94.99400597599096,66.65220378187416,58.32067830913991,36.6587120800308,46.65654264731188,6.665220378187428,53.32176302549931,19.99566113456217,6.665220378187314,20.06497039310941,18.32935604001534,19.1625085872887,76.65003434915519,86.64786491643633,79.99999999999994,{}
139,76,139,0,4.63333333333332,16.744560843954584,163.4946960911607,16.66146077346866,25.213365304781547,36.80636986333321,40.12611114491226,33.36454919782981,91.69860136859111,66.64584309387487,58.31511270714054,34.9890676242843,43.31979801101864,5.831511270714032,52.4836014364264,24.15911812152968,9.163803425407764,18.403184931666548,20.063055572456072,19.9937529281624,76.64271955795607,83.30730386734359,79.9750117126498,{}
140,76,140,0,4.666666666666654,18.705972213022783,164.27209480925112,15.058017163274826,31.83314618560307,35.294357782886536,38.80756702311526,31.83314618560307,97.09823146447113,65.27285434991363,56.04928610774528,35.13537338097467,45.17405148982459,8.365565090708174,56.88584261681615,21.75046923584148,5.019339054425018,18.48013730793025,18.404243199558096,19.240799708628856,78.63631185265751,83.65565090708247,76.96319883451588,{}
141,76,141,0,4.699999999999987,28.28113443552073,160.5698483467959,13.21761212027002,29.78548639926744,38.14403397737521,39.79028161300581,31.391828785641337,102.55634167478972,72.7719279790146,58.65315378369826,34.69623181570887,44.60944090591136,8.261007575168719,62.78365757128279,29.739627270607684,4.9566045451013,18.249162206691583,18.24916220669147,19.000317422888088,77.65347120658646,85.91447878175524,81.02528296959538,{}
142,76,142,0,4.73333333333332,27.83268511050805,153.15531136510526,16.26002825731132,30.936813645257832,35.919576450334155,39.15933362285009,30.936813645257832,105.74020269267996,74.81380183975232,60.9751059649177,37.39806499181623,47.15408194620306,11.382019780117844,63.41411020351461,27.642048037429504,3.2520056514623548,16.341126158189095,19.57966681142505,18.69903249590812,76.42213280936357,82.92614411228817,79.74047830450984,{}
143,76,143,0,4.766666666666653,31.31874318761566,159.97459578168107,16.46076596812577,33.085730121608826,36.363020547475934,43.08194739520548,31.27545533943908,112.04208716908911,79.0288214180958,63.37394897728439,37.859761726689385,47.73622130756485,11.52253617768804,69.13521706612846,31.27545533943908,4.938229790437731,8.230382984062885,8.393376688015733,8.230382984062885,74.07344685656614,75.71952345337871,75.73741347688969,{}
144,76,144,0,4.7999999999999865,31.97443067909719,156.73220256063044,15.12484889632242,33.77841115473077,37.12431475339723,40.646810068740095,31.930236558902948,112.70891282832412,79.00319806324565,63.020203734676784,36.97185285767705,48.73562422148336,10.923501980677202,69.74235879970911,31.08996717577395,4.2013469156452175,8.56909996249891,8.402693831290208,8.402693831290208,80.66586078038625,73.9437057153541,70.60263176214929,{}
145,76,145,0,4.83333333333332,31.31874318761566,157.07745760738436,13.168612774500616,31.4482492253471,38.18046190743193,41.4471496616109,32.921531936251654,108.75322997334796,77.38310952196701,61.72787238047181,34.56760853306423,49.382297904377424,9.053421282469117,66.66610217090965,30.452417041032845,4.115191492031499,8.393376688015733,10.012693045092352,9.053421282469117,79.01167664700398,77.3656000501914,79.02882141809582,{}
146,76,146,0,4.866666666666653,32.9368606242635,154.59182451246298,14.748030562457302,31.177824261580536,36.38438002554236,39.46440108194432,31.134731187409898,109.90089900717167,78.72441131022597,62.2694623748198,36.05074137489567,49.16010187485779,11.470690437466828,67.18547256230568,32.77340124990519,3.2773401249904737,11.587147133177703,9.832020374971536,9.832020374971536,80.29483306226768,85.21084324975351,80.44518240802802,{}
147,76,147,0,4.899999999999986,33.072291108040766,156.737525825055,14.808671828078332,31.30602190224328,37.98719306265722,41.26662221996517,31.30602190224328,110.43862659108296,79.13368973319906,62.52550327410836,36.19897557974696,47.71683144603003,10.695151875834313,68.2844312072499,32.08545562750294,4.113519952244019,14.899802976392644,13.1632638471807,13.98596783762946,78.97958308308421,82.27039904487941,74.11645230640367,{}
148,76,148,0,4.933333333333319,33.218191941495995,154.41604665976064,14.965534548041944,33.0946272530982,36.695158447203255,40.21111919859763,31.400669554656133,112.57560715684669,79.48279379885743,62.801339109312266,34.70600319198843,49.58000455998342,10.74233432132985,70.2383397933097,30.57433614532306,4.131667046665143,14.965534548042044,13.221334549328844,14.047667958661918,84.28600775197174,90.89667502663622,77.69292004989339,{}
149,76,149,0,4.966666666666653,25.11637457150203,155.07662187306505,16.68014789411344,33.23620250340299,36.85213638209298,40.383138034828654,33.194734985691525,108.08697096432114,74.8539433862167,62.24012809817157,34.85447173497607,49.79210247853723,9.128552121065129,65.55960159674066,25.725919613910943,7.468815371780579,16.68014789411344,16.597367492845706,15.767499118203432,84.64657421351325,89.62578446136695,86.37012340106308,{}
150,76,150,0,4.999999999999986,30.281097962503857,156.69635158815748,13.275151572079835,28.25846064839789,38.48935552988798,41.78247195892863,33.187878930199645,104.7523233862151,76.49428131005739,61.39757602086934,34.84727287670967,49.78181839529941,9.126666705804835,62.227272994124405,27.38000011741474,4.148484866274998,16.6767027688662,15.026451281541698,14.934545518589855,81.31030337898903,89.60727311153897,83.03604655427534,{}
151,76,151,0,5.033333333333319,29.935157481446048,161.01922483249663,14.96757874072302,28.29296325392342,38.15998803509164,41.61877127938571,33.05785123966939,106.10746344267127,77.84404521862228,62.80991735537191,34.71074380165294,49.5867768595042,9.090909090909236,63.63636363636351,30.578512396694123,5.785123966942024,16.85626285485215,18.181818181818244,17.355371900826526,79.3388429752066,87.60330578512401,79.76812239347869,{}
152,76,152,0,5.066666666666652,24.848423765905665,155.9335724306876,14.96757874072302,28.29296325392342,36.513590139462025,39.9781375948689,33.05785123966939,101.04298654927553,72.802365439819,60.33057851239664,34.71074380165294,47.93388429752065,8.264462809917404,59.50413223140493,26.44628099173553,6.611570247933855,16.85626285485215,18.18181818181813,18.18181818181813,79.3388429752066,90.90909090909092,86.20432932499367,{}
153,76,153,0,5.099999999999985,23.18382889136223,159.42991693657982,16.39344262295083,27.9170268293875,37.84720124791864,41.2776338098825,32.82784326967344,100.05373455519428,72.14977404808327,60.65573770491813,36.065573770491824,47.54098360655746,9.016393442622984,58.19672131147536,27.04918032786884,5.737704918032819,18.107149208503664,18.107149208503767,18.03278688524597,78.68852459016392,88.52459016393442,84.18316115716567,{}
154,76,154,0,5.133333333333319,24.544157352445563,163.78692184796023,14.784302266346868,26.173419660214496,36.06648495408077,41.10915367188305,32.69385207265431,98.0135903334115,71.85528517441763,59.59183673469397,34.285714285714334,47.34693877551024,8.163265306122526,57.14285714285711,27.75510204081627,6.530612244897952,19.862081731586013,19.591836734693857,19.591836734693743,75.10204081632651,84.89795918367344,83.40923934331292,{}
155,76,155,0,5.166666666666652,23.279038479173067,165.272976154329,13.168612774500616,28.17629272339089,36.363020547475934,39.64277404891051,32.96265816332493,97.24398638159374,69.1548104396453,57.61268088844042,32.921531936251654,47.73622130756485,7.407344685656653,56.78964259003408,23.868110653782423,5.761268088843963,18.18151027373791,18.18151027373791,18.92988086334469,77.36560005019135,85.59598303425429,76.00525851944684,{}
156,76,156,0,5.199999999999985,23.10319914600885,166.77021377125686,14.905478923842027,26.387945002872247,36.36209688189443,39.64176707354397,32.961820871142855,97.17183405100783,70.79863308293838,59.25725223970778,34.56673047316281,47.73500874865351,8.230173922181734,55.965182670835134,26.336556550981182,6.5841391377452965,19.820883536772097,19.820883536772097,19.752417413236003,75.71760008407102,88.88587835956167,80.80672950252465,{}
157,76,157,0,5.233333333333318,23.18363418952767,162.69890608426508,13.114643958370609,24.64454119037796,36.10250917203759,37.846883400528256,34.58171467221221,95.0952998075316,70.49121127624232,59.01589781266807,37.704601380315694,49.17991484389006,9.016317721379778,51.63891058608442,23.770292174546853,2.4589957421944746,19.740153198988445,19.740153198988445,20.491631184954144,73.76987226583492,88.52384671900194,82.22839928796905,{}
158,76,158,0,5.266666666666652,24.70467199140717,168.6570911006081,13.060245416050977,24.542317514222702,37.68989741639728,39.48564930008921,32.6914013305964,94.74305670329458,70.21779946017062,57.954839033726216,32.65061354012744,45.71085895617841,6.530122708025488,55.506043018216815,26.120490832102064,6.530122708025488,18.03189069916853,19.590368124076463,19.590368124076463,73.46388046528682,88.1566565583442,80.40938660365512,{}
159,76,159,0,5.299999999999985,21.47133680418676,163.64300879213735,14.69191957475698,26.169932021621403,34.43626477286406,37.68770027634201,32.811547635959684,94.6953311559892,68.56229134886576,57.95146054487464,35.91358118273922,47.34062974088352,8.978395295684777,53.0541540199556,23.67031487044176,5.713524279072203,19.6571265670496,19.58922609967601,20.40544385382907,71.82716236547833,86.51908194023525,80.25541744816769,{}
160,76,160,0,5.333333333333318,29.689537998148275,165.86428057710012,13.11464395837072,23.009099956763485,37.846883400528256,41.27728715312168,31.190389843078968,96.77605376344204,73.78808480092684,59.01589781266796,34.425940390722985,44.261923359501,8.196652473981658,57.37656731787172,31.14727940113039,4.917991484389063,14.844768999074136,14.75397445316696,14.753974453167077,72.13054177103857,88.52384671900194,77.48329877200612,{}
161,76,161,0,5.366666666666651,39.64277404891051,164.9036872831944,11.52253617768804,23.103786010675783,39.64277404891051,42.924426036353495,29.675067865745163,103.75506883958428,80.67454819522057,60.90483408206546,37.859761726689385,47.73622130756485,13.168612774500616,60.90483408206558,34.56760853306423,1.646076596812577,8.393376688015733,9.876459580875462,9.05342128246923,69.13521706612846,80.65775324381656,77.6452777812492,{}
162,76,162,0,5.399999999999984,40.51289364404074,166.9761430977052,12.953767094310138,25.958085522910725,38.895020422708605,45.36709027441844,29.14597596219801,108.53612360406618,82.59613841526914,62.340004141367785,37.24208039614189,45.338184830085765,12.14415665091576,67.19766680173416,38.05169083953626,0.8096104433943765,9.715325320732632,11.334546207521498,10.524935764127122,66.38805635833978,84.19948611301629,76.53281394275204,{}
163,76,163,0,5.433333333333318,34.44181796154741,178.57460836478876,14.744071957326357,31.12637413213349,42.59398565449851,47.50867630694063,29.669611128444945,109.77364948905708,78.65211348591465,61.43363315552665,39.31752521953706,40.95575543701773,10.64849641362457,69.62478424293022,35.22194967583528,2.457345326221116,9.964965382893936,11.926496007199546,10.648496413624684,62.25274826426698,83.54974109151624,74.37276506831837,{}
164,76,164,0,5.466666666666651,38.03016830772594,180.41944832810933,14.881370207370992,28.109254836145283,44.674720231895,49.63211780010405,29.808635184354607,110.7958725234726,82.69081213246993,63.65919477597595,44.644110622112976,36.37668272912913,10.747656260879012,70.2731370903632,40.51039667562111,0.8267427892984642,9.920913471580777,11.691908652199416,11.574399050177476,59.525480829484025,90.94170682282282,77.20201900085253,{}
165,76,165,0,5.499999999999984,42.04225628932443,178.46544489500326,13.036750250944523,24.308988431266418,43.77888079855824,47.00467149519868,29.28529405970104,108.53256450416475,84.22432987858005,63.063384433986585,48.51029571845129,33.95720700291588,12.127573929612709,67.10590907719097,42.85076121796533,4.04252464320416,10.226868295907984,11.433986353293893,11.319069000971922,54.97833514757809,85.7015224359306,73.90637262972011,{}
166,76,166,0,5.533333333333317,39.83368198282983,182.0043435608937,13.38122546705542,24.951314462072165,46.73861122243692,50.04044368234044,31.709226071884608,109.74362126483372,84.79289510788121,64.72973322209839,54.77131272639088,34.85447173497607,13.27789399427661,64.72973322209839,38.17394523354517,4.979210247853757,12.083065922068846,11.736111104036372,11.618157244991949,51.45183922782178,94.6049947092207,80.11561495262295,{}
167,76,167,0,5.56666666666665,34.373154215804334,182.9284737917464,15.090705877618705,26.39287894379332,44.46602140524297,47.91709741887786,31.1425648205712,106.70740458955868,80.35420581710899,63.01744939564128,55.65177349225462,34.373154215804334,13.91294337306374,61.38063252822201,36.82837951693318,4.092042168548232,13.4975376683244,13.497537668324428,13.094534939354048,49.10450602257771,93.29856144289757,78.65241431319208,{}
168,76,168,0,5.599999999999984,39.2137363362358,176.53744108843236,11.553457866255624,23.10691573251138,41.36718775449165,46.21383146502276,31.428803288358807,105.02849422642126,81.95629199604387,62.088415865706565,57.18669882367715,32.67811361352972,13.88819828575015,59.63755734469191,36.76287781522103,7.352575563044184,15.063866062020256,15.500590298476418,15.52210396642664,47.3832647396182,96.40043515991287,76.09511167210044,{}
169,76,169,0,5.633333333333317,34.70359006156846,176.95428291566205,13.3082192822673,26.616438564534487,43.42264930473289,46.48361158163067,31.751491587499096,106.27363544729911,79.66141459401558,61.90055424491277,59.42453207511619,33.01362893062014,14.856133018779133,59.42453207511619,33.01362893062014,6.602725786124097,13.611867916589402,14.103428461487155,13.20545157224808,46.21908050286822,95.73952389879844,76.87640143146768,{}
170,76,170,0,5.66666666666665,31.25766382636612,174.25228910624827,14.876787410725084,28.121341924388137,38.35310080586359,42.997926851580296,31.38691729502047,105.60449089323916,77.49385012201952,61.60748763215349,59.14318812686736,34.500193074006006,15.607230200145636,58.321754958438646,30.39302723186233,7.392898515858405,15.585598547060668,17.152028109962643,15.60723020014558,42.71452475829307,95.28624753773072,75.37516587471303,{}
171,76,171,0,5.699999999999983,31.80822979923821,168.1155870493982,15.07648133095964,30.15296266191939,40.26901448366557,43.79717668417004,32.02535334231834,109.0362963121931,78.88623713232866,62.43445654563061,61.601997125022194,38.29313334798678,18.31410725338492,58.27215944258853,28.303620300685907,8.324594206084043,15.79480697272009,17.38226301476367,16.649188412168087,46.617727554070825,99.89513047300892,76.38694092710182,{}
172,76,172,0,5.7333333333333165,33.373916587485496,164.9647411409501,13.76041832307568,27.16440003584369,37.05106024243784,42.0166873848437,35.20117708375875,109.0923857339756,82.03808340299746,65.07913734559679,61.74174568684828,40.04869990498264,15.852610379055704,57.57000611341255,29.20217701404988,7.509131232184245,17.017425192460717,19.026059766179824,18.355654123117063,51.729570710602616,100.12174976245672,77.30223298523795,{}
173,76,173,0,5.76666666666665,34.115981984362875,162.93008669956387,13.735433430338936,30.85479120962527,37.63531896450576,42.72784729237309,35.93897574116808,114.6027349066006,83.75755964798608,66.44316275999381,61.33215023999424,42.591770999996015,16.18487297999843,62.18398565999416,31.517910539997047,5.962847939999392,19.04761904761904,19.42483624225828,18.74037923999822,57.92480855999452,110.73860459998956,82.23631674256342,{}
174,76,174,0,5.799999999999983,32.327842220670505,171.1728293619079,14.030642960434376,32.506450442987486,39.46519515254864,44.53161058202557,36.093531245313,114.61866944901811,82.11223270316766,65.5064171313586,59.551288301235104,40.8351691208469,14.462455730299894,63.804951751323415,29.77564415061761,5.955128830123499,19.02296125560713,19.399690129732026,18.716119180388205,59.55128830123516,105.49085356218802,82.5342255433839,{}
175,76,175,0,5.833333333333316,30.39738350583692,168.15001717046687,13.904295167273096,30.53735684861078,39.10980585725649,44.35550922016824,35.56923524535951,110.23303915139822,79.69592334363183,64.0734514626007,60.70116454351648,40.467443029011065,15.175291135879206,59.015021083974375,28.66443881221608,6.744573838168549,20.51282051282053,20.8564427509097,20.23372151450553,59.015021083974375,94.42403373435906,78.72683081530452,{}
176,76,176,0,5.866666666666649,31.772058831581568,168.1882659928437,13.463183064214109,30.24321762906586,41.88093757320966,43.70552671988556,35.4239780156026,110.83170878279893,80.58900932467736,64.29124001668526,58.44658183335025,38.407753776201616,13.359218704765794,61.786386509541785,30.05824208572301,5.009707014287187,18.67007571883939,17.434292249665766,17.533974550005098,56.7766794952546,91.84462859526474,76.04933990604161,{}
177,76,177,0,5.899999999999983,39.25404354908511,174.8315917215999,13.708106623069764,32.35005927056285,40.9481977756662,44.50062198783493,32.70556510162841,117.92159196694706,85.62398178731502,65.46083261845138,59.509847834955735,37.40619006768645,16.15267298377364,68.8613953518776,34.85576801761704,5.950984783495528,19.00972358423286,19.00972358423288,18.703095033843283,59.50984783495579,103.7171633694944,79.6958714551973,{}
178,76,178,0,5.933333333333316,45.4293189483194,174.35709277707946,11.889396162265683,32.12337949304324,42.3369360864695,47.34906307307775,34.00450444022043,123.3062797795418,91.18477028372628,68.09728846946598,60.53092308396981,40.353948722646464,16.814145301102712,72.30082479474163,38.672534192536205,8.4070726505513,18.798785938412173,19.171075266363385,18.49555983121297,57.16809402374918,105.92911539694704,82.44076778054978,"{'happy': (['m1', 'm3', 'm12', 'e1', 'e2'], 5.109427081033648, 65)}"
179,76,179,0,5.966666666666649,47.10504492605954,174.54269751270826,13.554680096951532,32.120258087310624,44.002553506940544,49.016472843491975,32.643992474543204,125.13750056023304,93.01741343148583,68.93129707894752,60.525041337612606,38.66877641014139,17.653137056803644,74.81567609788215,42.87190428080885,9.246881315468611,18.796959273873057,19.16921242673764,19.33438820507069,58.8437901893455,104.23757119255492,80.15531253589643,"{'happy': (['m1', 'm3', 'm12', 'e1', 'e2'], 5.109427081033648, 65)}"
180,76,180,0,5.999999999999982,46.2485475638807,173.21933670348045,13.3082192822673,28.255115053934148,44.84266871614815,49.958685950856186,32.05043623254568,119.58044990972842,91.32610479637418,67.67793930777134,59.4245320751163,36.314991823682135,16.50681446531007,70.97930220083333,41.26703616327518,8.253407232655036,19.87683675786078,18.82066420001753,18.98283663510665,59.42453207511619,89.13679811267434,80.07081214044068,"{'happy': (['m1', 'm3', 'm12', 'e1', 'e2'], 5.109427081033648, 65)}"
181,76,181,0,6.033333333333316,47.8839452980377,174.5928810400874,13.304254946190206,28.24669824251894,43.03168345762006,46.67441396584509,31.74203325344751,121.0164138798855,92.77823967082132,68.48287384305115,56.1064508593671,34.65398435431496,14.026612714841804,75.08363276768262,45.38021760684114,5.775664059052474,12.01356258099143,13.607813127746873,12.376422983683938,52.80607139705148,77.55891736441936,71.26450917214784,"{'happy': (['m1', 'm3', 'm12', 'e1', 'e2'], 5.109427081033648, 65)}"
182,76,182,0,6.066666666666649,44.75782840008492,178.30844893791468,15.28321439801742,28.22956861944009,44.8804528172758,48.32976746641411,31.53984306081051,119.53825575920357,91.30888319948838,68.79443994827875,56.36170983714408,38.127039007479766,15.748124807437309,72.10983464458138,42.27128237785803,5.801940718529522,10.484198582758436,10.083379315909484,9.9461840889079,49.73092044453893,72.93868331865707,65.17934435089748,"{'happy': (['m1', 'm3', 'm12', 'e1', 'e2'], 5.109427081033648, 65)}"
183,76,183,0,6.099999999999982,43.45838063485985,176.14853112267403,15.135860543401083,30.08657120874898,43.49051252881317,47.0691965440378,31.933507547617904,120.450706793761,90.39889599670283,68.53052330881735,55.15871388270659,40.11542827833216,15.879023693506497,72.70921375447688,40.951166367464,4.17869044565964,11.819121402421327,11.819121402421311,11.700333247846856,58.50166623923434,71.87347566534504,80.3874047183174,"{'happy': (['m1', 'm3', 'm12', 'e1', 'e2'], 5.109427081033648, 65)}"
184,76,184,0,6.133333333333315,41.939234457987936,168.0358872053037,14.606766169835636,29.034854624760897,41.93923445798805,46.889489586181305,32.30125059763538,117.7966507699878,88.77624824771182,67.74799412444224,51.61751933290827,41.93923445798805,14.517427312380391,70.97408908274895,40.3261869788347,3.226094958306703,8.224960572554725,9.81178476578623,9.67828487492028,59.68275672867526,85.4915163951294,68.43580865311355,"{'happy': (['m1', 'm3', 'm12', 'e1', 'e2'], 5.109427081033648, 65)}"
185,76,185,0,6.166666666666648,41.1069296750288,170.9392625098824,14.87766582653555,29.618942860240267,42.74863065585887,47.67425544657405,31.259509468529977,116.65039725757003,87.09255538271196,66.54001533706469,49.28890024967757,44.36001022470976,15.60815174573122,69.82594202037637,36.96667518725803,2.464445012483907,9.857780049935512,11.617505201258142,12.322225062419363,62.43260698292477,85.4340937661076,74.58764056540386,"{'happy': (['m1', 'm3', 'm12', 'e1', 'e2'], 5.109427081033648, 65)}"
186,76,186,0,6.1999999999999815,36.19136878146928,172.56119256222135,14.88130663608649,29.6261911027611,42.7590919489539,47.68592212107702,33.03123577650328,113.40412054463744,83.81163549234941,65.73461607243098,47.65759665251244,46.01423125070164,13.96860591539155,66.55629877333627,33.68899073712089,0.8216827009053986,11.620348195877476,11.62034819587746,11.503557812675467,65.73461607243087,93.67182790321397,84.38965362105543,"{'happy': (['m1', 'm3', 'm12', 'e1', 'e2'], 5.109427081033648, 65)}"
187,76,187,0,6.233333333333315,35.65379898315688,169.99804867997864,11.447744935865632,27.569820671823106,43.74177198174392,46.97761756117631,32.41956091953455,106.9001185732298,79.34534335525403,61.5203133581781,43.71180159660025,45.3307572112891,12.142167110166838,62.32979116552247,31.56963448643341,0.8094778073444786,12.951644917511146,12.951644917511146,12.951644917511205,64.7582245875559,87.42360319320045,76.70843368780854,"{'happy': (['m1', 'm3', 'm12', 'e1', 'e2'], 5.109427081033648, 65)}"
188,76,188,0,6.266666666666648,36.54883177543473,174.60830726309572,13.168612774500616,26.38861530625541,41.18482329416238,46.20757202135157,32.921531936251654,108.84039694329448,82.4518436415972,64.19698727569073,42.79799151712712,49.382297904377424,13.168612774500616,62.55091067887804,32.921531936251654,1.646076596812577,13.16861277450073,14.81468937131325,14.814689371313309,67.48914046931583,83.9499064374416,74.36550692232066,"{'happy': (['m1', 'm3', 'm12', 'e1', 'e2'], 5.109427081033648, 65)}"
189,76,189,0,6.299999999999981,29.67201234291813,169.30101290244284,13.008130081300806,29.31342500377225,42.401316456602565,43.93254011741882,32.52032520325213,104.26809458134248,74.95564599425119,60.16260162601634,40.65040650406513,48.780487804878135,12.195121951219448,59.34959349593498,26.82926829268297,0.8130081300813572,16.260162601626064,16.260162601626064,16.26016260162612,66.66666666666663,79.67479674796749,71.83974645325043,"{'happy': (['m1', 'm3', 'm12', 'e1', 'e2'], 5.109427081033648, 65)}"
190,76,190,0,6.333333333333314,31.44611916240596,171.30693674985147,13.167720833780775,28.17438427766104,41.18203375045194,46.20444227520717,32.919302084451715,105.54731177627193,77.43036928826291,61.72369140834701,41.14912760556467,47.73298802245506,11.521755729558208,60.90070885623561,29.627371876006464,1.1368683772161605e-13,18.105616146448483,18.10561614644837,18.10561614644837,65.83860416890337,80.65229010690666,76.16035456302603,"{'happy': (['m1', 'm3', 'm12', 'e1', 'e2'], 5.109427081033648, 65)}"
191,76,191,0,6.366666666666648,31.190389843078968,172.2545580418092,13.21670498369389,29.68953799814839,42.65410680088777,47.65350751138861,32.82756757572579,106.669913897642,77.06597096828085,61.47489355486243,40.98326236990829,47.540584349093706,11.475313463574366,62.29455880226067,27.86861841153768,0.0,19.671965937555967,18.03263544275967,18.03263544275967,63.933889297056965,70.49121127624227,62.638730254587735,"{'happy': (['m1', 'm3', 'm12', 'e1', 'e2'], 5.109427081033648, 65)}"
192,76,192,0,6.399999999999981,26.43163421473844,168.9112990726323,13.11376293833655,31.18829452441,41.11143766022901,45.9274327482817,32.825362274171525,103.47882874768334,72.29314931167606,59.01193322251447,40.98050918230172,45.89817028417792,10.654932387398503,59.831543406160336,25.407915693026894,0.8196101836459775,16.392203672920687,18.1057807434672,17.211813856566664,63.92959432439056,80.3217979973112,72.58989001232204,"{'happy': (['m1', 'm3', 'm12', 'e1', 'e2'], 5.109427081033648, 65)}"
193,76,193,0,6.433333333333314,29.68355572193993,170.5269221308005,13.112001430806233,31.313054450015105,41.007771373324296,44.2833462825385,31.1410033981648,105.10068678535907,73.82781656359411,59.00400643862815,40.97500447126947,45.89200500782181,12.292501341380785,61.46250670690449,27.043502951038025,0.8195000894253326,18.029001967358624,18.029001967358624,18.02900196735868,62.28200679632977,73.75500804828522,66.07020945701213,"{'happy': (['m1', 'm3', 'm12', 'e1', 'e2'], 5.109427081033648, 65)}"
194,76,194,0,6.466666666666647,28.4093831908399,175.99799665492574,13.380879902841288,28.263568456321483,41.62491093024631,44.842459496675005,33.235344193211255,103.02141223975887,74.75995271130513,60.57882688714324,41.49234718297487,46.47142884493189,10.78801026757344,58.91913299982423,25.7252552534444,2.4895408309785125,18.25663276050897,18.331918163457136,19.08647970416837,64.7280616054407,86.30408214058764,80.09635240931883,"{'happy': (['m1', 'm3', 'm12', 'e1', 'e2'], 5.109427081033648, 65)}"
195,76,195,0,6.4999999999999805,26.79437063907997,172.95169734235097,14.813685938003346,29.673057904494843,41.18203375045194,44.471528203475096,31.31662189641926,102.38114645767632,72.7211151913229,59.25474375201316,39.5031625013421,46.08702291823249,11.521755729558208,59.25474375201304,26.335441667561327,1.645965104222455,16.4596510422258,18.1802787978307,18.105616146448423,62.54667396045824,83.94422031535186,79.43380526285839,"{'happy': (['m1', 'm3', 'm12', 'e1', 'e2'], 5.109427081033648, 65)}"
196,76,196,0,6.533333333333314,26.98451105473833,174.11726302922722,15.061575000123185,30.308524980679337,38.63594007617458,43.51121666702238,30.12315000024625,102.30324940997222,72.03865387916319,58.572791667145566,40.16420000032838,45.18472500036944,12.551312500102654,59.40954583381904,25.939379166878663,0.8367541666734724,16.73508333347013,18.48450370708916,18.408591666817188,66.94033333388052,87.0224333340447,77.6334725818359,"{'happy': (['m1', 'm3', 'm12', 'e1', 'e2'], 5.109427081033648, 65)}"
197,76,197,0,6.566666666666647,28.28113443552073,173.5126267296425,14.869813635303784,31.435277704408783,39.68724229904944,44.64002674488768,31.391828785641337,105.85700363688149,74.42246312842511,60.30535529873202,42.9572393908777,46.26164242094512,13.21761212027002,61.13145605624902,26.43522424054015,0.0,19.826418180405085,18.249162206691583,19.0003174228882,62.783657571282674,85.91447878175524,78.09165023604731,"{'happy': (['m1', 'm3', 'm12', 'e1', 'e2'], 5.109427081033648, 65)}"
198,76,198,0,6.59999999999998,28.170568549283555,171.22838263818613,14.811679682915267,31.312380606825148,41.17645636308923,46.11016012379315,31.312380606825258,105.5330172359285,74.22279017826334,60.06958982515653,41.14355467476469,46.08078123573648,12.343066402429372,61.71533201214697,25.50900389835408,0.8228710934952232,18.10316405689639,18.17781659652639,18.926035150391726,62.53820310564231,85.5785937235105,77.78634874484476,"{'happy': (['m1', 'm3', 'm12', 'e1', 'e2'], 5.109427081033648, 65)}"
199,76,199,0,6.633333333333313,34.72167191138291,171.30693674985147,13.167720833780663,29.673057904494843,41.18203375045183,46.08702291823238,31.273336980229143,108.7458638645632,79.07487714139694,61.72369140834701,41.14912760556467,47.73298802245506,13.167720833780775,64.19263906468075,29.627371876006464,1.6459651042226824,9.875790625335526,11.521755729558096,10.698773177446697,67.48456927312594,83.9442203153518,71.08206592983869,"{'happy': (['m1', 'm3', 'm12', 'e1', 'e2'], 5.109427081033648, 65)}"
200,76,200,0,6.666666666666647,40.818964673872166,171.3206387902391,15.25423728813564,32.24796201769571,40.818964673872166,47.48788381736235,30.55551928359311,118.83761452852956,86.59010016572746,66.10169491525426,45.76271186440681,52.54237288135596,18.644067796610216,69.49152542372883,32.20338983050851,5.084745762711918,10.169491525423837,11.864406779661069,11.016949152542338,76.27118644067792,76.27118644067792,64.42907731779052,"{'happy': (['m1', 'm3', 'm12', 'e1', 'e2'], 5.109427081033648, 65)}"
201,76,201,0,6.69999999999998,41.696729247588586,168.52631213222074,13.436046597024273,33.496968555284525,41.796522120867046,46.69277135679465,28.33112005103237,116.84785923728136,83.39345849517728,62.49511775963015,44.996484786933706,53.32916715488443,20.83170591987676,67.49472718040045,30.830924761417464,7.499414131155618,8.497701998950246,8.332682367950724,7.499414131155731,78.32721425873643,73.32760483796602,71.68044407606263,"{'happy': (['m1', 'm3', 'm12', 'e1', 'e2'], 5.109427081033648, 65)}"
202,76,202,0,6.733333333333313,41.796522120867046,168.61692875533748,13.43604659702426,30.18225923022414,41.796522120867046,45.119763058464535,33.37236687650879,118.5117196172859,88.38929889691947,67.49472718040056,48.32955773411391,58.32877657565473,19.998437683081647,64.99492247001535,31.66419299821257,6.666145894360511,9.99921884154088,10.137145616929429,9.99921884154071,66.6614589436054,56.66224010206463,65.18693152192047,"{'happy': (['m1', 'm3', 'm12', 'e1', 'e2'], 5.109427081033648, 65)}"
203,76,203,0,6.766666666666646,39.8014876083996,175.4630998802802,13.221334549328844,28.143901789211696,41.44867294502996,44.74425639911945,31.44413070978793,112.57560715684669,84.43170536763498,64.4540059279783,44.62200410398498,54.53800501598175,18.17933500532729,62.801339109312266,31.400669554656133,4.9580004559984445,9.91600091199672,10.05277979964944,9.916000911996775,74.37000683997513,76.02267365864122,77.69292004989352,"{'happy': (['m1', 'm3', 'm12', 'e1', 'e2'], 5.109427081033648, 65)}"
204,76,204,0,6.799999999999979,31.57415523707317,168.86341073527004,14.965534548041944,29.93106909608388,41.61308720789241,44.74425639911934,33.0946272530982,109.52580991976149,79.6029752167992,63.627672518645454,44.62200410398509,54.53800501598175,16.52666818666114,59.49600547198008,28.09533591732395,1.6526668186661482,11.68611914520809,13.324225864146786,12.395001139995884,77.67534047730732,67.75933956531065,76.0944948117953,"{'happy': (['m1', 'm3', 'm12', 'e1', 'e2'], 5.109427081033648, 65)}"
205,76,205,0,6.833333333333313,34.430530747119455,165.13915710627225,14.779870816157532,26.16557443333672,37.68142484998357,39.20591721058525,31.011110098929635,106.29133167239692,80.12577316205082,62.83830204256799,44.068419614268464,53.86140175077264,17.95380058359092,57.12572912960729,29.37894640951231,3.2643273788346505,11.425145825921447,11.541140127934616,12.241227670630169,73.44736602378089,63.654383887276765,78.49672330001016,"{'happy': (['m1', 'm3', 'm12', 'e1', 'e2'], 5.109427081033648, 65)}"
206,76,206,0,6.866666666666646,33.68753725759251,166.98175912396297,13.325932093055371,28.366555787342307,36.79743271457968,40.11636791227258,33.35644777570149,108.59306069076732,80.23273582454503,63.298177442013184,44.97502081406196,56.635211395485385,17.490285872135132,57.46808215130136,25.81899343029488,4.164353779079761,13.429637408817042,15.083930928410233,14.991673604687264,73.29262651180466,84.95281709322813,80.23273582454503,"{'happy': (['m1', 'm3', 'm12', 'e1', 'e2'], 5.109427081033648, 65)}"
207,76,207,0,6.899999999999979,22.996935891606988,154.44205707412922,14.836921115511824,31.302807730490954,37.8268751448157,41.09246407830565,34.44672961556809,103.54780369957986,72.25978487421004,60.62316211840903,49.15391523114249,60.62316211840903,20.48079801297604,48.33468331062341,13.926942648823683,5.734623443633268,14.746174569342712,16.46635781213672,15.565406489861743,72.09240900567556,72.09240900567556,65.62042569548274,"{'happy': (['m1', 'm3', 'm12', 'e1', 'e2'], 5.109427081033648, 65)}"
208,76,208,0,6.933333333333312,15.423585953767592,149.64946506039843,18.402150591859023,26.975069308104025,33.83276944418048,37.14491380128485,41.8565146098876,102.39052781098422,75.44863195823652,67.7533726336627,51.86060621342085,66.91691124312376,17.565689201320083,42.65953091749134,10.873998077007514,0.8364613905389433,15.056305029702798,16.729227810781026,16.729227810781026,70.26275680527993,80.3002934917485,77.02714936095025,{}
209,76,209,0,6.9666666666666455,23.45224369828532,153.65247151515555,15.016763004667355,23.452243698285454,33.331900990750746,38.46453958857864,43.14830450003277,104.94715281053334,81.52817593468112,69.64961032300778,49.74972165929125,67.991286267698,15.754078525442196,45.60391152101704,17.412402580751973,0.8291620276547746,14.924916497787422,16.583240553097085,16.583240553097085,67.991286267698,77.94123059955626,74.79023104456823,{}
210,76,210,0,6.999999999999979,23.828104548182605,154.01070032986397,15.07021653937488,23.53572409430065,36.95183636580333,40.25228133635292,43.26990227876058,105.32072175301955,81.81838289743445,69.89753445030556,49.926810321646826,66.56908042886243,14.978043096494048,46.5983563002037,18.30649711793717,0.0,16.72527446306151,18.30649711793717,18.30649711793717,69.89753445030556,78.21866950391336,80.03876572921905,{}
211,76,211,0,7.033333333333312,22.0100969749002,151.2179316367343,13.300520386645772,26.601040773291643,32.031894836590006,34.99598419819303,44.54261593351112,106.04546756641396,79.46135148891769,68.4636504163226,49.49179548167899,67.63878715829469,14.022675386475726,47.01720570759505,15.672401902531648,0.8248632580280173,18.221824949464686,18.221824949464686,18.97185493464349,70.93824019040659,77.53714625463044,75.95911311284304,{}
212,76,212,0,7.066666666666645,31.96918618623014,149.2563801844259,13.399463104576974,23.50421314055569,35.256319710833665,40.43817731619171,43.24391980015618,111.96001930261946,88.4770516066402,72.29694996691308,46.5359677947946,66.47995399256376,13.295990798512776,54.84596204386503,24.9299827472114,0.0,18.35737730634663,19.94398619776905,19.943986197769163,74.78994824163419,78.11394594126239,78.27291173902712,{}
213,76,213,0,7.099999999999978,18.72449062939617,155.60941720522794,16.831223718402512,33.662447436805024,37.18591441068597,40.748897133891866,42.0030017526162,111.15473358522004,77.49315438753351,67.82815890404777,41.869233891387466,63.641235514909,10.886000811760823,57.77954277011463,19.25984759003813,5.861692744794141,18.724490629396065,20.16689359378868,20.097232267866048,75.3646210044974,77.03939036015288,72.03455372311996,{}
214,76,214,0,7.133333333333312,22.035685628127386,154.00395380610632,15.1708684504057,32.0073669267626,37.461789438358,42.4162754880529,40.34758201914559,109.52689482229098,77.51965834580282,66.17601511693204,40.20821171661692,61.98765972978447,10.889724006583831,57.79930434263679,19.266434780878967,5.863697542006548,20.38141697001127,20.10410585830857,20.941776935738066,73.71505481379774,75.39039696865677,72.05919074842778,{}
215,76,215,0,7.166666666666645,16.943718444529498,158.1539785798401,18.35151706073161,33.60111666006504,37.151560346637616,40.42526819266367,38.35797404684434,107.16148463463716,73.575098686557,64.7972632361085,34.89083405021222,59.81285837179246,9.138075584579385,58.98212422773975,19.10688531321148,9.138075584579385,18.351517060731723,21.599087745369506,20.76835360131679,73.10460467663512,74.76607296474043,73.10460467663518,{}
216,76,216,0,7.199999999999978,23.609196983341462,168.57032778180576,15.117262143036092,28.57590728079162,38.97305667368361,43.9156449389719,36.87874461751198,104.16178645015852,75.58631071518036,63.43804848410116,30.049601913521656,53.42151451292739,5.008266985586943,61.76862615557218,26.71075725646369,11.685956299702866,20.30939917443858,20.03306794234777,20.86777910661226,75.12400478380403,75.12400478380403,71.80456939034983,{}
217,76,217,0,7.233333333333311,22.08895374790048,168.81816163490814,13.348172885320013,28.33994185360815,40.28338880230024,42.21062891931277,36.46162448331553,100.01199174287169,71.67206838321745,60.43075345947602,29.80146745946763,52.98038659460917,4.966911243244567,57.94729783785374,23.17891913514154,9.933822486489248,18.287109273987664,21.52328205406002,21.52328205406002,72.84803156758755,72.84803156758755,74.50366864866908,{}
218,76,218,0,7.266666666666644,21.59815187652501,167.21795865734452,14.869640383342722,26.477697318498723,39.95345972944882,43.47629713013002,36.16299643046032,99.016022468677,72.54933665407778,61.57789048937593,29.557387434900534,50.90438947121754,4.10519269929182,58.29373632994248,25.45219473560872,10.673501018158504,18.358979872704367,19.70492495660028,20.525963496458644,72.25139150753444,73.8934685872511,73.89346858725116,{}
219,76,219,0,7.299999999999978,24.75461590957551,168.00550470740006,13.188491670777807,24.75461590957564,39.565475012333216,41.41593456716523,35.988283408371785,98.49007236142984,73.77579963094556,61.34366490063383,31.08079021632113,50.71076298452397,4.907493192050765,57.254087240591616,26.17329702427048,8.179155320084533,18.289147294238056,17.99414170418595,19.629972768202947,73.61239788076068,73.61239788076068,73.63057153808751,{}
220,76,220,0,7.333333333333311,19.982287072416508,167.0627337317905,14.873776880180598,28.115651168952912,38.09828918932609,41.58563629761742,36.28475936131827,99.2204672500688,71.10483442870319,60.773753536878985,31.20814370812696,50.91855026062831,4.9276016381253385,57.48868577812868,22.99547431125154,9.855203276250675,21.416021634098065,21.35294043187628,21.35294043187628,73.91402457187968,73.91402457187968,73.9322726957405,{}
221,76,221,0,7.366666666666644,24.547546201291965,168.21130023333828,11.47031506197995,22.9406301239598,39.46855243144392,41.0694947144751,35.72409324145981,94.58664111931289,71.66881959630085,59.20838420750715,29.198655225619973,48.66442537603325,3.2442950250689364,55.153015426170896,25.95436020055104,9.732885075206582,17.91720489907522,19.46577015041328,21.0879176629478,72.99663806404993,72.99663806404993,73.01465970068135,{}
222,76,222,0,7.399999999999977,21.32862761408838,168.00550470740006,13.188491670777696,25.02340354909037,39.565475012333216,41.70567258181716,37.65965922710159,97.01181619060333,72.14367373619943,61.34366490063383,31.08079021632113,50.71076298452397,3.271662128033768,55.61825617657473,24.5374659602536,9.814986384101417,18.068344665196275,19.62997276820284,20.44788830021139,75.24822894477757,73.61239788076068,71.9765668167438,{}
223,76,223,0,7.4333333333333105,21.434063710293657,170.42392834545586,13.138268831311704,24.66034833661096,39.64992033500966,41.54685401854368,35.8882544153273,95.02129047299633,70.37540120976708,59.48046159204989,30.962432061615004,48.88805062360268,4.07400421863349,54.59165652968966,23.629224468074653,10.592410968447211,17.999538952140647,21.184821936894423,21.184821936894423,73.3320759354039,74.96167762285734,73.33207593540396,{}
224,76,224,0,7.466666666666644,23.121001022287803,171.1578853495814,13.180998584652333,26.36199716930468,38.16716357738596,39.77887425866906,36.00497422664179,98.58335007898906,72.23231629638438,60.491361459519,29.42822989922547,49.04704983204249,3.269803322136113,58.856459798451056,26.15842657708936,11.444311627476624,19.889437129334524,21.253721593885075,21.253721593885075,71.93567308699573,73.57057474806379,78.47527973126807,"{'others': (['m1', 'm3', 'm12', 'e1', 'e2'], 4.367586995763459, 167)}"
225,76,225,0,7.499999999999977,21.88437518466857,170.6955315636963,13.414292700986064,25.17844131086682,38.84269469458967,42.41971813528798,36.75538795665019,97.20290496632096,72.02709404782473,60.73009557270984,29.94908822763773,48.25130881119412,2.495757352303144,57.40241910297232,25.789492640465824,10.814948526646958,20.035265468983035,19.96605881842516,20.79797793585953,74.87272056909433,74.87272056909433,76.55464186595292,"{'others': (['m1', 'm3', 'm12', 'e1', 'e2'], 4.367586995763459, 167)}"
226,76,226,0,7.53333333333331,21.975629139541105,168.08539465719116,13.470227917342758,25.28343093601062,38.75336364519658,42.300673341257614,36.79502777245051,97.42215326122908,72.15354672989659,60.983329277306666,31.7447467470912,50.12328433751236,4.176940361459515,55.97100084355532,25.8970302410479,9.189268795210523,18.45432569583169,20.049313735004944,20.049313735004944,75.18492650626843,73.51415036168464,78.52647879543588,"{'others': (['m1', 'm3', 'm12', 'e1', 'e2'], 4.367586995763459, 167)}"
227,76,227,0,7.566666666666643,16.83199403992135,167.51688653773587,13.306859682132757,28.252228442479005,39.92057904639815,45.05023236975454,36.46101967534537,94.78600620106964,66.53429841066354,57.7679483111209,31.35974336889421,47.864871457785966,3.3010256177783504,54.46692269334267,21.456666515559164,9.903076853335053,14.94602915992048,14.946029159920467,15.679871684447107,72.62256359112348,74.27307640001266,69.34118415142791,"{'others': (['m1', 'm3', 'm12', 'e1', 'e2'], 4.367586995763459, 167)}"
228,76,228,0,7.599999999999976,23.113858684679265,170.76120837783614,13.075172972259452,26.353853651485515,41.1530553986721,42.776253187796655,36.1050014601937,98.55289657188656,72.21000292038741,60.47267499669988,32.68793243064852,49.03189864597289,4.903189864597266,57.20388175363496,26.150345944518904,8.171983107662186,11.898587007424911,11.440776350726992,11.440776350726992,71.91345134742693,60.472674996699936,65.37586486129715,"{'others': (['m1', 'm3', 'm12', 'e1', 'e2'], 4.367586995763459, 167)}"
229,76,229,0,7.63333333333331,18.37338375160064,171.54877250693755,14.88130663608649,29.76261327217298,41.21539459708466,44.85514612262641,34.51067343802629,97.30610645074437,67.55811006931789,58.33947176428239,32.86730803621549,47.65759665251244,5.751778906337677,56.6961063624716,22.185432924445426,7.395144308148474,11.963880713424098,11.620348195877476,11.503557812675352,72.30807767967394,64.09125067062007,65.73461607243087,"{'others': (['m1', 'm3', 'm12', 'e1', 'e2'], 4.367586995763459, 167)}"
230,76,230,0,7.666666666666643,24.383680905952808,168.2034892417618,12.990869004219382,25.83140846500637,40.57197545964177,42.38718471415491,37.060336747494944,100.10947354627316,74.27813527082074,62.03578107732858,33.83769876945189,48.33956967064557,4.028297472553732,58.81314309928564,28.19808230787669,7.250935450596899,9.801270770778142,9.801270770778048,9.667913934129048,67.6753975389039,64.45275956086084,62.84144057183937,"{'others': (['m1', 'm3', 'm12', 'e1', 'e2'], 4.367586995763459, 167)}"
231,76,231,0,7.699999999999976,16.831994039921376,172.16043317644912,14.94602915992048,31.53300293806698,39.74961218349416,43.198054176437694,37.96179460445092,101.0189349875698,69.4981536429616,61.06897392889937,34.660768986672565,47.864871457785966,3.3010256177783504,59.41846112001019,23.10717932444834,9.903076853335053,11.670887996007918,11.670887996007934,12.37884606666887,70.9720507822343,80.8751276355693,74.43794469699498,"{'others': (['m1', 'm3', 'm12', 'e1', 'e2'], 4.367586995763459, 167)}"
232,76,232,0,7.733333333333309,18.391241968941426,174.74583509525718,16.531670429131115,31.297549652325987,41.41910218781078,44.687312069194284,36.189179165216274,102.19971957997538,70.90533392604925,61.68610084980048,36.189179165216274,47.70391799051242,5.757369412648131,60.04113816047232,23.851958995256155,10.692257480632064,10.005917410383052,13.15970151462409,13.15970151462409,69.0884329517765,82.24813446640059,77.5927348702878,"{'others': (['m1', 'm3', 'm12', 'e1', 'e2'], 4.367586995763459, 167)}"
233,76,233,0,7.766666666666643,23.28849966172824,174.50408324522633,15.025029160766897,28.25578623491208,43.26760474519547,46.57699932345637,38.19850202646591,104.7424095048535,76.48704180256745,64.71023908216,39.82168558902151,49.777106986276976,6.636947598170309,59.73252838353221,26.54779039268101,8.296184497712716,11.732576632614938,13.273895196340504,13.273895196340504,71.34718668033031,87.93955567575591,78.42417915660506,"{'others': (['m1', 'm3', 'm12', 'e1', 'e2'], 4.367586995763459, 167)}"
234,76,234,0,7.799999999999976,26.66088151274971,175.03343343474873,16.746158947035937,30.039742294777643,43.35596494500344,48.35156860486505,38.32501717457762,111.6921707096374,81.66595097595415,68.31850887642099,43.32393245821822,48.32284774185871,7.498372925460785,65.81905123460069,32.49294934366367,7.498372925460899,14.996745850921684,14.996745850921684,14.996745850921684,74.98372925460836,91.64678020007688,82.47789423158402,"{'others': (['m1', 'm3', 'm12', 'e1', 'e2'], 4.367586995763459, 167)}"
235,76,235,0,7.833333333333309,30.04599981402796,178.33957324541822,18.333174191887,31.666391785986548,43.332957180823655,48.33291377861099,36.70420729771442,116.66565394837164,84.9992621623851,69.99939236902298,48.3329137786111,46.66626157934866,10.833239295205884,69.16606626939176,34.16637008488033,5.833282697418667,18.40877523094293,14.999869793362109,15.83319589299333,78.3326533653352,93.33252315869726,85.40677846039219,"{'others': (['m1', 'm3', 'm12', 'e1', 'e2'], 4.367586995763459, 167)}"
236,76,236,0,7.866666666666642,39.64776343836047,178.53726317672417,14.86791128938512,28.083832435505315,44.6343157941811,47.93618828151132,36.49365505839406,118.98917008161496,90.9195104029065,71.03557616039575,52.86368458448055,46.25572401142051,13.215921146120197,69.38358601713071,37.99577329509532,1.6519901432650386,14.959406991671608,14.95940699167162,15.69390636101764,74.33955644692571,85.90348744978087,79.45025000311679,"{'others': (['m1', 'm3', 'm12', 'e1', 'e2'], 4.367586995763459, 167)}"
237,76,237,0,7.899999999999975,41.62297103042033,176.8657946844449,13.423004827888516,28.352546214991666,44.98362997716259,48.39733217775272,36.66603404653674,119.97816887053492,91.6310587694126,70.75905075171465,56.6072406013717,44.952808712854,14.15181015034284,69.09413191049794,39.1255927685952,4.162297103041965,18.389629665556864,16.97890731982571,15.816728991559785,71.59151017232307,78.25118553719034,76.65862029425084,"{'others': (['m1', 'm3', 'm12', 'e1', 'e2'], 4.367586995763459, 167)}"
238,76,238,0,7.933333333333309,39.82712375942938,176.13344060888906,13.264198851396031,29.89046817916184,46.54297565178809,48.19693173554376,38.278476253241294,121.2173796906508,91.32692293074491,71.29506882625367,56.37284511843313,44.766671123461606,12.435186423183836,70.46605639804136,38.963584125975785,4.145062141061317,16.662943583793087,16.90860219386084,15.75123613603273,66.32099425698016,74.61111853910268,72.9719324418515,"{'others': (['m1', 'm3', 'm12', 'e1', 'e2'], 4.367586995763459, 167)}"
239,76,239,0,7.966666666666642,41.42402653414888,166.7515060180692,13.348172885320013,26.69634577063991,43.33216921425408,45.19009778112764,38.22335017873773,119.61906299999336,92.9518952075905,72.0202130270468,61.258572000016784,41.39092702703829,13.245096648652291,67.88112032434287,39.73528994595688,6.622548324326203,16.638946738585055,15.706752464551446,14.900733729733702,61.258572000016784,79.4705798919137,69.85140497347838,"{'others': (['m1', 'm3', 'm12', 'e1', 'e2'], 4.367586995763459, 167)}"
240,76,240,0,7.999999999999975,44.82548482197402,160.312447597343,13.375814701554082,30.046956433387287,40.127444104662246,45.07043465008104,36.64995759006707,124.8274626813092,94.79930605129516,72.16935474934371,61.38542817760265,43.13570628696402,15.761123451006142,72.1693547493436,42.30617347375312,7.465795318897676,11.731365548762868,11.129350559436585,9.95439375853016,63.04449380402434,81.29421569466291,64.89470773294406,"{'others': (['m1', 'm3', 'm12', 'e1', 'e2'], 4.367586995763459, 167)}"
241,76,241,0,8.033333333333308,38.95915586876182,153.45195644459733,15.281038154455402,32.23980201465876,39.141464566227846,42.7242992859446,39.14146456622796,125.60323244304816,93.36360202321976,73.40661380809411,67.50033453617846,45.56272581192047,17.71883781574695,68.34408871788048,36.28142981319581,7.593787635320154,11.93248607072304,11.320150239515364,10.125050180426795,69.18784289958285,87.75043489703194,67.68991300618602,"{'others': (['m1', 'm3', 'm12', 'e1', 'e2'], 4.367586995763459, 167)}"
242,76,242,0,8.066666666666642,26.59318565784844,149.20317493533247,15.02141103817418,30.27094093338852,37.092730664608574,40.36125457785124,41.99840707190588,113.78463423221604,83.53691416908617,69.67116847921079,66.35349378972455,44.788608308064,14.100117430316573,57.22988839363745,27.3708161882613,5.805930706600975,12.07651815817222,10.49140855426829,9.953024068458603,72.98884316869709,101.18907802933,85.18416463088103,"{'others': (['m1', 'm3', 'm12', 'e1', 'e2'], 4.367586995763459, 167)}"
243,76,243,0,8.099999999999975,16.8654808542314,148.5197618437347,14.975763896159174,25.02648170088602,35.35413030912423,40.23860458745177,43.28399558155731,100.10592680354434,75.07944510265831,66.15185844757787,64.4980619863884,44.65250445211507,11.576575228326078,44.65250445211507,19.84555753427344,3.3075929223788307,12.039819971962382,9.643207609061166,8.268982305947247,67.80565490876728,89.30500890423008,76.23624998624881,"{'others': (['m1', 'm3', 'm12', 'e1', 'e2'], 4.367586995763459, 167)}"
244,76,244,0,8.133333333333308,19.523452116163288,149.03935588539662,14.681807876940926,24.53524232325962,34.39369751201456,35.99946694895924,42.43438342652887,101.16139564892434,76.63271192115945,66.47471242491997,63.23204352614346,42.1546956840956,10.538673921023928,47.829366256954586,23.50934951613021,0.8106672246941571,11.80349295882291,12.34771529526204,10.538673921023928,68.09604687430834,98.90140141268591,83.25832613793675,"{'others': (['m1', 'm3', 'm12', 'e1', 'e2'], 4.367586995763459, 167)}"
245,76,245,0,8.166666666666641,13.216372009101748,148.36260607746163,16.847634693327898,28.278481025029844,35.0451985136998,38.318932805516845,43.080102094894734,101.2611522781501,72.98980008898893,66.08186004550896,64.42981354437131,44.60525553071864,11.5643255079641,46.25730203185629,18.17251151251492,0.0,12.58161131300132,14.1150914931595,11.564325507964211,66.0818600455089,104.0789295716766,83.92981576173706,"{'others': (['m1', 'm3', 'm12', 'e1', 'e2'], 4.367586995763459, 167)}"
246,76,246,0,8.199999999999974,11.634102417359417,147.75768098475407,16.53516630990962,33.070332619819354,38.410161360347615,40.0321332736852,39.79475300807919,101.0226032378088,67.95750001762586,61.69914534250256,62.52180061373599,42.77807410413516,13.162484339733853,47.714005731535394,14.807794882200596,3.290621084933491,15.169013692324729,14.057539437046254,13.162484339733965,67.45773224113623,98.71863254800422,76.32538681880034,"{'others': (['m1', 'm3', 'm12', 'e1', 'e2'], 4.367586995763459, 167)}"
247,76,247,0,8.233333333333308,21.476948240774576,148.1570665645401,14.91609140382351,31.469840519416188,38.20667530884681,41.70394359807632,38.2066753088468,106.0499278164744,74.5804570191174,63.417459366650974,64.2410627350489,42.8273751566993,15.648463999563091,51.88701220907808,20.59008420995167,5.76522357878639,16.798278587689982,17.197343215693913,15.648463999563203,64.24106273504896,97.1851974709715,79.49372609581022,"{'others': (['m1', 'm3', 'm12', 'e1', 'e2'], 4.367586995763459, 167)}"
248,76,248,0,8.26666666666664,23.104959874189028,151.3214381052528,14.906614891922148,29.813229783844296,38.42999754180234,38.429997541802464,36.55068875853083,104.34630424345502,74.53307445961073,62.554088782749886,62.554088782749886,41.15400577812488,15.638522195687417,51.854047280437385,22.22316312018745,5.761560808937475,16.787606282013414,17.186417375723984,16.461602311249862,62.554088782749886,103.70809456087476,83.11071590453352,"{'others': (['m1', 'm3', 'm12', 'e1', 'e2'], 4.367586995763459, 167)}"
249,76,249,0,8.299999999999974,21.49025416737113,151.51144694293092,14.925332587212347,31.489337488131635,38.23034604695432,40.10309994718034,36.59658413181233,104.47732811048633,72.98874362906828,61.80852205426868,64.28086293643935,42.8539086242929,17.306386175195144,50.270931270805136,18.95461342997578,7.417022646512237,16.808685869922478,17.207997736248636,16.482272547804996,65.92909019121987,100.54186254161029,81.36635400611762,"{'others': (['m1', 'm3', 'm12', 'e1', 'e2'], 4.367586995763459, 167)}"
250,76,250,0,8.333333333333307,18.26795841132639,152.66014956734168,15.311114065200211,33.38012907011647,40.16754252199427,42.04616050473742,36.87404562455694,103.61903202319895,70.2429106909422,60.61640745576506,64.768216185612,43.178810790407965,17.43759666535709,48.99134301219374,15.776873173418268,7.473255713724484,18.34329051818752,19.438270107825627,17.43759666535709,63.10749269367318,107.94702697601991,83.05278017146641,"{'others': (['m1', 'm3', 'm12', 'e1', 'e2'], 4.367586995763459, 167)}"
251,76,251,0,8.36666666666664,19.50349532433279,149.4030828406549,16.574783873673006,31.051146248433227,39.31055157437663,41.14908847413196,35.90385782571327,102.8566711468228,71.80771565142642,61.761068527053794,65.01165108110933,43.88286447974883,18.69084968581888,47.94609267231806,17.065558408791162,7.313810746624767,17.951928912856644,18.53117172695016,17.878204047304962,63.38635980408151,110.51980683788572,82.8739193683654,"{'others': (['m1', 'm3', 'm12', 'e1', 'e2'], 4.367586995763459, 167)}"
252,76,252,0,8.399999999999974,21.4633034761981,149.93619219599742,16.78760628201355,29.81322978384417,39.81530423498525,43.30371469659328,38.00456010776186,105.6752813596492,75.8842371734222,65.02332912943734,67.4925694761248,44.4463262403749,18.107762542374985,49.384806933749815,19.7539227735,6.584640924499922,18.404630893261203,17.729688287117494,17.284682426812424,64.20024901387484,111.9388957164997,84.64529656918418,"{'others': (['m1', 'm3', 'm12', 'e1', 'e2'], 4.367586995763459, 167)}"
253,76,253,0,8.433333333333307,19.634899187131623,142.31539938640964,16.444024555326546,31.473735573056075,37.9523408328518,41.42632848092216,37.95234083285181,105.34397388034988,73.9211870135687,63.81342235817749,67.0859055560328,45.81476476997364,18.8167783876678,48.26912716836489,15.544295189812374,7.363087195174444,19.90573817694441,19.15171689688396,17.99865758820397,62.17718075924984,109.62818712815108,80.57555418610852,"{'others': (['m1', 'm3', 'm12', 'e1', 'e2'], 4.367586995763459, 167)}"
254,76,254,0,8.46666666666664,19.71632401718926,135.93963041330113,19.716324017189148,34.53996960784783,36.355105162173366,41.45443118390465,39.60225160432807,113.55714986923026,79.01811947930346,68.76876673629033,72.04346991420903,50.75789925773813,22.10424645095054,51.57657505221778,17.192191684072554,7.368082150316923,21.53599774969992,20.711041406428656,19.64821906751149,68.76876673629039,112.97725963819136,81.57232374159271,{}
255,76,255,0,8.499999999999973,11.476470093747594,131.26208670172784,19.74214286636335,36.21764439668439,34.58520026367426,38.02781978628857,41.50871644039593,108.81361675790473,72.60208384577147,66.3995769709685,73.77730774552049,52.463863285703496,22.13319232365609,45.08613251115139,9.0172265022303,7.377730774551992,23.185970935353065,21.873601233253435,21.313444459816992,67.2193248348076,104.92772657140694,81.39894031405022,{}
256,76,256,0,8.533333333333307,24.266254059972084,127.43313696505622,14.649351758195955,32.51637801243201,34.12647934544442,37.52343767262015,40.95816544242807,112.19771683468186,79.68138594528007,67.13663623258958,71.18101190925154,53.38575893193865,21.839628653974955,49.341383255276696,15.368627571315756,10.51537675932127,19.480292889077138,20.01046572546772,20.221878383310013,67.94551136792205,103.53601732254788,82.90082299837496,{}
257,76,257,0,8.56666666666664,24.49326459795111,132.0921656318188,14.78639628165023,31.19621087338904,36.07159332984827,39.325061626615096,42.95447964637029,113.24732523306535,82.05142092153734,69.39758302752807,73.47979379385333,53.8851821154924,21.227495984891,48.98652919590222,14.695958758770644,9.797305839180469,21.29020659709696,20.197663410710856,19.59461167836093,70.21402518079321,102.87171131139468,90.17898332462065,{}
258,76,258,0,8.599999999999973,21.128786601360503,132.64806567775574,16.252912770277362,32.66795036444285,37.52276288937477,40.76209785364035,43.03186942677352,112.7207170232141,80.0528140014615,69.07487927367856,69.88752491219248,53.63461214191523,19.50349532433279,50.384029587859686,16.252912770277362,6.501165108110854,21.684090224458863,20.55848918644532,20.31614096284659,68.2622336351647,105.64393300680253,84.90494252582036,{}
259,76,259,0,8.633333333333306,14.882311467812404,132.7151686953048,18.15278979575523,36.19381253432277,39.58015222035469,44.64693440343726,41.60949817614827,110.71225818442448,74.61093100799035,66.56079285992439,70.66948377720371,52.59124374117482,20.543454586396365,48.48255282389562,9.0391200180145,7.3956436511026595,21.616556626052528,18.73851365283944,18.89997821948475,69.0260074102921,108.4694402161732,81.34792986341722,{}
260,76,260,0,8.66666666666664,19.778727057365927,136.3652828101109,18.20526506741801,36.41053013483614,39.86529886743265,42.98050833474227,38.47825269491436,112.67173495927908,76.265026398488,65.92909019121987,70.87377195556132,52.74327215297592,23.89929519431712,50.270931270805136,14.009931665634213,9.065249901292646,33.00572505557027,32.002784448267555,32.14043146821973,74.17022646512225,115.37590783463467,85.0874871368542,{}
261,76,261,0,8.699999999999973,24.692403466874907,138.051908286261,16.543705575241844,34.725788117898645,38.00456010776186,44.719844675766446,38.42999754180234,114.1680658785344,79.44322203137173,66.66948936056224,69.13872970724981,49.384806933749815,21.400083004625003,54.32328762712484,18.10776254237487,8.230801155625045,23.5694276307293,20.82246289577682,21.40008300462489,70.78488993837482,113.58505594762472,86.60742939318646,{}
262,76,262,0,8.733333333333306,26.21806099159176,142.2873397428039,14.83841499087744,32.936031499057314,36.38346411534257,43.10559399121604,40.1714791169454,113.82279494927094,80.89251746871271,67.18378129095379,68.8224101029283,49.158864359234485,19.663545743693703,54.074750795158025,21.30217455566833,9.831772871846852,21.55279699560801,22.287761460835103,21.302174555668216,70.46103891490276,108.14950159031588,79.26628701555923,{}
263,76,263,0,8.766666666666639,28.019863331268425,148.496037246682,11.65472668791782,33.128957811770995,38.47825269491427,43.3580895994469,40.406787834770384,112.85242423175966,79.73059773486541,65.10497656382961,67.57731744600028,44.50213587907342,16.482272547804996,56.03972666253685,23.07518156692697,9.88936352868302,23.30945337583556,22.41831439759093,22.2510679395366,69.2255447007808,108.78299881551273,88.34559586426364,{}
264,76,264,0,8.799999999999972,31.06313156029364,147.2954759439166,11.560500511143958,29.60932840790417,39.542995753957015,44.62413095865917,40.08010688931945,111.94003454131412,82.3315439384993,66.21351727325748,67.03096810379145,44.14234484883832,16.349016610680792,55.58665647631494,26.15842657708947,9.809409966408452,22.946938313172623,23.804527501485843,22.888623254953245,70.30077142592762,107.90350963049356,81.1708505743302,{}
265,76,265,0,8.833333333333306,31.30416800966108,144.98351028874535,11.634102417359513,28.163179985179102,38.16269340940017,41.65593579213594,40.33528375346409,111.22591330200666,83.0678171445291,66.63507696990291,67.45773224113623,44.4233846466019,16.453105424667456,54.29524790140226,24.67965813700096,9.871863254800472,21.45222489150873,22.378642821072845,21.38903705206758,70.74835332606966,108.59049580280464,81.43871692151625,{}
266,76,266,0,8.866666666666639,29.49110374820989,145.51907630565287,11.56736257611623,29.49110374820989,39.56646762749773,43.03307631610736,41.416973606496605,111.8271449218263,82.38041417584179,67.07075624772551,67.07075624772551,45.80441890088571,15.540784984229049,54.80171547070256,25.35601760584745,8.997296569816854,26.37764508499848,25.02403133404227,24.538081554045903,67.07075624772551,106.33168673419895,82.83394721299318,{}
