,video_id,frame_seq,time_seconds,m1,m3,m4,m5,m6,m7,m8,m9,m10,m11,m12,m13,m14,m15,m16,m17,e1,e2,e3,b1,b2,b3,label_measures
0,277,0,0.0,14.9528792204563,139.15017965709757,23.642577957022468,33.43565439628442,42.81852981185517,42.818529811855626,29.905758440912567,101.08411785269249,67.70204013264187,59.10644489255617,56.74218709685397,80.38476505387644,40.19238252693822,30.735351344129185,7.092773387106718,16.54980456991575,24.11079327089927,28.76243746332615,26.00683575272473,66.19921827966294,42.55664032264048,57.52487492665219,"{'others': ['m1', 'm3', 'm12', 'e1', 'e2']}"
1,277,1,0.0333666666666666,14.93098703012446,138.94645285820812,23.60796336481326,33.386701970525934,42.755840119084425,42.755840119084425,29.861974060248727,100.9361227599124,67.60291902515566,59.019908412032976,56.6591120755516,80.26707544036475,40.13353772018252,30.69035237425703,7.082389009444,16.52557435536926,24.075493174673184,23.607963364813145,23.607963364813145,66.1022974214768,37.77274138370103,52.7890108940472,"{'others': ['m1', 'm3', 'm12', 'e1', 'e2']}"
2,277,2,0.0667333333333332,14.779378678743363,136.81905541595714,23.83103205354739,28.041899416175283,42.32169986972956,42.32169986972999,28.42870250785049,94.51871981731682,66.91648301919874,58.4206237836986,60.75744873504652,79.45204834583012,42.062849124262925,23.36824951347944,9.3472998053918,18.694599610783484,23.36824951347944,23.83103205354739,23.36824951347944,60.75744873504652,37.38919922156708,53.28780764570804,"{'others': ['m1', 'm3', 'm12', 'e1', 'e2']}"
3,277,3,0.1000999999999998,14.907119849998708,134.08123574079178,23.570226039551585,33.33333333333332,38.0058475033046,42.68749491621888,24.03700850309324,95.33566430716728,62.00358412579428,54.2115198909687,56.56854249492381,80.13876853447539,44.78342947514796,25.9272486435068,11.785113019775736,16.499158227686053,24.03700850309333,24.03700850309324,23.570226039551585,65.99663291074444,32.99831645537222,53.74838498865711,"{'others': ['m1', 'm3', 'm12', 'e1', 'e2']}"
4,277,4,0.1334666666666664,9.428090415820634,134.08123574079178,24.03700850309333,33.33333333333332,42.68749491621933,43.46134936801755,24.03700850309324,90.6764700582363,57.348835113617554,51.85449728701349,51.85449728701349,75.42472332656507,40.06938426723764,25.9272486435068,11.785113019775736,16.499158227686053,19.436506316151085,19.43650631615097,18.856180831641268,70.71067811865476,37.712361663282536,53.74838498865711,"{'others': ['m1', 'm3', 'm12', 'e1', 'e2']}"
5,277,5,0.166833333333333,9.428090415820634,139.60261060914604,24.03700850309333,28.674417556808734,43.46134936801799,42.68749491621888,24.03700850309324,86.02325267042629,57.348835113617554,51.85449728701349,51.85449728701349,80.13876853447539,42.42640687119285,18.856180831641268,14.142135623730953,14.142135623730953,10.540925533894548,10.54092553389475,11.785113019775793,75.42472332656507,42.42640687119285,44.72135954999569,"{'others': ['m1', 'm3', 'm12', 'e1', 'e2']}"
6,277,6,0.2001999999999996,10.646434008546068,142.0411460229126,23.80615016107481,28.961431638087717,43.896371953404014,48.55520968593618,25.64000840815591,87.79274390680763,58.89316299205571,52.373530354364505,52.373530354364505,85.7021405798692,45.231685306042095,16.664305112752345,16.664305112752345,16.664305112752345,10.646434008546068,15.056331365796094,11.903075080537404,76.17968051543932,38.08984025771963,45.16899409738857,"{'others': ['m1', 'm3', 'm12', 'e1', 'e2']}"
7,277,7,0.2335666666666662,10.604447908040797,135.80319484914233,19.553635786646108,33.53420871801725,42.94474092509333,43.72325882621284,29.993908106061102,93.17442326911484,59.98781621212211,52.1669860497172,52.1669860497172,80.62170571319922,37.93962621797607,23.712266386235115,14.227359831740957,14.227359831740957,14.996954053030578,14.996954053030578,14.227359831741069,75.87925243595225,37.93962621797613,44.99086215909172,"{'others': ['m1', 'm3', 'm12', 'e1', 'e2']}"
8,277,8,0.2669333333333328,10.581418150558951,141.17372628680516,24.12934587593034,33.46138223041257,43.62830470358204,48.2586917518607,24.1293458759304,91.88181169199954,58.533513036170085,52.05369462259949,47.32154056599944,80.44661896219912,40.22330948109959,26.026847311299772,11.830385141499846,11.830385141499846,13.384552892164985,14.964385057661213,14.196462169799815,70.9823108489993,33.12507839619968,49.405138798287815,"{'others': ['m1', 'm3', 'm12', 'e1', 'e2']}"
9,277,9,0.3002999999999994,10.45988481638254,139.55226936963226,23.85220723401414,28.45396297095953,47.70441446802794,47.70441446802839,25.190738459948943,87.38856611688396,59.1700438727548,51.4558296697486,46.778026972498765,79.52264585324792,39.76132292662396,21.050112137624524,11.694506743124634,11.694506743124634,14.7925109681886,14.792510968188743,14.033408091749608,74.84484315599803,32.74461888074916,59.17004387275461,"{'others': ['m1', 'm3', 'm12', 'e1', 'e2']}"
10,277,10,0.333666666666666,6.6294801355150925,129.65676853407857,23.90293055826942,28.514472238549104,42.44938493729584,43.21892284469273,25.24430826095722,83.06714800779302,54.8687112150669,49.221378775424114,42.18975323607776,70.31625539346294,32.81425251694941,23.438751797821052,9.375500719128354,9.375500719128354,14.82396823849621,19.32808987901034,18.751001438256765,75.00400575302717,37.50200287651359,54.86871121506689,"{'others': ['m1', 'm3', 'm12', 'e1', 'e2']}"
11,277,11,0.3670333333333326,14.853578426000915,134.50487332696838,19.36669684013053,28.571428571428623,43.30525063416209,43.30525063416209,23.95067555099729,86.61050126832396,58.10009052039115,49.319696191607136,42.27402530709185,70.45670884515312,32.87979746107146,28.18268353806127,4.697113923010193,9.394227846020383,19.366696840130476,19.36669684013042,18.788455692040827,70.45670884515317,32.87979746107146,58.10009052039155,"{'others': ['m1', 'm3', 'm12', 'e1', 'e2']}"
12,277,12,0.4003999999999992,19.1798289138686,127.73383199694696,19.17982891386849,23.258958968575257,37.503944432350416,42.12376627451681,28.295744821558664,89.47900172703999,66.60352252602938,55.821501524580526,41.8661261434354,65.12508511201065,25.584854865432817,34.88843845286283,2.325895896857446,6.97768769057268,23.719577129323834,23.2589589685752,23.258958968575257,69.77687690572571,41.86612614343545,56.59148964311722,"{'others': ['m1', 'm3', 'm12', 'e1', 'e2']}"
13,277,13,0.4337666666666658,6.589776889376112,132.534814287552,18.63870369993731,23.29837962492172,37.56750833076487,37.56750833076533,32.94888444688129,79.76080403106805,56.6874042396548,53.58627313731984,37.27740739987473,60.575787024796455,16.308865737445217,30.287893512398117,2.3298379624922063,2.3298379624920926,19.21233601985819,23.298379624921665,23.298379624921665,65.23546294978081,37.27740739987473,56.68740423965484,"{'others': ['m1', 'm3', 'm12', 'e1', 'e2']}"
14,277,14,0.4671333333333324,6.609539078176398,131.61117622179611,18.6945996107836,28.0418994161754,33.047695390881024,33.047695390881024,33.04769539088109,75.36034028168943,47.662064107094686,49.07332397830692,42.06284912426304,56.08379883235068,16.357774659435677,25.70507446482736,7.010474854043878,2.3368249513479213,23.83103205354739,23.36824951347944,23.36824951347944,65.43109863774242,42.06284912426298,66.09539078176203,"{'others': ['m1', 'm3', 'm12', 'e1', 'e2']}"
15,277,15,0.5004999999999991,0.0,128.45558943556597,19.496169235740695,28.76243746332615,33.435654396284384,33.435654396284384,33.09960913983139,80.93914931329284,52.22816178246128,52.01367150544934,42.55664032264042,56.742187096853854,16.54980456991575,30.735351344129185,2.3642577957022013,2.3642577957022013,24.11079327089932,28.371093548426984,26.00683575272473,66.19921827966294,47.28515591404499,66.8713087925688,"{'others': ['m1', 'm3', 'm12', 'e1', 'e2']}"
16,277,16,0.5338666666666656,4.685177146602655,126.84635835557002,18.740708586410392,32.79624002621824,32.79624002621813,32.79624002621813,33.129205314229424,84.85216700577259,52.38187293215961,51.53694861262864,46.85177146602609,56.22212575923129,18.740708586410506,32.79624002621813,4.685177146602655,1.1368683772161605e-13,28.49881999516388,28.111062879615645,25.76847430631432,65.59248005243649,51.53694861262869,61.62388406164619,"{'others': ['m1', 'm3', 'm12', 'e1', 'e2']}"
17,277,17,0.5672333333333321,4.745455991642302,118.7312709775826,23.7272799582114,33.55544111512593,28.472735949853814,33.21819194149612,33.55544111512593,95.38248496301571,61.873176228995405,59.31819989552855,56.9454718997074,61.6909278913497,26.10000795403255,35.59091993731715,2.372727995821151,2.372727995821151,28.865481895140867,28.865481895140867,26.10000795403255,66.43638388299195,52.2000159080651,61.87317622899518,"{'others': ['m1', 'm3', 'm12', 'e1', 'e2']}"
18,277,18,0.6005999999999987,9.388403974228368,117.44889619399456,23.471009935571036,33.193020573478314,28.16521192268556,32.859413909799514,33.193020573478314,99.02429939991003,65.88626459496635,61.02462583248473,56.33042384537055,61.02462583248473,25.818110929128125,39.90071689047079,2.347100993557092,2.347100993557092,28.553715956869866,28.16521192268533,25.81811092912818,65.71882781959897,51.63622185825636,70.56932973223479,"{'others': ['m1', 'm3', 'm12', 'e1', 'e2']}"
19,277,19,0.6339666666666652,9.38840397422848,122.13949141974898,28.55371595686968,37.5536158969137,32.859413909799514,32.859413909799514,28.16521192268533,103.37907507554957,65.88626459496643,61.02462583248473,56.33042384537055,61.02462583248485,30.512312916242426,44.59491887758497,7.041302980671276,7.041302980671389,23.93582753304146,23.935827533041373,23.47100993557109,70.41302980671321,56.33042384537055,70.56932973223479,"{'others': ['m1', 'm3', 'm12', 'e1', 'e2']}"
20,277,20,0.6673333333333318,19.36936792446021,126.92653318981912,18.79104702447046,32.88433229282339,37.58209404894114,37.58209404894069,33.218191941495945,103.77694913810964,71.0900351909343,61.07090282952913,56.37314107341149,61.07090282952913,25.837689658646923,44.628736683117495,7.0466426341764645,7.0466426341764645,14.093285268352872,14.093285268352927,14.093285268352927,75.16418809788206,61.07090282952913,61.25131947910209,"{'others': ['m1', 'm3', 'm12', 'e1', 'e2']}"
21,277,21,0.7006999999999983,19.013964794948837,128.43225981358685,19.013964794948947,28.91435815178118,38.02792958989767,42.78142078863493,33.61225860937657,100.27500668925504,71.46064202260374,61.79538558358388,61.79538558358388,66.54887678232114,30.897692791792,35.65118399052915,7.130236798105784,11.88372799684305,14.260473596211682,14.260473596211682,11.88372799684305,76.05585917979556,61.79538558358388,61.97794251183475,"{'others': ['m1', 'm3', 'm12', 'e1', 'e2']}"
22,277,22,0.7340666666666649,19.026059766179856,128.51395684544306,19.611613513818394,28.93275086123317,38.05211953235949,42.80863447390448,33.633639699815646,100.90091909944697,71.97913221978393,61.83469424008433,57.07817929853934,61.83469424008433,26.16083217849723,40.43037700313198,7.134772412317375,7.1347724123174885,15.041420939904729,14.269544824634806,11.89128735386231,76.10423906471902,61.83469424008422,66.76086858827264,"{'others': ['m1', 'm3', 'm12', 'e1', 'e2']}"
23,277,23,0.7674333333333314,19.254761394275192,139.67999011291312,19.254761394275192,29.280535284732466,38.80921231065874,43.32321313711918,29.280535284732466,96.75397856341296,67.56336366748747,57.76428418282558,52.95059383425678,57.76428418282558,26.47529691712839,40.916367962834784,7.220535522853197,7.220535522853197,14.441071045706394,14.441071045706394,12.034225871421995,72.20535522853203,62.57797453139443,67.56336366748747,"{'others': ['m1', 'm3', 'm12', 'e1', 'e2']}"
24,277,24,0.800799999999998,4.817878595024013,149.3542364457444,19.27151438009605,33.72515016516809,43.36090735521611,43.36090735521611,29.306011393337897,86.85554156659741,53.21520841901916,50.58772524775213,52.99666454526414,52.99666454526414,24.089392975120063,33.72515016516809,4.817878595024013,4.817878595024013,14.453635785072038,14.453635785072038,14.453635785072038,67.45030033033618,57.81454314028815,67.45030033033618,"{'others': ['m1', 'm3', 'm12', 'e1', 'e2']}"
25,277,25,0.8341666666666645,4.758870734988363,147.52499278463802,23.794353674941704,28.553224409929957,42.82983661489516,47.58870734988341,24.265574740371058,81.04064841161642,52.56344530207341,49.96814271737742,52.34757808487166,52.34757808487166,28.553224409930067,28.553224409929957,4.758870734988363,4.758870734988363,14.276612204964977,14.276612204964977,14.276612204964977,66.62419028983663,57.10644881985996,66.79393372491741,"{'others': ['m1', 'm3', 'm12', 'e1', 'e2']}"
26,277,26,0.867533333333331,4.76055558925782,152.4121443861149,23.802777946288984,28.56333353554669,47.8429915594725,47.60555589257774,24.2741658451686,81.06934044594126,52.58205512574091,49.98583368720677,47.605555892577854,52.36611148183568,26.183055740917894,30.9436113301756,2.3802777946289098,2.3802777946289098,19.628273531134404,19.628273531134404,19.042222357031164,66.64777824960908,57.12666707109349,71.56684309903203,"{'others': ['m1', 'm3', 'm12', 'e1', 'e2']}"
27,277,27,0.9008999999999976,23.79435367494159,147.60172880688026,19.621326699017636,28.553224409930067,47.58870734988341,47.58870734988341,19.03548293995334,90.54369079832608,62.04808308316881,49.96814271737753,47.58870734988329,52.34757808487166,30.932659777424192,40.450401247400805,7.138306102482488,11.897176837470852,19.621326699017636,23.794353674941647,23.794353674941647,66.62419028983663,57.10644881986002,71.5415141854446,"{'others': ['m1', 'm3', 'm12', 'e1', 'e2']}"
28,277,28,0.934266666666664,38.34824944236843,157.03704494215006,14.269544824634863,28.539089649269727,47.56514941544947,52.32166435699446,24.253562503633223,105.07484942601842,76.69649888473691,57.078179298539226,52.32166435699435,57.078179298539226,30.91734712004211,49.943406886221965,21.40431723695224,16.647802295407246,24.25356250363328,24.25356250363328,23.78257470772468,71.34772412317409,61.83469424008422,66.59120918162944,"{'others': ['m1', 'm3', 'm12', 'e1', 'e2']}"
29,277,29,0.9676333333333308,52.56344530207341,162.08129682323283,14.276612204964977,28.553224409929957,47.826058983624975,52.34757808487166,28.94708059331972,124.09616616633762,95.65211796724972,69.00362565733076,57.10644881985991,66.62419028983663,33.31209514491832,61.86531955484827,28.553224409929957,19.03548293995334,24.26557474037111,28.94708059331972,28.553224409929957,71.38306102482494,57.10644881985996,66.79393372491786,"{'others': ['m1', 'm3', 'm12', 'e1', 'e2']}"
30,277,30,1.0009999999999972,52.56344530207341,162.43023435697722,14.276612204964977,28.553224409930067,47.82605898362497,52.56344530207342,24.265574740371058,119.35187083952457,90.91809773306876,64.2447549223424,52.34757808487166,66.62419028983663,35.691530512412555,59.48588418735415,26.17378904243583,21.41491830744758,24.26557474037111,28.55322440993001,28.55322440993001,66.62419028983663,57.10644881985996,66.79393372491786,"{'others': ['m1', 'm3', 'm12', 'e1', 'e2']}"
