,video_id,frame_seq,time_seconds,m1,m3,m4,m5,m6,m7,m8,m9,m10,m11,m12,m13,m14,m15,m16,m17,e1,e2,e3,b1,b2,b3,label_measures
0,163,0,0.0,5.0,54.589376255824725,9.055385138137416,16.0312195418814,13.038404810405298,15.033296378372908,19.6468827043885,49.25444142409901,33.24154027718932,30.5,40.0,32.0,17.0,13.0,3.0,9.0,8.06225774829855,7.071067811865476,7.5,33.0,34.0,25.079872407968907,"{'others': ['m1', 'm3', 'm12', 'e1', 'e2']}"
1,163,1,0.0333666666666666,4.0,54.3323108288245,10.04987562112089,17.0,14.142135623730953,15.132745950421556,20.8806130178211,51.24451190127583,34.36568055487916,32.0,39.0,33.0,16.0,15.0,2.0,8.0,7.0,6.082762530298219,6.0,32.0,33.0,27.0,"{'others': ['m1', 'm3', 'm12', 'e1', 'e2']}"
2,163,2,0.0667333333333332,4.123105625617661,54.3323108288245,10.04987562112089,18.0,13.038404810405298,16.1245154965971,19.92485884517128,51.35172830587107,33.54101966249684,31.0,38.0,32.0,16.0,16.0,2.0,7.0,8.0,7.071067811865476,7.0,33.0,34.0,27.0,"{'others': ['m1', 'm3', 'm12', 'e1', 'e2']}"
3,163,3,0.1000999999999998,7.071067811865476,55.22680508593631,8.06225774829855,17.029386365926403,12.041594578792296,14.0356688476182,21.587033144922906,53.33854141237835,36.345563690772494,32.5,39.0,34.0,15.5,16.5,0.5,7.5,11.0,10.04987562112089,10.5,33.0,32.0,26.019223662515376,"{'others': ['m1', 'm3', 'm12', 'e1', 'e2']}"
4,163,4,0.1334666666666664,2.0,60.20797289396148,10.04987562112089,16.0,14.0,16.0312195418814,24.186773244895647,52.03844732503075,36.05551275463989,35.0,40.0,35.0,13.5,14.5,1.5,4.5,8.06225774829855,7.071067811865476,7.0,35.0,38.0,34.132096331752024,"{'others': ['m1', 'm3', 'm12', 'e1', 'e2']}"
5,163,5,0.166833333333333,2.23606797749979,62.39390995922599,11.04536101718726,19.0,15.132745950421556,17.11724276862369,24.515301344262525,56.22277118748239,37.33630940518894,36.0,43.0,36.0,15.5,16.5,1.5,5.5,10.0,8.06225774829855,8.0,31.0,34.0,32.0,"{'others': ['m1', 'm3', 'm12', 'e1', 'e2']}"
6,163,6,0.2001999999999996,2.23606797749979,65.37583651472461,11.04536101718726,17.029386365926403,17.11724276862369,19.235384061671343,25.317977802344327,55.22680508593631,38.2099463490856,37.0,43.0,36.0,14.5,15.5,2.5,5.5,10.04987562112089,8.246211251235321,8.5,31.0,35.0,33.015148038438355,"{'others': ['m1', 'm3', 'm12', 'e1', 'e2']}"
7,163,7,0.2335666666666662,2.23606797749979,66.48308055437865,11.04536101718726,18.027756377319943,17.11724276862369,19.1049731745428,25.495097567963924,56.32051136131489,38.3275357934736,37.0,44.0,36.0,15.0,16.0,2.0,5.0,10.0,8.06225774829855,8.5,31.0,35.0,34.0147027033899,"{'others': ['m1', 'm3', 'm12', 'e1', 'e2']}"
8,163,8,0.2669333333333328,4.123105625617661,68.59300255857006,11.0,17.029386365926403,16.0312195418814,18.110770276274835,24.186773244895647,56.22277118748239,39.20459156782532,37.0,44.0,35.0,15.5,16.5,0.5,5.5,9.0,9.055385138137416,9.0,31.0,35.0,32.0,"{'others': ['m1', 'm3', 'm12', 'e1', 'e2']}"
9,163,9,0.3002999999999994,1.4142135623730951,71.56814934033156,11.0,18.027756377319943,18.110770276274835,20.223748416156685,25.179356624028344,55.22680508593631,37.21558813185679,36.5,42.0,33.0,12.5,17.5,0.5,3.5,9.055385138137416,8.06225774829855,8.5,29.0,36.0,32.0624390837628,"{'others': ['m1', 'm3', 'm12', 'e1', 'e2']}"
10,163,10,0.333666666666666,9.055385138137416,72.69112738154499,10.0,17.029386365926403,19.1049731745428,22.20360331117452,24.33105012119288,60.29925372672534,43.28972164382672,38.5,43.0,33.0,14.0,22.0,5.0,5.0,10.04987562112089,9.055385138137416,8.5,28.0,37.0,34.132096331752024,"{'others': ['m1', 'm3', 'm12', 'e1', 'e2']}"
11,163,11,0.3670333333333326,12.041594578792296,75.8023746329889,12.0,19.026297590440446,20.09975124224178,23.345235059857504,22.360679774997894,65.27633568147036,46.2709412050371,40.0,45.0,34.0,17.5,25.5,6.5,7.5,8.06225774829855,7.280109889280518,7.5,29.0,40.0,38.11823710509184,"{'others': ['m1', 'm3', 'm12', 'e1', 'e2']}"
12,163,12,0.4003999999999992,13.038404810405298,76.6550715869472,11.0,19.026297590440446,20.09975124224178,23.194827009486403,22.56102834535696,65.37583651472461,46.389654018972806,39.5,43.0,33.0,16.0,27.0,8.0,7.0,9.055385138137416,8.246211251235321,8.0,28.0,38.0,38.2099463490856,"{'others': ['m1', 'm3', 'm12', 'e1', 'e2']}"
13,163,13,0.4337666666666658,19.026297590440446,79.90619500389191,9.055385138137416,16.1245154965971,21.213203435596427,23.345235059857504,22.20360331117452,66.37017402418047,50.24937810560445,40.5,44.0,32.0,16.0,28.0,12.0,9.0,9.055385138137416,8.54400374531753,8.5,29.0,40.0,36.22154055254967,"{'others': ['m1', 'm3', 'm12', 'e1', 'e2']}"
14,163,14,0.4671333333333324,14.0356688476182,83.18653737234169,11.04536101718726,18.24828759089466,23.345235059857504,24.73863375370596,20.615528128088304,63.788713735268246,45.5411901469428,38.0,42.0,28.0,15.0,28.0,11.0,7.0,9.055385138137416,8.54400374531753,8.0,22.0,39.0,39.319206502675,"{'others': ['m1', 'm3', 'm12', 'e1', 'e2']}"
15,163,15,0.5004999999999991,12.041594578792296,79.83107164506812,9.219544457292889,17.26267650163207,20.396078054371134,23.53720459187964,20.396078054371134,58.85575587824864,41.593268686170845,35.0,44.0,27.0,15.5,22.5,6.5,9.5,9.055385138137416,8.54400374531753,8.0,22.0,42.0,33.734255586866,"{'others': ['m1', 'm3', 'm12', 'e1', 'e2']}"
16,163,16,0.5338666666666656,9.055385138137416,82.96987405076617,7.280109889280518,16.492422502470642,21.587033144922906,24.04163056034261,20.396078054371134,53.150729063673246,36.6742416417845,31.5,43.0,21.0,12.0,20.0,6.0,9.0,11.180339887498947,8.94427190999916,8.5,19.0,42.0,36.87817782917155,"{'others': ['m1', 'm3', 'm12', 'e1', 'e2']}"
17,163,17,0.5672333333333321,9.219544457292889,83.67795408588812,8.246211251235321,17.26267650163207,21.587033144922906,23.769728648009423,19.4164878389476,54.12947441089743,36.87817782917155,31.5,43.0,22.0,13.5,20.5,5.5,8.5,8.246211251235321,8.06225774829855,7.0,17.0,42.0,37.8549864614954,"{'others': ['m1', 'm3', 'm12', 'e1', 'e2']}"
18,163,18,0.6005999999999987,10.295630140987,84.30895563343196,6.324555320336759,12.083045973594572,23.769728648009423,25.495097567963924,13.92838827718412,42.5440947723653,30.463092423455635,23.5,34.0,2.0,5.0,21.0,13.0,5.0,10.44030650891055,8.94427190999916,8.0,12.0,40.0,38.07886552931954,"{'others': ['m1', 'm3', 'm12', 'e1', 'e2']}"
19,163,19,0.6339666666666652,2.23606797749979,86.16263691415206,10.44030650891055,18.97366596101028,24.698178070456937,26.40075756488817,16.76305461424021,47.75981574503821,28.792360097775937,26.5,43.0,11.0,11.0,18.0,4.0,7.0,9.486832980505138,9.433981132056603,8.0,10.0,46.0,37.33630940518894,"{'others': ['m1', 'm3', 'm12', 'e1', 'e2']}"
20,163,20,0.6673333333333318,3.1622776601683795,83.2586331859946,8.54400374531753,16.76305461424021,22.84731931759173,24.596747752497688,18.97366596101028,46.238512086787566,29.546573405388315,26.5,44.0,10.0,9.0,16.0,4.0,7.0,8.94427190999916,9.219544457292889,7.0,5.0,48.0,37.16180835212409,"{'others': ['m1', 'm3', 'm12', 'e1', 'e2']}"
21,163,21,0.7006999999999983,3.0,85.0,7.615773105863909,16.15549442140351,22.360679774997894,25.059928172283332,18.027756377319943,42.95346318982906,26.83281572999748,24.0,42.0,6.0,7.0,15.0,4.0,6.0,9.848857801796104,9.219544457292889,7.0,6.0,47.0,33.54101966249684,"{'others': ['m1', 'm3', 'm12', 'e1', 'e2']}"
22,163,22,0.7340666666666649,3.1622776601683795,84.09518416651456,7.615773105863909,16.15549442140351,23.259406699226016,25.059928172283332,18.384776310850235,44.28317965096906,28.178005607210743,24.5,43.0,7.0,8.0,15.0,4.0,7.0,9.848857801796104,10.0,8.0,4.0,47.0,36.6742416417845,"{'others': ['m1', 'm3', 'm12', 'e1', 'e2']}"
23,163,23,0.7674333333333314,3.0,84.09518416651456,7.615773105863909,17.08800749063506,21.470910553583888,23.706539182259394,18.027756377319943,43.86342439892262,26.83281572999748,24.0,41.0,5.0,6.0,17.0,6.0,5.0,9.848857801796104,9.219544457292889,7.5,4.0,47.0,34.88552708502482,"{'others': ['m1', 'm3', 'm12', 'e1', 'e2']}"
24,163,24,0.800799999999998,2.0,85.0,6.708203932499369,16.15549442140351,21.93171219946131,23.706539182259394,19.92485884517128,43.46262762420146,27.31300056749533,25.0,41.0,5.0,4.0,17.0,6.0,4.0,9.848857801796104,10.0,8.0,3.0,46.0,34.438350715445125,"{'others': ['m1', 'm3', 'm12', 'e1', 'e2']}"
25,163,25,0.8341666666666645,2.0,84.581321815162,6.708203932499369,16.15549442140351,21.470910553583888,23.706539182259394,19.92485884517128,43.46262762420146,27.31300056749533,25.0,40.0,5.0,3.5,17.5,6.5,3.5,10.770329614269007,10.0,8.5,4.0,46.0,33.54101966249684,"{'others': ['m1', 'm3', 'm12', 'e1', 'e2']}"
26,163,26,0.867533333333331,2.0,85.0881895447306,6.708203932499369,17.08800749063506,21.93171219946131,23.706539182259394,21.18962010041709,45.69463863518345,28.635642126552707,26.0,41.0,7.0,4.0,18.0,5.0,4.0,10.770329614269007,9.848857801796104,9.0,7.0,47.0,36.76955262170047,"{'others': ['m1', 'm3', 'm12', 'e1', 'e2']}"
27,163,27,0.9008999999999976,3.1622776601683795,85.492689745966,6.324555320336759,16.76305461424021,21.02379604162864,23.706539182259394,21.54065922853801,44.77722635447622,28.178005607210743,25.5,41.0,6.0,3.5,17.5,5.5,3.5,9.486832980505138,9.433981132056603,8.0,8.0,47.0,34.539832078341085,"{'others': ['m1', 'm3', 'm12', 'e1', 'e2']}"
28,163,28,0.934266666666664,3.1622776601683795,86.00581375697809,6.708203932499369,15.811388300841896,20.615528128088304,23.259406699226016,20.8806130178211,45.31004303683677,29.546573405388315,26.5,41.0,7.0,4.0,18.0,6.0,3.0,10.44030650891055,10.295630140987,9.0,7.0,47.0,36.24913792078372,"{'others': ['m1', 'm3', 'm12', 'e1', 'e2']}"
29,163,29,0.9676333333333308,3.1622776601683795,86.00581375697809,6.708203932499369,15.811388300841896,21.54065922853801,23.259406699226016,20.615528128088304,44.94441010848846,29.154759474226505,26.5,42.0,8.0,5.0,17.0,5.0,4.0,9.848857801796104,10.295630140987,8.5,7.0,46.0,34.92849839314596,"{'others': ['m1', 'm3', 'm12', 'e1', 'e2']}"
30,163,30,1.0009999999999972,3.605551275463989,86.53900854527974,7.615773105863909,17.08800749063506,21.93171219946131,24.596747752497688,19.6468827043885,47.16990566028302,30.083217912982647,27.0,41.0,8.0,5.5,19.5,6.5,4.5,10.44030650891055,9.433981132056603,9.0,8.0,47.0,37.69615364994153,"{'others': ['m1', 'm3', 'm12', 'e1', 'e2']}"
31,163,31,1.0343666666666638,3.1622776601683795,84.30895563343196,7.280109889280518,18.027756377319943,22.47220505424423,24.166091947189145,20.8806130178211,48.104053883222775,30.083217912982647,27.5,41.0,9.0,5.0,20.0,6.0,3.0,9.219544457292889,9.433981132056603,8.5,7.0,46.0,35.84689665786984,"{'others': ['m1', 'm3', 'm12', 'e1', 'e2']}"
32,163,32,1.0677333333333303,3.1622776601683795,84.69356528095862,7.280109889280518,17.72004514666935,21.93171219946131,23.706539182259394,20.8806130178211,47.75981574503821,30.083217912982647,27.5,42.0,9.0,5.5,19.5,5.5,4.5,10.44030650891055,10.295630140987,9.0,7.0,45.0,35.84689665786984,"{'others': ['m1', 'm3', 'm12', 'e1', 'e2']}"
33,163,33,1.1010999999999969,2.8284271247461903,83.38465086573187,7.615773105863909,18.027756377319943,22.47220505424423,24.166091947189145,20.8806130178211,49.04079934095692,31.016124838541646,28.0,41.0,9.0,5.0,21.0,7.0,4.0,9.486832980505138,9.433981132056603,8.0,7.0,46.0,38.07886552931954,"{'others': ['m1', 'm3', 'm12', 'e1', 'e2']}"
34,163,34,1.1344666666666634,5.0,84.30895563343196,7.280109889280518,17.72004514666935,21.93171219946131,24.166091947189145,21.18962010041709,50.92150822589606,33.24154027718932,29.0,42.0,10.0,6.0,22.0,8.0,5.0,10.44030650891055,10.295630140987,9.0,8.0,46.0,35.84689665786984,"{'others': ['m1', 'm3', 'm12', 'e1', 'e2']}"
35,163,35,1.16783333333333,4.47213595499958,83.38465086573187,8.54400374531753,18.97366596101028,22.84731931759173,25.079872407968907,20.248456731316587,52.20153254455275,33.24154027718932,29.0,41.0,9.0,6.0,24.0,9.0,4.0,10.770329614269007,10.295630140987,9.0,7.0,46.0,33.54101966249684,"{'others': ['m1', 'm3', 'm12', 'e1', 'e2']}"
36,163,36,1.2011999999999965,6.324555320336759,83.93449827097318,7.615773105863909,17.72004514666935,22.47220505424423,25.079872407968907,20.8806130178211,52.49761899362675,34.785054261852174,30.0,42.0,11.0,6.5,23.5,9.5,4.5,9.486832980505138,9.433981132056603,8.5,8.0,46.0,33.1058907144937,"{'others': ['m1', 'm3', 'm12', 'e1', 'e2']}"
37,163,37,1.234566666666663,5.385164807134504,84.86459803710851,8.54400374531753,18.68154169226941,22.47220505424423,24.698178070456937,19.92485884517128,52.49761899362675,33.83784863137726,29.5,41.0,10.0,6.5,24.5,9.5,3.5,10.44030650891055,10.295630140987,9.0,7.0,46.0,34.92849839314596,"{'others': ['m1', 'm3', 'm12', 'e1', 'e2']}"
