,video_id,frame_seq,time_seconds,m1,m3,m4,m5,m6,m7,m8,m9,m10,m11,m12,m13,m14,m15,m16,m17,e1,e2,e3,b1,b2,b3
0,238,0,0.0,17.345822538832977,135.87560988752443,11.563881692555242,23.307748694052826,37.69364267179262,40.576703507435234,55.00446359580066,107.12206034607104,83.88797178048956,75.1652310016093,69.38329015533157,69.38329015533157,14.454852115694052,37.58261550080465,11.563881692555242,8.672911269416431,20.236792961971787,23.30774869405294,23.127763385110597,40.47358592394346,57.81940846277632,47.06158886690737
1,238,1,0.0333666666666666,17.212373929067667,131.96153345618495,11.82807262952891,25.81856089360133,37.29347684631307,40.16220583449103,54.58129143539648,109.01170155076147,83.19314065716014,74.58695369262625,71.7182247044484,71.7182247044484,17.212373929067667,37.29347684631307,8.606186964533777,8.606186964533777,22.94983190542348,20.284977209270387,21.515467411334498,43.030934822668996,60.24330875173655,46.25686502541244
2,238,2,0.0667333333333332,11.733030885768699,137.89431424639747,14.956738360030302,26.39931949297943,41.065608100190275,43.998865821632535,52.88005559405196,105.59727797191795,79.19795847893852,73.33144303605422,70.39818531461196,67.46492759316982,16.13291746793186,36.66572151802711,7.333144303605536,4.3998865821631625,20.532804050095137,21.354438545679518,20.532804050095137,41.06560810019039,58.66515442884338,50.20928452086552
3,238,3,0.1000999999999998,8.873322497890285,139.01538580028182,12.195215302990505,26.61996749367097,38.4510641575248,41.408838323488226,56.19770915330537,103.56434110564668,76.95898756741266,72.46546706610434,68.0288058171592,68.0288058171592,11.831096663853828,35.493289991561255,5.915548331926857,2.957774165963542,14.788870829817256,17.746644995780684,16.26775791279897,44.36661248945154,59.1554833192688,50.36907905534717
4,238,4,0.1334666666666664,5.872202195146997,135.0925608610629,11.744404390294108,23.671603823700046,35.23321317088221,41.210142708670304,55.785920853896755,96.93581239221102,73.40252743933786,70.46642634176442,67.53032524419086,64.59422414661731,10.27635384150733,30.82906152452199,4.404151646360333,1.4680505487867777,17.616606585441104,17.859605741487638,17.616606585441104,41.105415366029206,58.72202195147031,47.34320764740008
5,238,5,0.166833333333333,14.788870829817142,136.0897575560034,12.195215302990505,26.61996749367097,38.4510641575248,41.408838323488226,59.1554833192688,112.43432965217896,85.82643176888976,78.3810153980312,70.98657998312262,68.0288058171592,10.352209580872113,42.887725406469826,13.309983746835428,1.4788870829817142,17.746644995780684,20.914621699711365,19.2255320787624,41.40883832348811,59.1554833192688,51.059098591911514
6,238,6,0.2001999999999996,14.68050548786755,140.96343375206357,11.744404390294108,26.58752624303619,38.28207467443886,38.169314268455764,58.79537865958628,111.7262664761051,85.19753922300319,77.80667908569819,70.46642634176442,67.53032524419086,10.27635384150733,42.57346591481598,13.212454939080772,1.4680505487867777,20.761369963435033,23.671603823699936,22.020758231801324,44.04151646360276,58.72202195147031,50.684963423498445
7,238,7,0.2335666666666662,8.740284488750717,145.70053951462958,11.65371265166766,20.39399714041849,35.08232077228124,37.87456611792004,55.43175123602753,96.1872620980576,75.80513899560655,71.37898999146444,64.09541958417219,61.18199142125525,7.283570407292245,33.504423873544624,10.196998570209189,1.4567140814584718,20.393997140418378,20.60104810498425,20.39399714041849,43.70142244375381,58.26856325833842,50.293567887178966
8,238,8,0.2669333333333328,5.829485599283544,142.8521363596937,14.57371399820886,23.499407720709172,37.891656395343034,40.806399194984806,52.465370393551666,96.23066502414503,72.86856999104407,69.9538271914023,64.12434159211875,61.20959879247698,10.201599798746201,33.51954219588026,10.201599798746201,1.457371399820886,23.317942397134175,21.219647880381245,21.860570997313175,40.80639919498469,58.29485599283521,49.892360109565864
9,238,9,0.3002999999999994,6.565321642986213,143.89891087747728,14.971236790408529,23.671603823699936,41.210142708670304,41.10541536602932,55.78592085389687,99.87060594106,76.33862853691153,73.40252743933797,67.53032524419098,64.59422414661742,10.27635384150733,33.76516262209543,7.340252743933775,1.4680505487867777,23.488808780588215,20.761369963435033,20.55270768301466,41.10541536602932,55.78592085389687,47.34320764739986
10,238,10,0.333666666666666,11.65371265166766,142.78770574691248,14.567140814584604,20.60104810498425,40.78799428083698,40.89191290602664,55.355135095421474,102.01159761392512,81.57598856167374,75.74913223583997,69.92227591000608,67.00884774708913,13.110426733126133,33.504423873544624,10.196998570209189,1.4567140814584718,23.488808780588112,23.488808780588112,23.30742530333532,40.78799428083687,58.26856325833842,50.293567887178945
11,238,11,0.3670333333333326,17.480568977501548,139.87489673776543,11.65371265166766,20.39399714041849,40.89191290602663,43.7984290502287,55.43175123602753,104.92387034245009,84.53963332143108,75.74913223583997,69.92227591000608,67.00884774708913,13.110426733126133,36.41785203646157,13.110426733126133,4.370142244375302,23.30742530333532,20.60104810498414,20.393997140418378,40.78799428083687,55.355135095421474,49.86985715359419
12,238,12,0.4003999999999992,14.68050548786755,140.96343375206357,12.105854952787604,23.4888087805881,41.210142708670304,44.13927799668879,58.72202195147031,108.6754104090994,85.19753922300319,77.80667908569819,70.46642634176442,67.53032524419086,10.27635384150733,39.63736481724243,13.212454939080772,4.404151646360333,23.4888087805881,23.671603823699936,23.4888087805881,41.105415366029206,55.78592085389687,47.34320764739987
13,238,13,0.4337666666666658,5.8268563258337736,142.78770574691248,14.567140814584604,20.60104810498425,37.87456611792004,40.89191290602664,58.341353496910436,99.22778767136681,78.71649428263773,75.74913223583997,69.92227591000608,67.00884774708913,10.196998570209189,30.59099571062768,10.196998570209189,1.4567140814584718,23.30742530333532,26.38221408750886,24.764139384793793,37.874566117919926,55.355135095421474,46.97761756117621
14,238,14,0.4671333333333324,2.9361010975734416,149.7411559762495,14.680505487867663,17.859605741487677,38.169314268455764,41.21014270867029,55.86313323805249,91.20836319790727,73.46122599125283,71.93447689055108,64.59422414661731,64.59422414661731,8.808303292720552,26.424909878161657,5.872202195147111,2.9361010975735553,23.671603823699936,23.671603823699936,23.4888087805881,41.105415366029206,55.78592085389687,47.79626301941065
15,238,15,0.5004999999999991,2.9548674206124588,153.7667126199916,17.729204523674753,23.822902757027844,38.41327646796208,41.36814388857442,47.37012833699136,85.89469742085632,62.12252998100987,63.52964954316815,62.05221583286186,56.142480991636944,11.819469682449835,26.593806785512243,2.9548674206124588,2.9548674206124588,26.593806785512243,23.822902757027844,25.116373075205956,41.36814388857454,56.142480991636944,48.10175662541035
16,238,16,0.5338666666666656,2.93325772144226,152.64217742800798,17.59954632865299,20.741264257995553,41.065608100190275,41.1702340228813,44.096532680590805,85.26652758872073,64.59830042109502,63.06504101100654,61.59841215028541,55.73189670740112,14.666288607210845,26.399319492979544,2.9332577214421462,0.0,26.399319492979544,23.64867979245362,24.932690632258527,41.065608100190275,58.665154428843266,47.29735958490721
17,238,17,0.5672333333333321,0.0,150.72773067812608,17.96346692925971,20.672230401645038,38.391285031626694,38.50470118723073,44.3959666328488,82.89959435975871,62.297311150334984,62.01669120493523,62.01669120493523,56.11033966160812,14.765878858317933,23.625406173308534,2.9531757716634957,1.1368683772161603e-13,23.809264247182256,23.80926424718223,25.101994059140452,44.297636574953685,59.06351543327162,50.97971799868607
18,238,18,0.6005999999999987,8.799773164326439,140.91853670047595,14.956738360030347,20.532804050095137,38.132350378748015,38.13235037874824,55.809034317615875,99.90315809855102,79.41493959371405,74.79807189677524,70.39818531461196,64.53166987172756,11.733030885768699,32.26583493586372,8.799773164326439,0.0,23.466061771537284,23.64867979245373,24.932690632258414,41.065608100190275,58.665154428843266,47.29735958490723
19,238,19,0.6339666666666652,26.95604324844196,131.01289055755677,17.860781957190056,26.791172935785085,38.69836090724516,38.8126842313712,56.63742545257794,128.14065156678814,101.38605224885225,87.81551128951787,83.3503158002203,80.37351880735525,25.30277443935256,46.140353389407665,16.372383460757533,10.418789475027552,23.81437594292015,23.999704620837683,23.814375942920037,41.67515790011021,59.535939857300264,51.387483498859766
20,238,20,0.6673333333333318,33.25612308938457,136.18207815965482,15.116419586084021,30.383627335363908,39.30269092381832,45.44992316348821,60.54121326241137,139.20244525688327,108.88020297740026,92.21015947511205,87.67523359928691,81.62866576485328,24.18627133773441,54.41911050990211,21.162987420517425,12.093135668867262,21.377845593162245,21.377845593162213,21.16298742051754,42.32597484103508,60.46567834433574,51.75028476947533
21,238,21,0.7006999999999983,32.98958930355491,137.98905891821428,14.99526786525223,27.15758515387894,38.987696449655914,45.085661218285715,60.056000998607004,135.09063629926416,108.00757411974662,91.47113397803855,83.9735000454125,80.97444647236205,22.492901797878403,52.48343752838275,22.49290179787829,10.496687505676618,12.36541465857307,15.292232691294366,14.99526786525223,44.98580359575669,62.98012503405937,51.3355280860129
22,238,22,0.7340666666666649,27.141418990059265,139.01751056270294,15.377180561878902,24.313457283602613,36.31399597460318,39.32008976902392,60.38961019117173,126.98265633297622,102.71149122249155,88.96354002297221,84.43997019129563,75.39283052794258,19.602135937265075,46.74355492732434,19.602135937265075,7.539283052794303,15.078566105588493,15.377180561878902,15.078566105588493,45.23569831676548,66.34569086458941,45.63602203450172
23,238,23,0.7674333333333314,15.180730273691324,139.79466254220682,15.18073027369121,21.468794639781855,33.53532927549274,39.58650132519236,61.02578043535246,112.70606012516886,91.28656697781533,83.49401650530172,78.93979742319436,72.86750531371786,15.180730273691324,36.433752656858815,12.1445842189529,3.0361460547383103,12.518350878488063,15.481367979228057,13.662657246322055,48.57833687581194,66.79521320424135,48.95638410955889
24,238,24,0.800799999999998,6.688065554064591,152.8043693307,17.945963060235954,18.193505278819885,38.882919963844415,38.882919963844415,53.92090833438591,96.13149134773249,77.99557703064511,74.77484608431621,68.79285839757085,59.81987686745299,10.468478451804344,31.405435355412806,10.46847845180423,4.486490765058875,11.963975373490598,11.963975373490598,11.963975373490598,44.86490765058977,65.80186455419835,45.2619499710334
25,238,25,0.8341666666666645,9.513029883089862,150.68471174256925,15.041420939904697,21.271781490575826,39.22322702763672,42.22328066202634,54.482343854272614,99.99999999999991,78.73433191832153,73.70296260553278,72.19882051154241,63.17396794759952,13.537278845914216,31.58698397379976,10.528994657933254,1.504142093990481,12.40347345892085,12.40347345892085,10.528994657933254,45.12426281971398,66.18225213558048,51.93103676208982
26,238,26,0.867533333333331,15.041420939904697,144.89815427783117,15.33929977694744,21.271781490575826,36.224538569457685,39.22322702763672,57.86550172246633,109.33778455420483,88.06620298728272,79.7195309814947,75.20710469952337,63.173967947599635,12.033136751923735,39.107694443752166,18.04970512788566,3.008284187980962,12.40347345892085,12.40347345892085,13.537278845914216,42.115978631733014,66.18225213558048,51.93103676208982
27,238,27,0.9008999999999976,20.920003189233398,146.7142262890726,18.178773076169787,24.09463682954671,41.840006378466796,44.92808688289324,54.125338848448855,117.16574009021392,93.07854236977397,82.18572681484545,77.70286898858114,68.73715333605253,19.42571724714537,43.33429232055482,16.43714536296909,4.482857826264308,8.965715652528615,12.322197548209664,11.954287536704783,41.840006378466796,65.74858145187636,51.59074963840678
28,238,28,0.934266666666664,12.053607087251862,135.90408582833504,18.329807386318095,27.12061594631666,39.635112100727476,42.29510937399257,51.581129687523294,108.8584873175582,81.86254085913619,75.33504429532411,78.34844606713693,69.30824075169812,22.600513288597085,34.654120375849175,4.5201026577194625,10.546906201345337,12.053607087251862,12.424573797608229,12.053607087251862,42.18762480538135,66.29483897988507,49.054626827312234
29,238,29,0.9676333333333308,20.765823000141836,133.79090215798482,14.832730714387026,29.813419760233845,38.679029499581816,41.637459282606095,47.55735249758913,112.88477946031755,83.11624915736594,72.68038050049643,74.16365357193513,65.26401514330291,22.24909607158054,43.014919071722375,13.349457642948323,10.382911500070918,9.381042595479892,8.899638428632215,8.899638428632215,41.53164600028367,68.23056128618032,54.13438716688594
30,238,30,1.0009999999999972,18.107149208503756,135.93767992471822,15.08929100708633,27.327868306120212,36.3398249577501,39.3480568904801,51.30358942409384,111.70152787536232,84.50002963968393,75.44645503543211,75.44645503543211,69.41073863259749,21.125007409920954,39.23215661842471,12.071432805669133,9.053574604251821,9.543305571897783,12.071432805669133,10.562503704960477,42.25001481984191,66.39288043118017,48.66150133528563
31,238,31,1.0343666666666638,6.174891261966536,138.96935411156835,12.349782523933072,15.437228154916284,34.10195161514754,37.04934757179899,58.74265936939268,92.67481207088656,77.24786500737606,74.0986951435982,74.09869514359832,71.011249512615,13.893505339424792,20.0683966013911,1.5437228154916056,4.6311684464749305,12.349782523932959,12.349782523933072,12.349782523933072,43.22423883376564,67.92380388163167,50.25997352698827
32,238,32,1.0677333333333303,3.085148936749647,135.781607201614,18.510893620497768,18.510893620497882,33.93663830424612,34.07658379819128,52.53819324033665,92.60587297626763,74.1078205456895,72.50100001361648,70.95842554524165,67.873276608492,16.968319152122945,23.138617025622352,1.5425744683748235,1.5425744683748235,12.720394936980814,12.720394936980814,10.798021278623764,43.192085114494944,64.78812767174247,47.19370389247943
33,238,33,1.1010999999999969,6.026803543625874,135.63655784090244,15.365394436769373,21.30796827288506,33.14741948994242,33.14741948994265,51.316383047970135,93.85186482544998,72.57232487837209,69.30824075169812,69.30824075169812,66.29483897988518,16.573709744971325,25.613915060410136,4.520102657719349,1.5067008859065254,12.424573797608284,12.424573797608229,10.54690620134545,42.18762480538146,66.29483897988518,42.615936545770154
34,238,34,1.1344666666666634,15.49342320869091,130.79719173750095,15.19255139874349,21.26957195824093,30.38510279748698,33.56144299425894,52.010918113417056,103.71072557340132,82.5446424879423,74.44350185384303,72.92424671396873,66.84722615447129,18.23106167849221,33.4236130772357,12.154041118994769,3.0385102797487207,12.154041118994769,12.154041118994769,10.634785979120466,42.53914391648175,63.808715874722566,42.97102447030685
35,238,35,1.16783333333333,33.67818182249198,119.44370833581492,15.308264464768968,21.649155222470544,33.81706151199068,36.739834715445795,55.194732466088226,125.67702879297866,104.14121293479757,87.25710744918365,82.66462810975293,79.60297521679911,26.024049590107325,44.393966947830336,19.900743804199806,13.777438018292173,9.681796546577743,12.246611571815265,10.715785125338357,42.863140501353314,67.35636364498384,43.29831044494109
36,238,36,1.2011999999999965,47.95655904363878,116.89411266886941,14.986424701137139,27.141569502498392,35.967419282729225,39.079814382816565,54.03432269582984,143.99450984605525,116.93253308491718,92.91583314704997,89.9185482068226,89.9185482068226,35.96741928272911,53.951128924093496,20.980994581591972,20.980994581591972,9.478247207640347,12.358122398630767,10.490497290795929,41.96198916318383,62.9429837447758,42.38801012766257
37,238,37,1.234566666666663,39.257863203586226,111.73391834866834,18.119013786270557,30.348972488232253,33.218191941496116,39.25786320358611,54.44086105603105,142.0607201828351,111.77471948873507,92.10498674687528,90.59506893135267,90.59506893135267,36.238027572541114,51.33720572776656,18.119013786270557,21.138849417315555,12.451101278802676,12.079342524180333,12.079342524180333,45.297534465676335,63.41654825194689,48.69338642996276
