,video_id,frame_seq,time_seconds,m1,m3,m4,m5,m6,m7,m8,m9,m10,m11,m12,m13,m14,m15,m16,m17,e1,e2,e3,b1,b2,b3
0,58,205,6.840166666666675,4.123105625617661,29.154759474226502,4.123105625617661,6.0,8.06225774829855,8.06225774829855,6.082762530298219,20.223748416156685,14.317821063276353,12.0,14.0,11.0,6.5,7.5,0.5,3.5,4.123105625617661,4.0,4.0,9.0,11.0,10.0
1,58,206,6.8735333333333415,3.1622776601683795,28.160255680657446,3.0,6.082762530298219,8.06225774829855,9.055385138137417,6.082762530298219,18.24828759089466,12.165525060596439,10.5,13.0,10.0,5.5,6.5,0.5,3.5,5.0,4.123105625617661,4.5,8.0,11.0,11.045361017187261
2,58,207,6.906900000000008,2.0,27.073972741361768,3.0,6.082762530298219,7.0,8.0,6.324555320336759,17.26267650163207,11.180339887498949,10.0,12.0,10.0,5.0,6.0,0.0,2.0,4.0,4.0,4.0,9.0,10.0,10.0
3,58,208,6.940266666666675,2.0,28.071337695236398,3.0,5.0990195135927845,8.06225774829855,8.0,6.324555320336759,16.278820596099706,11.180339887498949,10.0,11.0,9.0,4.0,6.0,0.0,2.0,3.0,3.0,3.0,8.0,8.0,8.06225774829855
4,58,209,6.973633333333342,2.0,26.076809620810597,3.0,5.0,7.0,8.0,5.385164807134504,15.132745950421556,10.198039027185569,9.0,10.0,8.0,4.0,6.0,1.0,1.0,3.1622776601683795,3.0,3.5,9.0,9.0,8.06225774829855
5,58,210,7.0070000000000086,3.0,25.019992006393608,3.0,4.123105625617661,7.0,7.0,5.385164807134504,15.297058540778355,11.180339887498949,9.5,10.0,9.0,4.5,5.5,0.5,1.5,3.1622776601683795,3.0,3.0,8.0,8.0,7.0710678118654755
6,58,211,7.040366666666675,1.0,24.08318915758459,3.0,5.0990195135927845,6.082762530298219,7.0710678118654755,6.324555320336759,15.297058540778355,10.198039027185569,9.5,11.0,9.0,4.0,5.0,0.0,2.0,3.1622776601683795,2.0,2.0,7.0,8.0,7.0
7,58,212,7.073733333333342,2.0,23.08679276123039,3.0,5.0,7.0,7.0,5.385164807134504,15.132745950421556,10.198039027185569,9.0,11.0,9.0,5.0,5.0,0.0,2.0,2.23606797749979,3.0,3.0,7.0,8.0,7.0710678118654755
8,58,213,7.107100000000009,1.0,23.021728866442675,3.0,5.0,6.082762530298219,7.0,4.47213595499958,13.152946437965905,8.246211251235321,7.5,9.0,8.0,4.5,4.5,0.5,2.5,3.0,3.0,2.5,7.0,7.0,7.0710678118654755
9,58,214,7.140466666666676,2.0,23.08679276123039,2.23606797749979,4.0,7.0,6.0,5.0990195135927845,13.152946437965905,9.219544457292887,8.0,10.0,8.0,4.0,4.0,1.0,2.0,4.0,3.0,3.5,6.0,7.0,7.0
10,58,215,7.173833333333342,1.0,22.02271554554524,3.0,4.0,6.082762530298219,6.0,4.47213595499958,12.165525060596439,8.246211251235321,7.5,9.0,8.0,4.5,3.5,0.5,2.5,3.0,3.0,3.0,7.0,7.0,7.0
11,58,216,7.207200000000009,1.0,21.02379604162864,2.0,5.0990195135927845,6.0,7.0710678118654755,4.123105625617661,12.165525060596439,7.0710678118654755,6.5,8.0,7.0,3.5,4.5,0.5,1.5,3.0,3.1622776601683795,3.0,7.0,7.0,7.0
12,58,217,7.240566666666676,2.23606797749979,20.024984394500787,3.0,4.0,6.0,6.0,3.1622776601683795,12.165525060596439,8.246211251235321,7.0,9.0,8.0,5.5,3.5,0.5,2.5,3.0,3.0,3.0,6.0,7.0,6.0
13,58,218,7.273933333333343,1.0,20.024984394500787,2.0,4.0,6.082762530298219,6.082762530298219,5.385164807134504,12.165525060596439,8.246211251235321,7.5,9.0,8.0,3.5,3.5,0.5,2.5,2.0,2.0,2.0,6.0,7.0,7.0710678118654755
14,58,219,7.3073000000000095,0.0,16.0312195418814,2.23606797749979,3.0,5.0990195135927845,4.0,5.0990195135927845,10.198039027185569,7.280109889280518,7.0,9.0,8.0,3.5,1.5,1.5,2.5,2.0,2.0,2.0,6.0,6.0,6.0
15,58,312,10.410399999999957,4.47213595499958,48.25971404805462,6.082762530298219,9.055385138137417,10.04987562112089,11.180339887498949,13.038404810405298,32.01562118716424,23.08679276123039,21.0,22.0,17.0,6.5,12.5,4.5,1.5,9.0,9.055385138137417,9.5,15.0,22.0,24.0
16,58,313,10.44376666666662,2.23606797749979,44.553338819890925,7.0,8.06225774829855,9.219544457292887,10.44030650891055,13.0,30.0,22.02271554554524,21.0,26.0,19.0,9.5,7.5,0.5,3.5,10.0,10.198039027185569,10.0,13.0,21.0,31.064449134018133
17,58,353,11.778433333333256,4.123105625617661,39.319206502675,4.123105625617661,8.06225774829855,10.198039027185569,12.041594578792296,12.165525060596439,28.442925306655784,20.396078054371138,18.0,15.0,10.0,0.5,15.5,6.5,1.5,2.23606797749979,2.8284271247461903,1.5,12.0,20.0,19.235384061671343
18,58,354,11.811799999999922,6.0,36.49657518178932,4.123105625617661,8.246211251235321,10.04987562112089,11.045361017187261,10.198039027185569,28.442925306655784,20.223748416156685,17.0,15.0,9.0,2.0,16.0,7.0,1.0,2.23606797749979,1.4142135623730951,1.0,11.0,19.0,17.11724276862369
19,58,355,11.845166666666588,6.082762530298219,38.3275357934736,4.0,8.06225774829855,10.04987562112089,11.045361017187261,9.219544457292887,27.294688127912362,19.235384061671343,16.0,13.0,8.0,1.5,16.5,8.5,1.5,1.0,2.23606797749979,2.0,11.0,19.0,18.110770276274835
20,58,356,11.878533333333252,5.0,34.36568055487916,4.123105625617661,7.0710678118654755,9.055385138137417,10.04987562112089,10.198039027185569,26.30589287593181,19.235384061671343,16.5,14.0,9.0,1.5,14.5,6.5,1.5,2.0,2.8284271247461903,1.5,11.0,18.0,17.11724276862369
21,58,356,11.878533333333252,6.0,29.614185789921695,2.23606797749979,5.0990195135927845,7.280109889280518,7.280109889280518,7.0,20.09975124224178,15.033296378372908,12.0,6.0,12.0,2.0,11.0,5.0,1.0,2.23606797749979,2.23606797749979,2.0,16.0,8.0,16.1245154965971
22,58,357,11.91189999999992,4.123105625617661,35.22782990761707,4.0,7.0710678118654755,9.055385138137417,10.04987562112089,9.219544457292887,24.331050121192877,17.26267650163207,15.0,12.0,8.0,1.0,14.0,6.0,2.0,2.0,2.23606797749979,2.0,10.0,18.0,18.110770276274835
23,58,357,11.91189999999992,6.0,27.65863337187866,2.23606797749979,5.0990195135927845,7.280109889280518,8.06225774829855,7.0,20.09975124224178,15.033296378372908,12.0,6.0,12.0,2.0,11.0,5.0,1.0,2.8284271247461903,2.0,2.0,16.0,8.0,15.297058540778355
24,58,358,11.945266666666583,5.0,34.23448553724738,3.1622776601683795,6.082762530298219,9.055385138137417,9.055385138137417,10.198039027185569,24.331050121192877,18.24828759089466,15.5,12.0,8.0,0.0,14.0,7.0,2.0,1.4142135623730951,2.23606797749979,1.0,9.0,16.0,16.1245154965971
25,58,358,11.945266666666583,5.0,27.459060435491963,3.0,5.0990195135927845,7.0710678118654755,8.06225774829855,6.082762530298219,19.1049731745428,14.035668847618199,11.5,6.0,11.0,2.5,10.5,4.5,0.5,2.8284271247461903,2.0,2.0,16.0,8.0,15.132745950421556
26,58,359,11.978633333333253,4.0,30.265491900843113,3.1622776601683795,7.0710678118654755,7.0710678118654755,8.06225774829855,10.198039027185569,24.331050121192877,17.26267650163207,15.0,13.0,9.0,1.0,13.0,6.0,1.0,2.0,2.23606797749979,1.0,10.0,16.0,14.035668847618199
27,58,359,11.978633333333253,5.0,26.476404589747453,2.23606797749979,4.123105625617661,7.0710678118654755,7.280109889280518,7.0,18.110770276274835,14.035668847618199,11.5,6.0,11.0,1.5,9.5,4.5,0.5,2.23606797749979,2.23606797749979,2.0,15.0,8.0,13.152946437965905
28,58,360,12.011999999999915,3.0,31.144823004794873,3.1622776601683795,7.0710678118654755,7.0710678118654755,9.055385138137417,9.055385138137417,22.20360331117452,15.132745950421556,13.5,11.0,8.0,0.5,12.5,5.5,1.5,1.0,2.23606797749979,2.0,9.0,15.0,15.033296378372908
29,58,360,12.011999999999915,3.1622776601683795,25.495097567963924,3.0,6.082762530298219,7.280109889280518,7.280109889280518,3.1622776601683795,15.297058540778355,9.219544457292887,7.5,1.0,6.0,0.5,11.5,4.5,2.5,2.23606797749979,2.23606797749979,2.0,16.0,8.0,13.341664064126334
30,58,361,12.045366666666585,4.0,28.284271247461902,3.1622776601683795,6.082762530298219,7.0710678118654755,8.06225774829855,9.219544457292887,22.360679774997898,16.278820596099706,14.0,12.0,8.0,1.0,12.0,5.0,1.0,1.0,2.23606797749979,1.5,9.0,15.0,16.0312195418814
31,58,361,12.045366666666585,3.1622776601683795,29.614185789921695,3.0,6.0,9.219544457292887,9.219544457292887,5.0990195135927845,17.0,11.0,9.5,4.0,10.0,2.0,10.0,2.0,2.0,1.0,2.0,1.5,15.0,9.0,13.152946437965905
32,58,362,12.078733333333249,4.0,28.284271247461902,3.1622776601683795,6.082762530298219,7.0,8.06225774829855,8.246211251235321,21.37755832643195,15.297058540778355,13.0,11.0,7.0,1.0,12.0,5.0,2.0,1.0,2.23606797749979,2.0,8.0,15.0,14.142135623730951
33,58,362,12.078733333333249,5.0,24.331050121192877,2.23606797749979,5.0990195135927845,5.0990195135927845,7.0710678118654755,5.0,17.11724276862369,12.041594578792296,9.5,5.0,9.0,2.0,10.0,4.0,0.0,1.4142135623730951,2.0,1.5,13.0,6.0,12.041594578792296
34,58,363,12.112099999999916,3.0,28.284271247461902,3.1622776601683795,7.0710678118654755,7.0710678118654755,8.06225774829855,8.246211251235321,21.37755832643195,14.317821063276353,12.5,11.0,7.0,1.0,12.0,5.0,1.0,2.23606797749979,2.23606797749979,2.0,9.0,15.0,14.142135623730951
35,58,364,12.14546666666658,3.1622776601683795,28.284271247461902,3.0,6.082762530298219,7.0710678118654755,7.0710678118654755,9.219544457292887,21.37755832643195,15.297058540778355,13.5,11.0,7.0,0.0,12.0,6.0,2.0,1.0,1.4142135623730951,1.0,9.0,14.0,13.152946437965905
36,58,365,12.178833333333246,3.0,28.160255680657446,3.0,6.082762530298219,6.082762530298219,8.06225774829855,8.246211251235321,20.223748416156685,14.142135623730951,12.5,10.0,7.0,0.5,11.5,5.5,1.5,1.4142135623730951,1.4142135623730951,1.5,8.0,14.0,13.038404810405298
37,58,366,12.212199999999912,3.1622776601683795,25.317977802344327,3.0,6.082762530298219,7.0710678118654755,7.0710678118654755,7.280109889280518,19.4164878389476,13.341664064126334,11.5,10.0,6.0,1.0,11.0,5.0,1.0,1.0,2.23606797749979,2.0,7.0,13.0,13.152946437965905
38,58,367,12.245566666666578,4.0,28.284271247461902,3.1622776601683795,5.0990195135927845,7.0,9.055385138137417,6.082762530298219,18.24828759089466,13.152946437965905,11.0,8.0,4.0,0.0,12.0,6.0,2.0,1.0,1.4142135623730951,1.0,8.0,13.0,13.152946437965905
39,58,369,12.31229999999991,2.0,25.317977802344327,3.1622776601683795,6.082762530298219,6.0,6.082762530298219,7.0710678118654755,18.24828759089466,12.165525060596439,11.0,9.0,5.0,0.0,11.0,5.0,2.0,1.4142135623730951,2.23606797749979,1.5,7.0,12.0,12.041594578792296
40,58,370,12.345666666666576,3.1622776601683795,23.194827009486403,3.0,5.0,6.082762530298219,7.0,6.082762530298219,17.11724276862369,12.165525060596439,10.5,9.0,6.0,1.5,9.5,4.5,0.5,1.0,1.4142135623730951,1.0,8.0,13.0,12.041594578792296
41,58,371,12.379033333333242,2.0,23.194827009486403,3.0,5.0990195135927845,6.0,6.0,7.0710678118654755,17.11724276862369,12.041594578792296,11.0,9.0,6.0,0.5,9.5,4.5,1.5,1.0,1.4142135623730951,1.0,7.0,12.0,12.041594578792296
42,58,372,12.412399999999908,2.0,22.20360331117452,2.0,6.082762530298219,6.082762530298219,6.082762530298219,7.280109889280518,17.26267650163207,11.180339887498949,10.0,9.0,6.0,0.5,9.5,3.5,0.5,1.0,1.4142135623730951,1.0,6.0,10.0,11.045361017187261
43,58,384,12.812799999999898,1.0,49.16299421312742,4.123105625617661,7.0710678118654755,14.035668847618199,14.035668847618199,16.1245154965971,27.459060435491963,20.396078054371138,20.0,15.0,19.0,1.0,10.0,2.0,2.0,3.0,3.0,3.0,11.0,5.0,15.132745950421556
44,58,385,12.846166666666564,1.4142135623730951,48.093658625644196,3.1622776601683795,7.0710678118654755,14.035668847618199,14.035668847618199,15.132745950421556,26.476404589747453,19.4164878389476,18.5,14.0,17.0,0.5,10.5,2.5,2.5,3.0,3.1622776601683795,3.0,11.0,8.0,11.0
45,58,386,12.87953333333323,1.4142135623730951,46.17358552246078,3.0,6.082762530298219,13.038404810405298,13.038404810405298,14.317821063276353,24.515301344262525,18.439088914585774,17.5,12.0,16.0,0.0,10.0,3.0,3.0,3.0,4.0,3.5,9.0,6.0,14.035668847618199
46,58,387,12.912899999999896,1.0,39.11521443121589,3.0,6.082762530298219,12.041594578792296,12.041594578792296,13.152946437965905,23.194827009486403,17.11724276862369,16.5,13.0,16.0,1.5,8.5,1.5,1.5,3.0,2.0,2.5,11.0,7.0,10.0
47,58,388,12.946266666666562,0.0,40.11234224026316,3.0,7.0710678118654755,12.041594578792296,12.0,13.152946437965905,23.194827009486403,16.1245154965971,16.0,12.0,15.0,0.5,9.5,1.5,2.5,1.0,2.0,2.5,10.0,7.0,11.045361017187261
48,58,389,12.979633333333227,1.0,39.20459156782532,3.0,7.0,11.045361017187261,11.0,12.165525060596439,22.20360331117452,15.297058540778355,15.0,11.0,15.0,1.0,9.0,1.0,2.0,2.0,3.0,3.0,11.0,9.0,9.0
49,58,389,12.979633333333227,0.0,22.0,3.0,3.0,6.0,6.0,5.0,11.0,8.0,8.0,8.0,8.0,3.0,3.0,0.0,0.0,3.0,3.1622776601683795,3.0,8.0,8.0,8.06225774829855
50,58,390,13.012999999999892,0.0,21.02379604162864,3.0,3.0,6.0,7.0,5.0,11.0,8.0,8.0,8.0,9.0,3.5,2.5,0.5,0.5,3.1622776601683795,3.0,3.0,8.0,7.0,8.06225774829855
51,58,390,13.012999999999892,0.0,37.12142238654117,3.1622776601683795,6.0,11.045361017187261,11.045361017187261,12.041594578792296,21.095023109728988,15.132745950421556,15.0,11.0,14.0,0.5,8.5,1.5,2.5,2.0,2.0,2.0,10.0,6.0,10.0
52,58,391,13.04636666666656,1.0,35.12833614050059,3.1622776601683795,5.0990195135927845,10.04987562112089,10.0,10.04987562112089,19.235384061671343,14.142135623730951,13.5,10.0,13.0,1.5,7.5,1.5,1.5,2.0,2.0,2.0,8.0,4.0,11.180339887498949
53,58,391,13.04636666666656,1.0,20.0,2.0,2.0,5.0,5.0,6.0,11.0,9.0,8.5,8.0,8.0,2.0,3.0,0.0,0.0,2.0,3.0,3.0,8.0,8.0,9.0
54,58,392,13.079733333333223,1.0,20.0,2.23606797749979,2.0,5.0,5.0,5.0990195135927845,10.0,8.0,7.5,7.0,7.0,2.0,3.0,0.0,0.0,3.1622776601683795,3.0,3.0,7.0,7.0,8.06225774829855
55,58,392,13.079733333333223,1.0,34.132096331752024,3.1622776601683795,5.0990195135927845,9.0,11.0,10.198039027185569,19.4164878389476,14.317821063276353,13.5,10.0,13.0,1.5,7.5,1.5,1.5,2.0,2.23606797749979,2.0,8.0,4.0,11.045361017187261
56,58,393,13.113099999999893,1.0,19.0,2.23606797749979,2.0,5.0,6.0,5.0,10.04987562112089,8.06225774829855,7.5,8.0,8.0,3.0,2.0,0.0,1.0,2.0,3.0,2.5,6.0,7.0,8.0
57,58,393,13.113099999999893,1.4142135623730951,36.05551275463989,3.0,5.0,10.04987562112089,10.04987562112089,10.04987562112089,19.1049731745428,14.142135623730951,13.5,10.0,12.0,1.0,8.0,2.0,2.0,3.0,2.0,2.0,7.0,10.0,8.246211251235321
58,58,394,13.146466666666557,0.0,32.0624390837628,3.0,5.0990195135927845,9.0,10.0,9.055385138137417,17.11724276862369,12.041594578792296,12.0,9.0,11.0,1.0,7.0,1.0,1.0,2.0,2.0,2.5,7.0,3.0,9.219544457292887
59,58,395,13.179833333333224,1.0,31.144823004794873,2.23606797749979,4.0,8.0,9.0,10.04987562112089,17.11724276862369,13.152946437965905,12.5,9.0,12.0,0.5,6.5,1.5,1.5,2.0,2.0,2.0,7.0,5.0,9.0
60,58,396,13.213199999999889,1.0,29.154759474226502,2.23606797749979,4.0,9.0,9.055385138137417,9.055385138137417,16.1245154965971,12.165525060596439,11.5,8.0,11.0,0.5,6.5,1.5,1.5,1.0,2.0,1.5,8.0,4.0,9.055385138137417
61,58,397,13.246566666666554,1.0,28.071337695236398,3.0,4.0,8.0,8.0,8.06225774829855,15.132745950421556,11.180339887498949,11.0,8.0,10.0,1.0,6.0,1.0,1.0,2.0,2.0,2.0,8.0,7.0,6.082762530298219
62,58,398,13.27993333333322,0.0,27.16615541441225,2.0,5.0,8.06225774829855,9.0,9.219544457292887,16.1245154965971,11.180339887498949,11.0,8.0,11.0,0.5,6.5,1.5,1.5,1.4142135623730951,1.0,1.5,7.0,4.0,9.055385138137417
63,58,399,13.313299999999886,1.0,26.076809620810597,2.23606797749979,3.0,7.0,7.0,8.06225774829855,14.142135623730951,11.180339887498949,10.5,8.0,10.0,1.0,5.0,1.0,1.0,1.0,1.0,1.0,7.0,4.0,8.06225774829855
64,58,400,13.346666666666552,0.0,25.179356624028344,3.1622776601683795,4.0,7.0710678118654755,7.0710678118654755,7.0710678118654755,14.142135623730951,10.198039027185569,10.0,7.0,10.0,1.5,5.5,0.5,1.5,2.23606797749979,2.0,2.0,7.0,4.0,6.324555320336759
65,58,401,13.380033333333218,1.0,24.08318915758459,2.0,3.1622776601683795,7.0,7.0710678118654755,7.0710678118654755,13.152946437965905,10.04987562112089,9.5,7.0,9.0,1.0,5.0,1.0,1.0,1.0,1.4142135623730951,1.5,6.0,3.0,7.0710678118654755
66,58,402,13.413399999999884,1.0,23.08679276123039,1.0,3.1622776601683795,7.0,7.0,8.06225774829855,13.152946437965905,10.04987562112089,9.5,8.0,10.0,1.0,4.0,0.0,0.0,2.0,1.4142135623730951,1.5,7.0,4.0,6.324555320336759
67,58,463,15.448766666666502,5.385164807134504,82.22530024268686,9.219544457292887,12.649110640673518,18.681541692269406,20.8806130178211,24.515301344262525,51.66236541235796,39.05124837953327,35.5,47.0,28.0,13.5,12.5,3.5,7.5,10.44030650891055,10.44030650891055,10.0,13.0,49.0,32.31098884280702
68,58,467,15.582233333333166,3.1622776601683795,61.84658438426491,8.246211251235321,14.560219778561036,13.601470508735444,15.811388300841896,25.495097567963924,51.419840528729765,36.87817782917155,34.5,47.0,32.0,14.5,10.5,1.5,8.5,12.165525060596439,12.36931687685298,12.0,22.0,48.0,30.805843601498726
69,58,468,15.615599999999832,3.1622776601683795,62.0966987850401,9.219544457292887,13.341664064126334,13.601470508735444,15.811388300841896,24.331050121192877,50.00999900019995,36.6742416417845,34.5,49.0,33.0,17.0,8.0,4.0,10.0,11.40175425099138,11.40175425099138,11.0,16.0,47.0,29.154759474226502
70,58,469,15.648966666666498,3.1622776601683795,61.18823416311342,8.246211251235321,15.297058540778355,14.317821063276353,16.278820596099706,23.194827009486403,49.8196748283246,34.52535300326414,32.5,43.0,31.0,14.0,12.0,2.0,8.0,9.219544457292887,9.219544457292887,9.0,20.0,45.0,30.364452901377952
71,58,470,15.682333333333164,5.385164807134504,61.39218191268331,8.246211251235321,15.132745950421556,14.317821063276353,17.72004514666935,23.08679276123039,51.62363799656123,36.49657518178932,33.5,44.0,31.0,14.5,13.5,0.5,8.5,10.198039027185569,11.180339887498949,10.5,18.0,43.0,30.805843601498726
72,58,471,15.71569999999983,4.123105625617661,62.369864518050704,9.219544457292887,16.1245154965971,14.560219778561036,16.492422502470642,24.186773244895647,53.600373133029585,37.48332962798263,35.0,46.0,33.0,15.5,13.5,1.5,9.5,10.198039027185569,11.180339887498949,11.0,19.0,44.0,28.861739379323623
73,58,472,15.749066666666495,9.055385138137417,60.41522986797286,9.219544457292887,16.278820596099706,14.317821063276353,16.76305461424021,23.194827009486403,57.706152185014034,41.43669871020132,36.5,46.0,33.0,16.5,17.5,1.5,9.5,13.152946437965905,12.36931687685298,12.0,18.0,45.0,31.32091952673165
74,58,473,15.78243333333316,8.06225774829855,64.13267497929586,9.219544457292887,17.26267650163207,15.524174696260024,18.439088914585774,24.186773244895647,58.69412236331676,41.43669871020132,37.0,47.0,35.0,17.0,17.0,1.0,11.0,11.180339887498949,11.180339887498949,11.0,20.0,45.0,32.01562118716424
75,58,475,15.849166666666491,4.0,67.26812023536856,10.198039027185569,17.26267650163207,15.524174696260024,17.46424919657298,23.194827009486403,54.589376255824725,37.33630940518894,35.0,45.0,32.0,15.5,15.5,0.5,8.5,13.341664064126334,15.524174696260024,14.0,23.0,55.0,32.57299494980466
76,58,476,15.88253333333316,2.23606797749979,65.52098900352466,10.44030650891055,17.46424919657298,14.560219778561036,17.08800749063506,23.08679276123039,52.952809179494906,35.510561809129406,34.0,48.0,30.0,16.0,13.0,2.0,8.0,13.152946437965905,14.317821063276353,14.0,21.0,54.0,32.31098884280702
77,58,489,16.316299999999817,3.1622776601683795,60.876925020897694,9.219544457292887,15.297058540778355,15.524174696260024,17.72004514666935,25.317977802344327,52.952809179494906,37.656340767525464,35.5,46.0,31.0,13.5,13.5,0.5,7.5,11.40175425099138,11.704699910719626,10.5,18.0,42.0,30.805843601498726
78,58,494,16.483133333333146,2.23606797749979,66.49060083951716,9.219544457292887,15.297058540778355,15.811388300841896,17.72004514666935,23.194827009486403,49.8196748283246,34.52535300326414,33.0,43.0,29.0,13.0,13.0,1.0,7.0,13.152946437965905,13.341664064126334,13.5,22.0,52.0,32.57299494980466
79,58,495,16.516499999999812,2.23606797749979,66.49060083951716,9.486832980505138,16.1245154965971,15.524174696260024,17.46424919657298,22.090722034374522,49.64876634922564,33.54101966249684,32.0,43.0,29.0,14.0,13.0,2.0,7.0,11.40175425099138,12.165525060596439,11.5,21.0,47.0,31.32091952673165
80,58,496,16.549866666666478,3.605551275463989,64.5600495662759,8.246211251235321,14.317821063276353,16.76305461424021,18.681541692269406,23.08679276123039,48.83646178829912,34.52535300326414,32.5,46.0,28.0,14.0,11.0,2.0,9.0,11.180339887498949,12.165525060596439,12.0,18.0,50.0,29.732137494637012
81,58,497,16.583233333333144,0.0,63.324560795950255,9.486832980505138,15.297058540778355,14.560219778561036,16.76305461424021,24.020824298928627,48.507731342539614,33.24154027718932,33.0,45.0,28.0,12.5,11.5,2.5,6.5,12.36931687685298,13.341664064126334,13.0,18.0,53.0,33.83784863137726
82,58,498,16.61659999999981,1.0,63.56099432828282,8.246211251235321,12.165525060596439,15.524174696260024,17.46424919657298,23.08679276123039,43.56604182158393,31.400636936215164,31.0,41.0,27.0,11.0,9.0,2.0,6.0,9.219544457292887,10.44030650891055,10.0,21.0,49.0,25.298221281347036
83,58,499,16.649966666666476,2.0,65.96969000988257,9.219544457292887,15.297058540778355,14.560219778561036,16.492422502470642,24.08318915758459,46.52956049652737,31.25699921617557,32.0,44.0,28.0,12.0,10.0,4.0,6.0,14.317821063276353,15.524174696260024,14.5,22.0,57.0,36.40054944640259
84,58,500,16.68333333333314,4.0,64.32728814430156,9.219544457292887,14.317821063276353,15.297058540778355,17.26267650163207,24.186773244895647,51.62363799656123,37.33630940518894,35.0,41.0,28.0,10.5,16.5,2.5,4.5,12.165525060596439,13.341664064126334,13.5,21.0,53.0,31.622776601683793
85,58,501,16.716699999999808,6.082762530298219,63.34824385884742,9.219544457292887,17.26267650163207,14.317821063276353,17.26267650163207,24.331050121192877,56.88585061331157,39.6232255123179,36.0,43.0,30.0,12.5,19.5,2.5,5.5,13.152946437965905,13.341664064126334,13.0,23.0,55.0,33.52610922848042
86,58,502,16.750066666666473,5.385164807134504,68.24954212300622,9.219544457292887,17.26267650163207,14.560219778561036,16.492422502470642,25.179356624028344,56.88585061331157,39.6232255123179,36.5,43.0,30.0,11.5,19.5,3.5,5.5,13.341664064126334,14.317821063276353,13.5,23.0,54.0,33.52610922848042
87,58,503,16.78343333333314,4.47213595499958,67.26812023536856,8.06225774829855,14.142135623730951,15.524174696260024,17.46424919657298,26.476404589747453,52.952809179494906,38.8329756778952,36.0,41.0,28.0,8.5,17.5,3.5,3.5,8.246211251235321,8.246211251235321,8.0,22.0,42.0,30.59411708155671
88,58,504,16.816799999999805,1.0,68.4470598345904,9.219544457292887,14.142135623730951,13.601470508735444,16.76305461424021,26.30589287593181,49.8196748283246,35.6931365951495,35.0,42.0,28.0,9.0,14.0,1.0,3.0,12.165525060596439,13.341664064126334,12.5,20.0,50.0,32.28002478313795
89,58,505,16.85016666666647,2.0,66.2872536767062,8.246211251235321,13.341664064126334,14.317821063276353,15.524174696260024,25.179356624028344,48.662100242385755,35.35533905932738,34.0,41.0,28.0,9.5,13.5,0.5,3.5,13.152946437965905,13.341664064126334,13.0,23.0,51.0,31.622776601683793
90,58,506,16.883533333333137,2.23606797749979,64.32728814430156,8.246211251235321,12.165525060596439,14.317821063276353,16.492422502470642,25.179356624028344,47.67598976424087,35.510561809129406,34.0,41.0,28.0,9.5,12.5,0.5,4.5,13.152946437965905,13.341664064126334,13.5,19.0,46.0,29.410882339705484
91,58,507,16.916899999999803,0.0,68.4470598345904,9.219544457292887,15.297058540778355,16.492422502470642,17.46424919657298,24.331050121192877,48.83646178829912,33.54101966249684,33.0,42.0,28.0,11.0,13.0,1.0,5.0,12.165525060596439,12.649110640673518,12.0,23.0,53.0,37.36308338453881
92,58,508,16.95026666666647,3.1622776601683795,71.58910531638176,8.246211251235321,14.317821063276353,16.278820596099706,18.439088914585774,25.179356624028344,50.80354318352215,36.49657518178932,34.5,43.0,28.0,10.5,14.5,1.5,4.5,13.341664064126334,13.341664064126334,13.0,22.0,51.0,34.20526275297414
93,58,509,16.983633333333135,3.605551275463989,67.08203932499369,8.246211251235321,15.132745950421556,15.297058540778355,17.72004514666935,24.331050121192877,50.99019513592785,35.90264614203248,33.5,41.0,29.0,11.0,15.0,1.0,5.0,12.165525060596439,13.152946437965905,13.0,22.0,49.0,34.20526275297414
94,58,510,17.0169999999998,5.385164807134504,68.65857557508748,7.280109889280518,14.142135623730951,17.26267650163207,19.4164878389476,25.317977802344327,51.97114584074513,37.8549864614954,34.5,44.0,29.0,11.5,14.5,1.5,6.5,12.36931687685298,14.317821063276353,13.5,19.0,50.0,32.57299494980466
95,58,511,17.050366666666466,5.385164807134504,69.42621983083913,9.055385138137417,15.132745950421556,17.46424919657298,19.4164878389476,25.317977802344327,54.74486277268398,39.6232255123179,36.5,44.0,30.0,12.0,17.0,3.0,6.0,10.198039027185569,11.180339887498949,10.5,19.0,40.0,28.861739379323623
96,58,512,17.083733333333132,6.0,71.58910531638176,8.246211251235321,17.26267650163207,15.297058540778355,18.439088914585774,24.331050121192877,55.731499172371095,38.47076812334269,35.0,44.0,29.0,12.5,18.5,2.5,6.5,13.341664064126334,14.560219778561036,14.0,18.0,52.0,33.83784863137726
97,58,513,17.117099999999798,3.1622776601683795,72.56721022610694,9.219544457292887,17.26267650163207,16.492422502470642,18.681541692269406,25.179356624028344,54.74486277268398,37.48332962798263,35.5,45.0,30.0,12.5,16.5,0.5,5.5,13.341664064126334,14.317821063276353,13.5,21.0,51.0,33.52610922848042
98,58,514,17.150466666666464,6.324555320336759,71.386273190299,9.055385138137417,18.24828759089466,15.524174696260024,18.439088914585774,24.515301344262525,58.05170109479997,39.81205847478876,36.0,44.0,30.0,13.0,20.0,3.0,6.0,14.142135623730951,15.297058540778355,14.5,24.0,51.0,32.28002478313795
99,58,515,17.18383333333313,7.280109889280518,69.42621983083913,10.198039027185569,16.278820596099706,16.492422502470642,18.439088914585774,24.73863375370596,58.463663928973865,42.20189569201838,37.5,45.0,31.0,14.0,19.0,4.0,7.0,11.180339887498949,11.180339887498949,11.0,23.0,45.0,29.614185789921695
100,58,516,17.217199999999796,6.082762530298219,73.7563556583431,9.219544457292887,15.297058540778355,18.681541692269406,19.6468827043885,25.495097567963924,56.089214649520635,40.792156108742276,37.0,46.0,30.0,13.0,17.0,4.0,7.0,12.165525060596439,13.341664064126334,12.5,23.0,46.0,29.832867780352597
101,58,517,17.25056666666646,1.4142135623730951,72.3671196055225,10.198039027185569,16.278820596099706,16.278820596099706,17.46424919657298,24.73863375370596,52.392747589718944,36.138621999185304,34.5,41.0,27.0,10.0,17.0,1.0,3.0,14.142135623730951,15.297058540778355,14.5,23.0,51.0,31.953090617340916
102,58,518,17.283933333333128,1.4142135623730951,72.78049189171504,9.219544457292887,13.152946437965905,16.492422502470642,19.4164878389476,25.709920264364882,47.29693436154187,34.20526275297414,33.5,42.0,26.0,9.0,12.0,0.0,3.0,11.180339887498949,12.36931687685298,12.0,22.0,48.0,33.95585369269929
103,58,519,17.317299999999793,1.0,69.2314957226839,8.246211251235321,14.142135623730951,15.297058540778355,17.46424919657298,25.495097567963924,46.87216658103186,32.7566787083184,32.5,39.0,26.0,7.5,13.5,0.5,2.5,13.152946437965905,14.317821063276353,13.5,24.0,49.0,34.48187929913333
104,58,520,17.35066666666646,0.0,76.90253571892151,7.280109889280518,12.36931687685298,17.46424919657298,18.681541692269406,25.179356624028344,44.721359549995796,32.38826948140329,32.0,41.0,24.0,7.5,11.5,0.5,3.5,13.152946437965905,15.297058540778355,15.0,20.0,54.0,32.89376840679705
105,58,521,17.384033333333125,2.23606797749979,74.95331880577403,7.280109889280518,13.341664064126334,16.492422502470642,18.439088914585774,27.16615541441225,45.89117562233506,32.55764119219941,33.0,43.0,26.0,7.5,10.5,1.5,3.5,13.341664064126334,14.560219778561036,14.0,21.0,55.0,35.4682957019364
106,58,522,17.41739999999979,1.4142135623730951,74.95331880577403,7.280109889280518,13.341664064126334,17.26267650163207,18.439088914585774,26.076809620810597,45.70557952810576,32.38826948140329,32.5,42.0,25.0,7.5,11.5,0.5,3.5,14.142135623730951,15.297058540778355,15.0,21.0,55.0,33.24154027718932
107,58,523,17.450766666666457,0.0,75.7099729229908,6.324555320336759,11.40175425099138,16.492422502470642,17.72004514666935,25.179356624028344,42.7551166528639,31.400636936215164,31.0,39.0,23.0,6.0,11.0,1.0,3.0,13.341664064126334,15.524174696260024,14.5,21.0,57.0,32.31098884280702
108,58,524,17.484133333333123,1.0,74.52516353554684,6.324555320336759,11.180339887498949,15.524174696260024,17.72004514666935,25.079872407968907,42.579337712087536,31.400636936215164,31.0,38.0,23.0,5.5,11.5,1.5,2.5,14.142135623730951,15.524174696260024,15.0,20.0,55.0,30.083217912982647
109,58,525,17.51749999999979,1.4142135623730951,73.54590403278758,7.280109889280518,11.40175425099138,17.46424919657298,18.439088914585774,24.08318915758459,43.73785545725808,32.38826948140329,31.5,39.0,24.0,7.5,11.5,0.5,3.5,14.142135623730951,15.297058540778355,15.0,22.0,55.0,34.17601498127012
110,58,526,17.550866666666455,1.0,73.54590403278758,6.082762530298219,12.165525060596439,17.46424919657298,18.439088914585774,26.1725046566048,43.41658669218482,31.25699921617557,31.5,40.0,25.0,6.5,10.5,0.5,3.5,13.152946437965905,13.341664064126334,13.5,23.0,54.0,32.57299494980466
111,58,527,17.58423333333312,0.0,70.40596565632774,7.280109889280518,12.165525060596439,14.317821063276353,17.26267650163207,25.079872407968907,44.40720662234904,32.2490309931942,32.0,39.0,25.0,7.0,12.0,1.0,3.0,15.132745950421556,16.1245154965971,16.0,24.0,55.0,33.83784863137726
112,58,528,17.617599999999786,1.4142135623730951,67.468511173732,8.246211251235321,14.142135623730951,16.278820596099706,17.46424919657298,25.079872407968907,46.52956049652737,32.38826948140329,32.5,40.0,26.0,8.0,13.0,0.0,3.0,13.152946437965905,15.297058540778355,14.5,23.0,56.0,33.83784863137726
113,58,530,17.684333333333118,2.23606797749979,66.70832032063167,8.246211251235321,15.297058540778355,15.524174696260024,17.46424919657298,24.186773244895647,49.8196748283246,34.52535300326414,33.0,42.0,27.0,10.5,14.5,0.5,5.5,12.041594578792296,13.341664064126334,13.0,22.0,50.0,32.984845004941285
114,58,531,17.717699999999784,4.123105625617661,63.34824385884742,9.486832980505138,16.278820596099706,14.560219778561036,16.492422502470642,24.186773244895647,53.9351462406472,37.656340767525464,35.0,42.0,29.0,11.5,17.5,2.5,5.5,13.152946437965905,13.152946437965905,12.5,23.0,49.0,31.04834939252005
115,58,532,17.75106666666645,5.385164807134504,61.39218191268331,9.219544457292887,16.278820596099706,14.560219778561036,17.46424919657298,23.194827009486403,53.9351462406472,37.656340767525464,34.5,43.0,30.0,13.5,16.5,1.5,7.5,10.44030650891055,11.180339887498949,10.5,22.0,43.0,34.92849839314596
116,58,533,17.784433333333116,5.0990195135927845,63.56099432828282,9.486832980505138,17.26267650163207,14.560219778561036,17.46424919657298,23.194827009486403,54.91812087098393,37.656340767525464,34.5,43.0,29.0,13.0,18.0,2.0,6.0,12.165525060596439,13.341664064126334,13.0,22.0,49.0,33.52610922848042
117,58,534,17.81779999999978,6.082762530298219,68.65857557508748,9.486832980505138,17.26267650163207,15.524174696260024,17.46424919657298,24.186773244895647,56.88585061331157,39.6232255123179,36.0,45.0,30.0,13.5,18.5,3.5,7.5,12.165525060596439,13.341664064126334,12.5,21.0,50.0,29.732137494637012
118,58,535,17.851166666666447,8.246211251235321,69.85699678629192,9.486832980505138,17.26267650163207,16.76305461424021,19.924858845171276,24.515301344262525,59.43904440685432,42.20189569201838,37.0,46.0,30.0,14.0,20.0,4.0,8.0,13.341664064126334,13.601470508735444,13.0,18.0,52.0,30.083217912982647
119,58,536,17.884533333333113,8.246211251235321,72.27724399837061,8.54400374531753,16.278820596099706,16.76305461424021,18.681541692269406,25.179356624028344,58.05170109479997,41.773197148410844,37.0,46.0,28.0,12.0,20.0,6.0,7.0,13.341664064126334,14.560219778561036,14.0,19.0,53.0,29.154759474226502
120,58,537,17.91789999999978,2.0,70.83078426785913,9.219544457292887,14.317821063276353,16.492422502470642,19.4164878389476,27.459060435491963,52.952809179494906,38.63935817272331,37.0,44.0,28.0,9.0,16.0,3.0,3.0,13.152946437965905,13.341664064126334,13.0,24.0,57.0,36.05551275463989
121,58,538,17.951266666666445,2.23606797749979,69.2314957226839,7.280109889280518,13.152946437965905,15.524174696260024,17.46424919657298,27.294688127912362,49.8196748283246,36.6742416417845,35.0,40.0,27.0,6.5,15.5,2.5,2.5,13.152946437965905,13.341664064126334,13.0,22.0,52.0,33.83784863137726
122,58,539,17.98463333333311,2.0,70.40596565632774,7.615773105863909,12.36931687685298,15.297058540778355,17.46424919657298,26.1725046566048,47.853944456021594,35.510561809129406,34.0,40.0,26.0,7.0,14.0,2.0,2.0,12.165525060596439,12.36931687685298,12.0,23.0,56.0,33.24154027718932
123,58,540,18.017999999999777,1.4142135623730951,69.2314957226839,8.246211251235321,14.317821063276353,15.297058540778355,17.72004514666935,25.495097567963924,49.24428900898052,34.92849839314596,33.5,39.0,26.0,7.5,15.5,2.5,2.5,12.165525060596439,12.165525060596439,12.0,23.0,48.0,32.01562118716424
124,58,541,18.051366666666443,5.0990195135927845,71.58910531638176,7.280109889280518,14.317821063276353,16.492422502470642,19.6468827043885,25.495097567963924,52.172789842982326,37.8549864614954,34.5,43.0,28.0,10.5,15.5,2.5,5.5,11.180339887498949,11.180339887498949,11.0,20.0,43.0,31.04834939252005
125,58,542,18.08473333333311,5.0990195135927845,68.24954212300622,8.246211251235321,15.297058540778355,16.278820596099706,18.439088914585774,24.515301344262525,53.150729063673246,37.8549864614954,34.5,41.0,28.0,10.5,17.5,3.5,5.5,9.219544457292887,9.486832980505138,9.0,21.0,44.0,29.614185789921695
126,58,543,18.11809999999977,6.082762530298219,71.19691004531025,8.246211251235321,15.297058540778355,18.24828759089466,19.6468827043885,25.179356624028344,54.74486277268398,39.45883931389772,36.0,41.0,28.0,9.5,19.5,4.5,4.5,7.615773105863909,7.280109889280518,7.0,21.0,42.0,29.614185789921695
127,58,544,18.15146666666644,6.324555320336759,70.40596565632774,8.246211251235321,16.1245154965971,16.492422502470642,18.24828759089466,24.515301344262525,55.10898293381942,39.05124837953327,35.0,42.0,28.0,11.0,19.0,4.0,6.0,6.324555320336759,6.324555320336759,6.0,20.0,41.0,28.635642126552707
128,58,545,18.184833333333103,10.04987562112089,75.31268153505093,7.280109889280518,14.317821063276353,18.439088914585774,19.4164878389476,24.331050121192877,55.90169943749474,41.593268686170845,36.0,42.0,28.0,11.0,20.0,7.0,7.0,8.246211251235321,6.324555320336759,6.5,21.0,43.0,30.805843601498726
129,58,546,18.21819999999977,10.198039027185569,77.92945527847606,7.280109889280518,15.297058540778355,18.24828759089466,20.396078054371138,24.73863375370596,57.48912940721924,42.20189569201838,36.0,40.0,28.0,10.0,22.0,8.0,6.0,10.198039027185569,10.198039027185569,9.0,22.0,43.0,25.495097567963924
130,58,547,18.25156666666644,7.0710678118654755,77.92945527847606,7.0710678118654755,13.341664064126334,18.24828759089466,19.4164878389476,24.515301344262525,51.97114584074513,38.63935817272331,34.5,39.0,27.0,9.0,18.0,6.0,4.0,12.165525060596439,11.180339887498949,11.0,26.0,46.0,28.635642126552707
131,58,548,18.284933333333104,3.605551275463989,74.96665925596525,8.06225774829855,14.142135623730951,17.26267650163207,19.235384061671343,23.53720459187964,49.03060268852505,34.92849839314596,32.5,36.0,24.0,7.0,18.0,4.0,2.0,11.180339887498949,11.180339887498949,10.5,26.0,41.0,29.274562336608895
132,58,549,18.31829999999977,3.1622776601683795,74.81310045707235,8.246211251235321,14.142135623730951,17.26267650163207,18.24828759089466,23.194827009486403,48.662100242385755,34.52535300326414,32.5,35.0,24.0,6.5,18.5,4.5,1.5,11.180339887498949,11.180339887498949,10.5,25.0,42.0,34.713109915419565
133,58,550,18.35166666666644,6.082762530298219,75.8023746329889,7.0710678118654755,14.317821063276353,18.24828759089466,20.223748416156685,24.331050121192877,51.78802950489621,37.48332962798263,34.0,37.0,26.0,7.5,19.5,5.5,2.5,11.045361017187261,11.180339887498949,10.5,26.0,44.0,31.575306807693888
134,58,551,18.3850333333331,12.041594578792296,75.66372975210778,7.280109889280518,15.297058540778355,19.235384061671343,20.223748416156685,23.194827009486403,57.706152185014034,42.42640687119285,36.0,37.0,27.0,9.0,25.0,10.0,4.0,11.180339887498949,11.180339887498949,10.5,25.0,43.0,31.575306807693888
135,58,552,18.418399999999767,10.198039027185569,75.95393340703298,8.06225774829855,17.26267650163207,17.26267650163207,19.235384061671343,23.53720459187964,59.033888572581766,41.773197148410844,36.0,40.0,28.0,11.0,24.0,8.0,5.0,11.045361017187261,11.180339887498949,10.5,25.0,43.0,28.861739379323623
136,58,553,18.451766666666437,6.324555320336759,72.83543093852057,8.06225774829855,14.142135623730951,17.26267650163207,18.24828759089466,24.515301344262525,52.952809179494906,38.8329756778952,35.0,40.0,29.0,10.5,17.5,3.5,4.5,11.180339887498949,11.40175425099138,10.5,19.0,41.0,30.805843601498726
137,58,554,18.4851333333331,2.23606797749979,66.91038783328041,7.280109889280518,12.165525060596439,17.26267650163207,17.26267650163207,25.179356624028344,46.69047011971501,34.52535300326414,33.0,38.0,27.0,7.5,13.5,2.5,3.5,11.045361017187261,11.180339887498949,10.5,22.0,36.0,29.274562336608895
138,58,555,18.518499999999765,1.4142135623730951,67.7421582177598,8.06225774829855,13.152946437965905,15.297058540778355,16.278820596099706,25.317977802344327,47.67598976424087,34.52535300326414,33.5,39.0,29.0,9.0,13.0,0.0,4.0,10.04987562112089,10.198039027185569,10.0,23.0,37.0,30.4138126514911
139,58,556,18.55186666666643,4.123105625617661,68.06614430096654,7.280109889280518,13.152946437965905,16.278820596099706,17.26267650163207,26.30589287593181,50.80354318352215,37.656340767525464,35.0,41.0,29.0,9.0,15.0,2.0,4.0,10.198039027185569,10.198039027185569,10.0,21.0,39.0,29.614185789921695
140,58,557,18.585233333333097,6.324555320336759,70.71067811865476,8.06225774829855,15.132745950421556,17.26267650163207,18.24828759089466,24.186773244895647,53.600373133029585,38.47076812334269,35.0,40.0,30.0,11.0,18.0,3.0,6.0,11.180339887498949,11.180339887498949,11.0,18.0,36.0,30.4138126514911
141,58,558,18.618599999999763,9.055385138137417,70.03570517957252,7.0710678118654755,16.1245154965971,17.26267650163207,19.235384061671343,24.331050121192877,56.568542494923804,40.44749683231337,35.5,42.0,30.0,12.0,20.0,5.0,7.0,10.198039027185569,10.198039027185569,10.0,16.0,37.0,27.459060435491963
142,58,559,18.65196666666643,6.082762530298219,73.54590403278758,9.219544457292887,18.110770276274835,18.439088914585774,21.37755832643195,23.08679276123039,56.43580423808985,38.3275357934736,35.0,43.0,28.0,12.5,20.5,4.5,6.5,13.152946437965905,13.341664064126334,13.0,23.0,51.0,35.17101079013795
143,58,560,18.68533333333309,6.082762530298219,72.18032973047436,8.246211251235321,18.24828759089466,18.439088914585774,20.396078054371138,23.194827009486403,55.731499172371095,37.48332962798263,34.0,41.0,28.0,11.5,20.5,3.5,6.5,12.165525060596439,12.165525060596439,12.0,23.0,49.0,36.87817782917155
144,58,561,18.71869999999976,7.0710678118654755,70.40596565632774,8.246211251235321,18.24828759089466,17.46424919657298,20.396078054371138,23.194827009486403,56.71860364994893,38.47076812334269,34.5,42.0,28.0,12.0,21.0,4.0,7.0,11.180339887498949,13.152946437965905,13.0,24.0,51.0,36.138621999185304
145,58,562,18.752066666666423,8.06225774829855,72.18032973047436,9.219544457292887,17.26267650163207,18.439088914585774,19.4164878389476,22.360679774997898,56.88585061331157,39.6232255123179,35.0,41.0,28.0,12.5,21.5,5.5,6.5,9.219544457292887,9.219544457292887,9.0,20.0,40.0,29.427877939124322
146,58,563,18.78543333333309,10.198039027185569,68.06614430096654,8.06225774829855,17.11724276862369,15.297058540778355,17.26267650163207,23.194827009486403,58.54912467321779,41.43669871020132,36.0,42.0,30.0,13.0,22.0,5.0,7.0,10.198039027185569,10.198039027185569,9.5,19.0,38.0,29.614185789921695
147,58,564,18.81879999999976,9.055385138137417,69.05070600652827,7.0710678118654755,17.26267650163207,15.297058540778355,18.439088914585774,23.345235059857504,56.71860364994893,39.45883931389772,34.5,41.0,29.0,12.0,21.0,5.0,7.0,7.280109889280518,8.246211251235321,7.5,21.0,38.0,28.442925306655784
148,58,565,18.852166666666424,9.055385138137417,68.06614430096654,7.0710678118654755,16.1245154965971,16.278820596099706,18.24828759089466,23.345235059857504,55.57877292636101,39.45883931389772,34.5,41.0,29.0,12.0,20.0,5.0,7.0,6.324555320336759,6.082762530298219,5.5,19.0,38.0,28.635642126552707
149,58,566,18.88553333333309,7.0710678118654755,66.09841147864296,8.06225774829855,16.1245154965971,15.297058540778355,17.46424919657298,23.345235059857504,54.589376255824725,38.47076812334269,34.5,41.0,29.0,12.0,19.0,4.0,7.0,7.280109889280518,7.280109889280518,7.5,19.0,38.0,26.68332812825267
150,58,567,18.91889999999976,6.082762530298219,66.09841147864296,7.0710678118654755,15.132745950421556,16.278820596099706,18.439088914585774,22.20360331117452,50.48762224545735,35.35533905932738,32.0,40.0,28.0,12.0,16.0,2.0,7.0,9.219544457292887,8.246211251235321,8.0,18.0,37.0,26.68332812825267
151,58,568,18.95226666666642,2.23606797749979,68.06614430096654,9.055385138137417,16.1245154965971,16.278820596099706,18.439088914585774,23.53720459187964,50.80354318352215,34.713109915419565,33.0,39.0,27.0,10.0,17.0,2.0,4.0,9.055385138137417,9.055385138137417,8.5,21.0,38.0,27.459060435491963
152,58,569,18.985633333333087,3.1622776601683795,64.32728814430156,8.06225774829855,15.132745950421556,16.278820596099706,18.439088914585774,24.515301344262525,50.80354318352215,35.6931365951495,33.5,42.0,29.0,11.5,14.5,0.5,5.5,10.198039027185569,9.219544457292887,9.0,21.0,40.0,28.442925306655784
153,58,570,19.018999999999757,4.123105625617661,63.150613615387776,9.219544457292887,15.132745950421556,15.297058540778355,17.26267650163207,24.331050121192877,52.773099207835045,37.656340767525464,35.0,42.0,30.0,12.0,16.0,2.0,6.0,11.045361017187261,11.045361017187261,11.0,21.0,39.0,26.68332812825267
154,58,571,19.05236666666642,3.605551275463989,62.96824596572466,8.06225774829855,15.132745950421556,15.297058540778355,17.26267650163207,25.317977802344327,51.78802950489621,36.6742416417845,34.5,41.0,30.0,10.5,15.5,1.5,5.5,10.04987562112089,10.04987562112089,10.0,20.0,36.0,27.294688127912362
155,58,572,19.085733333333085,2.23606797749979,64.13267497929586,9.219544457292887,16.278820596099706,14.560219778561036,17.46424919657298,24.186773244895647,51.78802950489621,35.510561809129406,34.0,41.0,29.0,11.0,16.0,1.0,5.0,12.165525060596439,13.152946437965905,13.0,24.0,49.0,33.95585369269929
156,58,573,19.11909999999975,0.0,66.09841147864296,10.198039027185569,16.1245154965971,16.492422502470642,18.439088914585774,24.186773244895647,50.48762224545735,34.36568055487916,34.0,42.0,30.0,12.0,14.0,1.0,5.0,13.152946437965905,13.341664064126334,13.0,26.0,49.0,37.656340767525464
157,58,574,19.152466666666417,2.23606797749979,69.2314957226839,9.055385138137417,16.1245154965971,15.297058540778355,17.46424919657298,24.186773244895647,50.635955604688654,34.52535300326414,33.5,41.0,28.0,10.5,15.5,0.5,3.5,10.198039027185569,9.055385138137417,9.0,21.0,41.0,32.55764119219941
158,58,575,19.185833333333083,4.123105625617661,67.08203932499369,9.219544457292887,16.1245154965971,16.492422502470642,18.439088914585774,24.331050121192877,53.75872022286245,37.656340767525464,35.0,41.0,29.0,11.0,18.0,3.0,5.0,10.04987562112089,10.198039027185569,10.0,21.0,40.0,28.635642126552707
159,58,576,19.21919999999975,6.324555320336759,72.56721022610694,10.04987562112089,18.110770276274835,17.46424919657298,19.6468827043885,23.345235059857504,57.706152185014034,39.6232255123179,36.0,44.0,29.0,13.5,20.5,3.5,6.5,10.198039027185569,10.44030650891055,9.5,19.0,41.0,31.78049716414141
160,58,577,19.25256666666641,5.0990195135927845,70.40596565632774,9.219544457292887,17.26267650163207,17.46424919657298,19.6468827043885,23.194827009486403,54.74486277268398,37.48332962798263,34.5,43.0,29.0,13.0,18.0,2.0,7.0,9.219544457292887,10.198039027185569,9.5,19.0,39.0,28.635642126552707
161,58,578,19.28593333333308,4.123105625617661,72.3671196055225,10.198039027185569,17.11724276862369,18.439088914585774,19.4164878389476,23.345235059857504,54.74486277268398,37.656340767525464,35.0,42.0,28.0,12.0,19.0,3.0,5.0,12.165525060596439,13.341664064126334,12.0,22.0,46.0,29.832867780352597
162,58,579,19.319299999999743,4.123105625617661,70.40596565632774,9.219544457292887,18.24828759089466,17.26267650163207,19.4164878389476,22.360679774997898,53.9351462406472,35.6931365951495,33.0,41.0,27.0,12.0,19.0,2.0,5.0,12.36931687685298,13.152946437965905,12.5,23.0,45.0,29.614185789921695
163,58,580,19.35266666666641,4.123105625617661,71.80529228406496,9.219544457292887,16.278820596099706,17.46424919657298,19.6468827043885,23.53720459187964,53.150729063673246,36.87817782917155,34.0,44.0,28.0,13.0,16.0,1.0,7.0,10.44030650891055,10.198039027185569,10.0,24.0,44.0,28.442925306655784
164,58,581,19.38603333333308,4.123105625617661,69.63476143421474,9.219544457292887,17.26267650163207,17.46424919657298,18.681541692269406,22.360679774997898,52.952809179494906,35.6931365951495,33.0,41.0,26.0,11.5,18.5,2.5,5.5,13.152946437965905,12.165525060596439,12.0,22.0,49.0,34.92849839314596
165,58,582,19.419399999999744,4.47213595499958,69.63476143421474,9.219544457292887,16.1245154965971,18.439088914585774,20.396078054371138,22.20360331117452,51.78802950489621,35.6931365951495,33.0,41.0,26.0,11.5,17.5,2.5,5.5,12.165525060596439,12.36931687685298,12.5,22.0,46.0,29.832867780352597
166,58,583,19.45276666666641,4.123105625617661,71.06335201775947,9.219544457292887,16.278820596099706,17.72004514666935,19.6468827043885,22.561028345356956,52.172789842982326,35.90264614203248,33.0,42.0,25.0,11.5,17.5,2.5,5.5,11.180339887498949,11.180339887498949,11.0,21.0,46.0,30.805843601498726
167,58,584,19.48613333333308,4.47213595499958,69.12307863514182,8.246211251235321,15.297058540778355,17.72004514666935,18.681541692269406,23.345235059857504,51.19570294468082,35.90264614203248,33.0,43.0,26.0,11.5,15.5,1.5,7.5,13.152946437965905,13.341664064126334,13.0,17.0,46.0,30.083217912982647
168,58,585,19.51949999999974,5.0990195135927845,67.91170738539859,7.280109889280518,13.341664064126334,16.492422502470642,18.681541692269406,24.331050121192877,50.00999900019995,36.6742416417845,33.5,42.0,26.0,10.0,15.0,3.0,6.0,11.180339887498949,11.180339887498949,10.5,16.0,41.0,31.04834939252005
169,58,586,19.552866666666407,5.385164807134504,66.94027188471824,8.246211251235321,13.341664064126334,17.46424919657298,18.681541692269406,22.360679774997898,49.24428900898052,35.90264614203248,32.5,41.0,25.0,11.0,15.0,3.0,6.0,12.165525060596439,13.601470508735444,12.5,18.0,49.0,32.57299494980466
170,58,587,19.586233333333077,3.605551275463989,68.15423684555495,8.246211251235321,14.317821063276353,16.492422502470642,18.439088914585774,23.345235059857504,49.24428900898052,34.92849839314596,32.5,42.0,25.0,10.5,14.5,1.5,5.5,11.40175425099138,12.36931687685298,12.0,16.0,49.0,35.73513677041127
171,58,588,19.61959999999974,4.47213595499958,69.12307863514182,9.219544457292887,15.297058540778355,16.492422502470642,18.681541692269406,23.53720459187964,52.392747589718944,37.107950630558946,34.0,44.0,27.0,12.5,15.5,1.5,6.5,13.341664064126334,13.341664064126334,13.0,18.0,50.0,30.675723300355934
172,58,589,19.652966666666405,6.324555320336759,70.09279563550022,9.219544457292887,16.278820596099706,17.72004514666935,20.396078054371138,23.345235059857504,55.10898293381942,38.8329756778952,35.0,45.0,28.0,13.5,17.5,2.5,7.5,13.152946437965905,14.317821063276353,13.5,20.0,50.0,32.28002478313795
173,58,590,19.68633333333307,7.280109889280518,70.83078426785913,10.198039027185569,17.26267650163207,18.681541692269406,19.6468827043885,23.53720459187964,58.249463516842795,41.0,36.5,45.0,29.0,14.0,20.0,5.0,7.0,13.152946437965905,13.341664064126334,13.0,21.0,50.0,29.410882339705484
174,58,591,19.719699999999737,10.198039027185569,72.27724399837061,8.246211251235321,16.278820596099706,18.439088914585774,20.615528128088304,24.515301344262525,59.22837157984339,42.95346318982906,37.0,47.0,29.0,14.0,20.0,5.0,9.0,11.40175425099138,11.180339887498949,11.0,14.0,45.0,29.410882339705484
175,58,592,19.753066666666403,9.486832980505138,78.10249675906654,9.219544457292887,17.26267650163207,19.6468827043885,21.840329667841555,23.53720459187964,59.43904440685432,42.20189569201838,36.5,45.0,27.0,13.0,22.0,7.0,7.0,13.341664064126334,13.341664064126334,13.0,18.0,50.0,32.57299494980466
176,58,593,19.78643333333307,8.54400374531753,77.62087348130012,9.219544457292887,15.297058540778355,19.924858845171276,21.840329667841555,23.53720459187964,56.515484603779164,41.23105625617661,36.0,46.0,26.0,13.0,19.0,5.0,8.0,11.40175425099138,12.36931687685298,12.5,18.0,52.0,29.732137494637012
177,58,594,19.81979999999973,9.486832980505138,82.0,8.246211251235321,13.341664064126334,20.615528128088304,21.587033144922902,23.53720459187964,54.57105459856901,41.23105625617661,35.5,42.0,24.0,10.0,20.0,8.0,6.0,5.830951894845301,6.324555320336759,6.0,18.0,44.0,25.298221281347036
178,58,595,19.8531666666664,8.246211251235321,80.60397012554654,7.0710678118654755,14.317821063276353,19.4164878389476,21.37755832643195,22.80350850198276,52.392747589718944,38.07886552931954,33.0,40.0,24.0,10.0,19.0,6.0,6.0,7.615773105863909,7.280109889280518,6.5,18.0,43.0,27.892651361962706
179,58,596,19.886533333333063,7.280109889280518,78.85429601486528,7.615773105863909,12.36931687685298,19.6468827043885,20.615528128088304,22.561028345356956,49.72926703662542,37.36308338453881,32.5,40.0,23.0,9.5,16.5,5.5,5.5,6.708203932499369,6.324555320336759,6.0,19.0,46.0,29.120439557122072
180,58,597,19.91989999999973,6.324555320336759,79.83107164506812,8.246211251235321,13.341664064126334,18.681541692269406,19.6468827043885,22.80350850198276,50.695167422546305,37.36308338453881,33.0,39.0,22.0,8.5,18.5,6.5,4.5,9.219544457292887,9.219544457292887,9.0,19.0,44.0,34.20526275297414
181,58,598,19.9532666666664,7.615773105863909,77.87810988975015,7.280109889280518,12.36931687685298,19.6468827043885,21.587033144922902,23.08679276123039,50.28916384272063,37.94733192202055,32.5,39.0,22.0,8.5,17.5,6.5,4.5,10.198039027185569,10.198039027185569,9.5,19.0,43.0,26.92582403567252
182,58,599,19.986633333333064,8.246211251235321,80.049984384758,7.280109889280518,12.649110640673518,20.615528128088304,20.615528128088304,22.135943621178654,50.28916384272063,37.64306044943742,32.0,39.0,21.0,9.0,18.0,8.0,5.0,10.44030650891055,10.44030650891055,10.5,18.0,48.0,32.28002478313795
183,58,600,20.01999999999973,12.36931687685298,80.8084154033477,6.324555320336759,12.649110640673518,19.6468827043885,21.587033144922902,22.80350850198276,54.120236510939236,41.48493702538308,34.0,40.0,23.0,9.5,20.5,9.5,6.5,11.180339887498949,11.40175425099138,11.0,17.0,46.0,30.364452901377952
184,58,601,20.053366666666395,14.317821063276353,83.54639429682169,8.246211251235321,14.560219778561036,19.4164878389476,22.561028345356956,21.18962010041709,58.240879114244144,43.68065933568311,35.0,40.0,24.0,12.0,24.0,11.0,7.0,11.180339887498949,11.704699910719626,11.0,18.0,50.0,32.28002478313795
185,58,602,20.08673333333306,13.152946437965905,85.70297544426332,7.280109889280518,15.524174696260024,20.615528128088304,22.561028345356956,23.08679276123039,58.9406481131655,43.41658669218482,35.5,41.0,24.0,10.5,24.5,11.5,6.5,12.165525060596439,12.36931687685298,12.5,20.0,52.0,39.293765408777
186,58,603,20.120099999999727,16.278820596099706,84.92938243034621,8.246211251235321,13.341664064126334,20.615528128088304,22.561028345356956,21.18962010041709,58.9406481131655,45.60701700396552,36.0,42.0,24.0,13.0,24.0,12.0,8.0,11.180339887498949,11.40175425099138,11.0,17.0,45.0,32.01562118716424
187,58,604,20.153466666666397,17.46424919657298,84.72307831990054,7.280109889280518,13.341664064126334,21.587033144922902,23.53720459187964,20.8806130178211,58.9406481131655,45.60701700396552,35.5,42.0,25.0,13.5,23.5,12.5,9.5,11.40175425099138,10.198039027185569,10.0,17.0,49.0,33.52610922848042
188,58,605,20.18683333333306,20.396078054371138,90.80198235721508,7.280109889280518,13.341664064126334,21.587033144922902,23.53720459187964,21.840329667841555,62.81719509815764,49.47726750741192,38.0,43.0,25.0,13.0,27.0,15.0,9.0,11.180339887498949,11.180339887498949,11.0,14.0,44.0,32.01562118716424
189,58,606,20.220199999999725,20.223748416156685,86.88498144098322,6.324555320336759,12.649110640673518,20.615528128088304,21.37755832643195,23.08679276123039,62.0966987850401,49.47726750741192,38.0,44.0,26.0,13.0,25.0,14.0,10.0,9.219544457292887,9.219544457292887,9.0,16.0,45.0,31.78049716414141
190,58,607,20.25356666666639,21.213203435596427,86.68333173107735,7.280109889280518,11.704699910719626,20.615528128088304,22.561028345356956,22.135943621178654,62.0966987850401,50.44799302251776,38.5,45.0,28.0,15.5,23.5,12.5,11.5,6.708203932499369,6.708203932499369,6.0,12.0,43.0,32.984845004941285
191,58,608,20.286933333333057,22.360679774997898,93.17188417113823,7.280109889280518,12.649110640673518,22.561028345356956,24.515301344262525,20.8806130178211,63.06346010171025,50.44799302251776,38.0,44.0,24.0,14.0,27.0,16.0,10.0,6.708203932499369,5.385164807134504,5.0,14.0,44.0,28.160255680657446
192,58,609,20.32029999999972,18.24828759089466,88.07383266328314,8.246211251235321,12.649110640673518,22.561028345356956,24.515301344262525,22.847319317591726,61.68468205316454,49.040799340956916,38.0,45.0,26.0,14.5,23.5,12.5,9.5,4.242640687119285,3.605551275463989,3.0,13.0,43.0,31.78049716414141
193,58,610,20.35366666666639,19.235384061671343,91.21951545584969,8.246211251235321,14.560219778561036,23.53720459187964,24.515301344262525,21.18962010041709,63.06346010171025,48.507731342539614,37.5,45.0,25.0,15.0,26.0,13.0,10.0,6.708203932499369,6.708203932499369,6.0,13.0,45.0,35.17101079013795
194,58,611,20.38703333333305,20.223748416156685,90.02777349240623,7.280109889280518,13.601470508735444,22.561028345356956,24.515301344262525,22.47220505424423,63.324560795950255,49.72926703662542,38.0,45.0,26.0,14.5,25.5,13.5,9.5,6.324555320336759,6.324555320336759,6.0,19.0,44.0,37.656340767525464
195,58,612,20.42039999999972,21.213203435596427,84.92938243034621,6.324555320336759,12.36931687685298,21.587033144922902,24.331050121192877,22.47220505424423,62.0966987850401,49.72926703662542,37.5,45.0,27.0,15.0,24.0,14.0,12.0,7.615773105863909,8.246211251235321,7.5,15.0,44.0,28.861739379323623
196,58,613,20.453766666666382,20.223748416156685,85.70297544426332,7.280109889280518,13.601470508735444,21.37755832643195,22.561028345356956,21.587033144922902,62.5859409132754,49.03060268852505,38.0,45.0,28.0,15.5,24.5,12.5,10.5,8.54400374531753,9.848857801796104,8.5,9.0,43.0,32.01562118716424
197,58,614,20.48713333333305,18.24828759089466,86.68333173107735,7.280109889280518,13.341664064126334,20.396078054371138,23.345235059857504,23.08679276123039,61.84658438426491,48.507731342539614,38.0,46.0,29.0,15.5,22.5,10.5,11.5,9.486832980505138,9.486832980505138,9.5,12.0,44.0,32.984845004941285
198,58,615,20.52049999999972,20.223748416156685,88.64536084872124,7.280109889280518,13.341664064126334,20.615528128088304,23.53720459187964,21.840329667841555,62.5859409132754,49.24428900898052,38.0,44.0,27.0,14.5,25.5,13.5,10.5,10.44030650891055,11.180339887498949,11.0,18.0,42.0,31.78049716414141
199,58,616,20.553866666666384,17.26267650163207,86.68333173107735,7.280109889280518,13.601470508735444,20.615528128088304,23.53720459187964,21.840329667841555,59.90826320300064,46.32493928760188,36.5,44.0,27.0,14.5,22.5,11.5,10.5,10.198039027185569,10.44030650891055,10.0,16.0,42.0,29.832867780352597
200,58,617,20.58723333333305,18.24828759089466,87.66413177577246,7.280109889280518,12.36931687685298,20.396078054371138,22.561028345356956,20.8806130178211,58.69412236331676,46.32493928760188,36.0,44.0,27.0,15.5,21.5,10.5,10.5,11.180339887498949,12.36931687685298,11.5,17.0,41.0,28.635642126552707
201,58,618,20.620599999999715,19.1049731745428,87.66413177577246,7.280109889280518,13.601470508735444,19.4164878389476,21.587033144922902,21.840329667841555,61.61168720299745,48.05205510693585,37.5,45.0,28.0,15.5,23.5,12.5,10.5,11.180339887498949,12.36931687685298,11.5,17.0,44.0,29.832867780352597
202,58,619,20.65396666666638,15.297058540778355,86.68333173107735,7.280109889280518,13.341664064126334,18.439088914585774,21.587033144922902,21.840329667841555,57.723478758647246,44.384682042344295,35.5,44.0,27.0,14.5,20.5,9.5,10.5,11.180339887498949,11.40175425099138,11.0,18.0,43.0,30.59411708155671
203,58,620,20.687333333333047,15.033296378372908,80.60397012554654,7.280109889280518,14.560219778561036,19.4164878389476,20.396078054371138,22.80350850198276,59.43904440685432,44.91102314577124,36.5,45.0,29.0,15.0,21.0,9.0,10.0,11.180339887498949,11.40175425099138,11.0,18.0,46.0,31.78049716414141
204,58,621,20.720699999999717,12.165525060596439,77.46612162745726,7.280109889280518,14.142135623730951,18.439088914585774,18.439088914585774,22.561028345356956,56.089214649520635,41.97618372363071,35.0,45.0,30.0,15.5,17.5,5.5,10.5,11.40175425099138,11.40175425099138,11.0,19.0,44.0,32.55764119219941
205,58,622,20.75406666666638,11.180339887498949,70.40596565632774,7.280109889280518,12.165525060596439,15.524174696260024,17.26267650163207,24.331050121192877,54.91812087098393,42.7551166528639,36.5,46.0,32.0,15.0,15.0,4.0,11.0,11.180339887498949,11.180339887498949,11.0,21.0,41.0,27.459060435491963
206,58,623,20.787433333333045,6.324555320336759,66.49060083951716,8.06225774829855,13.152946437965905,14.866068747318506,16.492422502470642,24.331050121192877,51.78802950489621,38.63935817272331,35.0,44.0,30.0,13.0,14.0,2.0,8.0,11.180339887498949,11.40175425099138,11.5,19.0,41.0,29.427877939124322
207,58,624,20.82079999999971,1.4142135623730951,70.21395872616783,8.246211251235321,12.36931687685298,15.297058540778355,16.76305461424021,27.16615541441225,46.87216658103186,34.52535300326414,34.5,43.0,30.0,9.5,9.5,0.5,4.5,10.44030650891055,10.44030650891055,10.5,15.0,42.0,32.7566787083184
208,58,625,20.854166666666377,2.23606797749979,70.83078426785913,8.246211251235321,12.36931687685298,15.811388300841896,16.76305461424021,26.30589287593181,46.32493928760188,33.95585369269929,33.5,44.0,28.0,10.0,9.0,1.0,6.0,12.165525060596439,11.40175425099138,11.5,14.0,43.0,27.202941017470888
209,58,626,20.88753333333304,1.4142135623730951,68.65857557508748,8.06225774829855,12.36931687685298,15.524174696260024,17.46424919657298,25.317977802344327,46.87216658103186,34.52535300326414,33.5,43.0,28.0,10.5,10.5,0.5,5.5,7.615773105863909,8.246211251235321,7.0,18.0,38.0,25.709920264364882
210,58,627,20.92089999999971,4.47213595499958,70.40596565632774,8.06225774829855,12.36931687685298,17.46424919657298,18.681541692269406,25.495097567963924,50.21951811795888,37.8549864614954,35.0,43.0,29.0,11.0,13.0,2.0,7.0,6.324555320336759,7.280109889280518,6.5,15.0,39.0,25.709920264364882
211,58,628,20.95426666666637,5.385164807134504,68.65857557508748,9.219544457292887,13.341664064126334,15.524174696260024,17.46424919657298,25.179356624028344,52.952809179494906,39.6232255123179,36.5,45.0,30.0,12.5,14.5,2.5,6.5,9.486832980505138,9.848857801796104,9.0,17.0,46.0,30.083217912982647
212,58,629,20.98763333333304,6.082762530298219,70.40596565632774,9.219544457292887,14.317821063276353,16.278820596099706,18.439088914585774,25.317977802344327,54.91812087098393,40.607881008493905,37.0,46.0,32.0,14.0,15.0,2.0,7.0,8.246211251235321,9.486832980505138,9.0,18.0,44.0,32.55764119219941
213,58,630,21.020999999999702,7.0710678118654755,74.73285756613352,10.44030650891055,15.297058540778355,17.46424919657298,19.4164878389476,24.331050121192877,57.0701322935211,41.773197148410844,37.5,47.0,31.0,15.0,17.0,3.0,8.0,9.486832980505138,9.486832980505138,9.5,18.0,45.0,31.78049716414141
214,58,631,21.05436666666637,9.219544457292887,79.83107164506812,10.198039027185569,15.524174696260024,18.681541692269406,20.396078054371138,24.515301344262525,59.43904440685432,43.93176527297759,38.5,47.0,30.0,14.5,19.5,6.5,7.5,10.44030650891055,10.44030650891055,10.0,16.0,44.0,32.7566787083184
215,58,632,21.08773333333304,15.132745950421556,79.62411694957753,8.246211251235321,14.560219778561036,17.72004514666935,20.396078054371138,24.041630560342615,61.84658438426491,47.29693436154187,38.5,45.0,29.0,14.0,23.0,10.0,9.0,11.40175425099138,11.40175425099138,11.0,14.0,45.0,26.92582403567252
216,58,633,21.121099999999704,13.341664064126334,83.54639429682169,9.486832980505138,15.297058540778355,18.439088914585774,20.396078054371138,25.0,63.06346010171025,47.80167361086848,39.5,45.0,29.0,13.0,24.0,10.0,7.0,12.36931687685298,11.40175425099138,11.5,18.0,49.0,32.984845004941285
217,58,634,21.15446666666637,16.278820596099706,80.8084154033477,8.246211251235321,14.560219778561036,18.681541692269406,21.587033144922902,24.73863375370596,63.788713735268246,49.24428900898052,40.0,45.0,28.0,12.5,25.5,12.5,7.5,11.40175425099138,11.704699910719626,11.5,13.0,47.0,34.48187929913333
218,58,635,21.187833333333035,10.44030650891055,80.8084154033477,7.280109889280518,11.40175425099138,17.46424919657298,19.4164878389476,25.96150997149434,55.08175741568164,43.68065933568311,37.0,43.0,26.0,9.5,18.5,9.5,4.5,11.40175425099138,11.704699910719626,11.5,17.0,49.0,33.24154027718932
219,58,636,21.2211999999997,2.8284271247461903,76.15773105863909,8.246211251235321,9.486832980505138,16.492422502470642,17.46424919657298,26.92582403567252,47.12748667179272,37.64306044943742,35.0,42.0,24.0,7.0,12.0,4.0,2.0,12.36931687685298,12.36931687685298,12.0,15.0,47.0,32.28002478313795
220,58,637,21.254566666666367,2.8284271247461903,79.81227975693966,6.324555320336759,10.770329614269007,16.76305461424021,18.027756377319946,24.73863375370596,40.496913462633174,29.732137494637012,29.0,41.0,20.0,6.5,7.5,0.5,3.5,11.180339887498949,10.44030650891055,10.5,14.0,46.0,27.202941017470888
221,58,638,21.287933333333037,2.8284271247461903,82.46211251235322,7.280109889280518,11.704699910719626,18.027756377319946,18.973665961010276,25.495097567963924,43.01162633521314,31.32091952673165,31.0,43.0,23.0,8.0,8.0,0.0,5.0,12.36931687685298,11.40175425099138,11.5,16.0,48.0,31.04834939252005
222,58,639,21.3212999999997,4.47213595499958,80.52328855678958,7.280109889280518,9.486832980505138,17.46424919657298,18.681541692269406,25.96150997149434,47.12748667179272,37.64306044943742,34.0,45.0,25.0,10.0,10.0,3.0,6.0,11.40175425099138,11.704699910719626,11.0,11.0,44.0,28.460498941515414
223,58,640,21.354666666666365,3.605551275463989,73.97972695272672,7.280109889280518,13.601470508735444,15.811388300841896,17.72004514666935,25.495097567963924,49.72926703662542,36.138621999185304,33.5,43.0,26.0,9.5,13.5,2.5,5.5,11.40175425099138,11.40175425099138,11.5,17.0,47.0,33.24154027718932
224,58,641,21.38803333333303,2.0,79.07591289387686,8.246211251235321,14.317821063276353,17.46424919657298,18.681541692269406,27.459060435491963,50.44799302251776,36.138621999185304,35.0,44.0,26.0,8.0,14.0,2.0,3.0,11.40175425099138,11.40175425099138,10.5,15.0,45.0,35.17101079013795
225,58,642,21.421399999999696,3.1622776601683795,77.12976079309465,7.615773105863909,11.704699910719626,17.72004514666935,18.439088914585774,28.284271247461902,50.44799302251776,38.8329756778952,36.5,42.0,24.0,5.0,16.0,6.0,1.0,9.486832980505138,9.486832980505138,9.0,20.0,48.0,40.024992192379
226,58,643,21.45476666666636,2.23606797749979,76.68767828015137,9.219544457292887,12.649110640673518,17.46424919657298,18.681541692269406,27.294688127912362,48.507731342539614,35.90264614203248,35.5,41.0,25.0,6.0,14.0,3.0,0.0,11.180339887498949,11.704699910719626,11.0,23.0,50.0,37.656340767525464
227,58,644,21.488133333333028,1.4142135623730951,76.90253571892151,9.219544457292887,11.704699910719626,15.524174696260024,17.46424919657298,27.459060435491963,49.47726750741192,37.8549864614954,36.5,42.0,25.0,6.5,14.5,4.5,0.5,12.36931687685298,12.649110640673518,12.0,19.0,51.0,37.36308338453881
228,58,645,21.52149999999969,2.0,76.68767828015137,9.219544457292887,11.40175425099138,15.297058540778355,17.46424919657298,27.294688127912362,48.27007354458868,36.87817782917155,36.0,43.0,27.0,8.0,12.0,2.0,1.0,11.180339887498949,10.770329614269007,10.0,23.0,50.0,34.713109915419565
229,58,646,21.55486666666636,1.4142135623730951,77.12976079309465,9.219544457292887,10.770329614269007,16.492422502470642,18.681541692269406,27.459060435491963,48.507731342539614,37.8549864614954,36.5,44.0,26.0,8.0,12.0,4.0,2.0,11.40175425099138,11.704699910719626,11.0,18.0,48.0,32.28002478313795
230,58,647,21.588233333333022,7.0710678118654755,77.12976079309465,7.615773105863909,9.848857801796104,16.492422502470642,18.973665961010276,26.30589287593181,50.44799302251776,40.792156108742276,36.5,44.0,26.0,9.0,14.0,8.0,4.0,11.40175425099138,11.40175425099138,11.0,17.0,50.0,32.28002478313795
231,58,648,21.62159999999969,1.4142135623730951,76.15773105863909,9.219544457292887,9.486832980505138,16.278820596099706,17.46424919657298,26.68332812825267,46.57252408878007,37.107950630558946,35.5,42.0,24.0,7.0,12.0,4.0,1.0,10.198039027185569,11.704699910719626,11.0,17.0,49.0,28.460498941515414
232,58,649,21.65496666666636,2.0,76.68767828015137,8.246211251235321,7.615773105863909,15.297058540778355,16.492422502470642,27.65863337187866,43.965895873961216,36.40054944640259,35.0,40.0,24.0,5.0,10.0,4.0,0.0,10.198039027185569,9.486832980505138,9.0,22.0,48.0,30.083217912982647
233,58,650,21.688333333333023,1.0,78.64477096412705,9.219544457292887,7.615773105863909,16.278820596099706,18.681541692269406,26.476404589747453,43.41658669218482,35.90264614203248,35.0,39.0,23.0,5.0,11.0,5.0,1.0,9.219544457292887,9.219544457292887,9.0,22.0,48.0,33.24154027718932
234,58,651,21.72169999999969,2.0,74.95331880577403,9.219544457292887,10.44030650891055,15.524174696260024,16.76305461424021,25.709920264364882,45.880278987817846,35.4400902933387,34.0,39.0,22.0,5.5,13.5,4.5,0.5,10.44030650891055,11.704699910719626,10.5,23.0,53.0,35.4400902933387
235,58,652,21.755066666666355,1.0,76.90253571892151,9.486832980505138,13.601470508735444,17.46424919657298,18.439088914585774,24.515301344262525,47.80167361086848,34.20526275297414,33.0,39.0,22.0,6.5,15.5,3.5,0.5,9.486832980505138,10.770329614269007,10.0,22.0,50.0,32.984845004941285
236,58,653,21.78843333333302,2.23606797749979,77.12976079309465,8.246211251235321,9.486832980505138,18.24828759089466,18.439088914585774,25.96150997149434,45.221676218380054,35.73513677041127,33.5,40.0,22.0,6.0,12.0,3.0,1.0,9.486832980505138,9.486832980505138,9.0,6.0,39.0,27.85677655436824
237,58,654,21.821799999999687,2.8284271247461903,74.21590126111789,8.246211251235321,11.704699910719626,17.72004514666935,18.439088914585774,27.892651361962706,50.28916384272063,38.600518131237564,36.0,42.0,24.0,6.0,15.0,5.0,2.0,10.44030650891055,10.770329614269007,10.0,9.0,40.0,31.622776601683793
238,58,655,21.855166666666356,7.280109889280518,75.18643494673756,7.280109889280518,9.848857801796104,16.76305461424021,18.681541692269406,26.92582403567252,51.24451190127583,41.48493702538308,36.5,42.0,24.0,7.0,16.0,8.0,4.0,11.180339887498949,12.649110640673518,11.5,18.0,43.0,29.120439557122072
239,58,656,21.88853333333302,2.23606797749979,73.00684899377592,7.280109889280518,9.486832980505138,15.524174696260024,16.492422502470642,27.65863337187866,45.880278987817846,36.40054944640259,34.5,41.0,24.0,5.5,11.5,3.5,1.5,13.341664064126334,12.36931687685298,12.5,19.0,44.0,29.120439557122072
240,58,657,21.921899999999685,0.0,73.49829930005184,7.280109889280518,9.848857801796104,16.492422502470642,16.76305461424021,28.442925306655784,45.35416188179427,35.6931365951495,35.0,43.0,24.0,5.5,10.5,2.5,1.5,13.152946437965905,12.36931687685298,12.0,20.0,47.0,33.24154027718932
241,58,658,21.95526666666635,1.0,70.83078426785913,7.280109889280518,11.40175425099138,15.524174696260024,17.72004514666935,26.30589287593181,45.12205669071391,33.734255586866,33.0,41.0,25.0,7.0,11.0,1.0,3.0,11.045361017187261,11.180339887498949,11.0,19.0,43.0,29.614185789921695
242,58,659,21.988633333333016,2.0,72.03471385380801,7.280109889280518,9.486832980505138,15.811388300841896,15.524174696260024,28.635642126552707,45.880278987817846,36.40054944640259,35.0,42.0,25.0,5.5,10.5,2.5,2.5,12.36931687685298,12.36931687685298,12.0,18.0,43.0,28.861739379323623
243,58,660,22.02199999999968,3.605551275463989,73.00684899377592,7.280109889280518,9.486832980505138,15.524174696260024,16.76305461424021,28.442925306655784,48.507731342539614,39.05124837953327,36.5,43.0,26.0,6.5,12.5,4.5,2.5,12.165525060596439,12.36931687685298,12.5,22.0,47.0,32.7566787083184
244,58,661,22.055366666666348,1.4142135623730951,70.09279563550022,7.280109889280518,11.40175425099138,15.297058540778355,17.72004514666935,27.459060435491963,47.29693436154187,35.90264614203248,34.5,41.0,24.0,5.5,13.5,3.5,1.5,12.165525060596439,13.341664064126334,12.5,19.0,46.0,32.01562118716424
245,58,662,22.08873333333301,1.0,74.21590126111789,7.280109889280518,11.40175425099138,15.524174696260024,16.76305461424021,26.68332812825267,45.60701700396552,34.20526275297414,33.0,40.0,22.0,5.0,13.0,4.0,1.0,13.152946437965905,13.341664064126334,13.0,20.0,47.0,31.32091952673165
246,58,663,22.12209999999968,3.1622776601683795,70.83078426785913,7.280109889280518,10.44030650891055,15.297058540778355,15.524174696260024,27.459060435491963,42.44997055358225,32.01562118716424,32.5,40.0,24.0,5.0,9.0,0.0,1.0,13.152946437965905,13.341664064126334,13.0,21.0,45.0,28.861739379323623
247,58,664,22.155466666666342,3.1622776601683795,72.78049189171504,6.324555320336759,10.44030650891055,15.524174696260024,16.492422502470642,27.892651361962706,47.80167361086848,37.36308338453881,34.5,40.0,24.0,5.0,14.0,5.0,2.0,14.142135623730951,14.560219778561036,14.0,20.0,49.0,30.364452901377952
248,58,665,22.18883333333301,5.830951894845301,71.80529228406496,6.324555320336759,10.770329614269007,15.297058540778355,16.278820596099706,26.92582403567252,49.64876634922564,38.897300677553446,34.5,42.0,26.0,8.0,13.0,4.0,4.0,13.152946437965905,13.341664064126334,13.0,20.0,48.0,30.364452901377952
249,58,666,22.22219999999968,4.47213595499958,71.386273190299,7.615773105863909,11.704699910719626,16.278820596099706,17.26267650163207,26.68332812825267,50.28916384272063,38.600518131237564,35.0,42.0,28.0,9.0,13.0,3.0,4.0,12.165525060596439,12.36931687685298,12.0,22.0,48.0,29.120439557122072
250,58,667,22.255566666666343,5.830951894845301,72.03471385380801,6.324555320336759,12.36931687685298,15.524174696260024,16.492422502470642,26.476404589747453,50.695167422546305,38.3275357934736,34.5,43.0,26.0,8.5,14.5,3.5,4.5,14.317821063276353,14.560219778561036,14.5,22.0,52.0,35.4400902933387
251,58,668,22.28893333333301,2.8284271247461903,67.468511173732,7.280109889280518,11.180339887498949,14.560219778561036,16.492422502470642,26.68332812825267,47.53945729601885,36.40054944640259,34.0,41.0,27.0,8.0,12.0,2.0,4.0,11.180339887498949,11.40175425099138,11.0,23.0,47.0,32.01562118716424
252,58,669,22.322299999999675,2.23606797749979,69.63476143421474,7.280109889280518,12.36931687685298,16.492422502470642,17.46424919657298,25.317977802344327,46.32493928760188,33.95585369269929,32.5,41.0,26.0,8.5,11.5,0.5,4.5,12.165525060596439,12.36931687685298,12.5,21.0,48.0,35.90264614203248
253,58,670,22.35566666666634,2.8284271247461903,70.61161377563892,8.246211251235321,11.40175425099138,16.278820596099706,17.46424919657298,26.476404589747453,44.64302857109943,33.24154027718932,33.0,43.0,28.0,9.5,7.5,2.5,4.5,12.165525060596439,11.40175425099138,10.5,23.0,45.0,33.734255586866
254,58,671,22.389033333333007,2.23606797749979,67.91170738539859,7.280109889280518,11.180339887498949,15.524174696260024,16.76305461424021,26.30589287593181,44.14748010928823,32.984845004941285,32.5,43.0,27.0,9.0,8.0,1.0,5.0,13.152946437965905,12.36931687685298,11.5,25.0,47.0,32.984845004941285
255,58,672,22.422399999999676,2.8284271247461903,71.06335201775947,7.280109889280518,10.44030650891055,16.76305461424021,17.72004514666935,26.30589287593181,42.44997055358225,32.01562118716424,32.0,44.0,27.0,9.5,5.5,2.5,6.5,13.341664064126334,13.601470508735444,13.5,20.0,50.0,33.83784863137726
256,58,673,22.45576666666634,1.0,67.26812023536856,8.246211251235321,11.180339887498949,14.317821063276353,15.524174696260024,26.30589287593181,45.89117562233506,34.713109915419565,34.0,41.0,28.0,8.5,10.5,0.5,3.5,12.165525060596439,12.36931687685298,12.0,21.0,47.0,33.734255586866
257,58,674,22.489133333333005,3.1622776601683795,68.65857557508748,7.280109889280518,12.36931687685298,16.492422502470642,16.492422502470642,26.30589287593181,49.03060268852505,36.6742416417845,34.5,42.0,27.0,8.5,13.5,2.5,4.5,12.165525060596439,12.165525060596439,12.5,22.0,49.0,35.17101079013795
258,58,675,22.52249999999967,6.082762530298219,73.00684899377592,7.280109889280518,13.601470508735444,16.76305461424021,18.439088914585774,25.317977802344327,52.172789842982326,38.63935817272331,35.0,44.0,27.0,10.5,15.5,3.5,6.5,13.341664064126334,13.341664064126334,13.0,21.0,55.0,35.11409973215888
259,58,676,22.555866666666336,4.123105625617661,75.18643494673756,7.615773105863909,14.560219778561036,17.72004514666935,19.924858845171276,24.331050121192877,50.44799302251776,35.90264614203248,33.0,44.0,26.0,11.0,14.0,2.0,7.0,12.165525060596439,13.601470508735444,13.0,19.0,54.0,37.0
260,58,677,22.589233333333,2.8284271247461903,74.95331880577403,8.246211251235321,14.317821063276353,16.76305461424021,18.973665961010276,24.73863375370596,49.72926703662542,35.4400902933387,33.0,44.0,27.0,11.5,12.5,0.5,6.5,12.165525060596439,11.40175425099138,11.0,21.0,53.0,34.17601498127012
261,58,678,22.622599999999668,4.47213595499958,72.78049189171504,7.280109889280518,13.341664064126334,17.72004514666935,19.6468827043885,24.73863375370596,49.72926703662542,36.40054944640259,33.0,42.0,26.0,10.0,14.0,2.0,6.0,11.180339887498949,11.40175425099138,11.0,22.0,53.0,35.73513677041127
262,58,679,22.65596666666633,5.385164807134504,74.73285756613352,7.280109889280518,12.36931687685298,17.46424919657298,18.681541692269406,24.73863375370596,49.72926703662542,37.36308338453881,33.5,42.0,26.0,10.0,14.0,4.0,6.0,9.219544457292887,10.44030650891055,9.5,19.0,49.0,34.48187929913333
263,58,680,22.689333333333,5.0990195135927845,75.50496672405067,6.324555320336759,11.40175425099138,16.492422502470642,17.46424919657298,25.96150997149434,48.76474136094644,37.36308338453881,33.5,41.0,26.0,8.5,13.5,3.5,4.5,11.180339887498949,10.44030650891055,10.0,21.0,47.0,32.28002478313795
264,58,681,22.722699999999666,4.242640687119285,80.8084154033477,8.246211251235321,13.341664064126334,17.46424919657298,18.439088914585774,24.515301344262525,49.72926703662542,36.40054944640259,33.5,41.0,24.0,8.5,15.5,4.5,3.5,10.198039027185569,10.44030650891055,10.0,22.0,47.0,35.17101079013795
265,58,682,22.75606666666633,10.198039027185569,83.54639429682169,8.246211251235321,13.341664064126334,19.4164878389476,20.615528128088304,24.041630560342615,55.78530272392541,42.44997055358225,36.0,42.0,26.0,11.0,20.0,9.0,6.0,11.180339887498949,11.180339887498949,11.0,21.0,47.0,30.364452901377952
266,58,683,22.789433333333,14.142135623730951,85.14693182963201,7.615773105863909,14.560219778561036,19.6468827043885,21.587033144922902,25.709920264364882,61.84658438426491,47.29693436154187,39.0,45.0,26.0,10.5,24.5,12.5,6.5,10.44030650891055,10.198039027185569,10.5,20.0,48.0,33.24154027718932
267,58,684,22.822799999999663,8.54400374531753,85.90692637965812,8.246211251235321,12.36931687685298,18.681541692269406,20.615528128088304,24.515301344262525,53.600373133029585,41.23105625617661,36.0,43.0,25.0,10.0,18.0,8.0,5.0,10.198039027185569,10.198039027185569,10.5,21.0,49.0,32.984845004941285
268,58,685,22.85616666666633,4.47213595499958,79.07591289387686,9.219544457292887,16.278820596099706,17.46424919657298,18.681541692269406,25.317977802344327,55.10898293381942,38.8329756778952,36.0,44.0,26.0,10.0,19.0,5.0,4.0,9.219544457292887,9.219544457292887,8.5,21.0,44.0,34.92849839314596
269,58,686,22.889533333332995,3.1622776601683795,75.18643494673756,9.219544457292887,15.297058540778355,16.492422502470642,18.973665961010276,25.317977802344327,52.952809179494906,37.656340767525464,35.5,45.0,27.0,11.0,16.0,4.0,5.0,8.54400374531753,8.246211251235321,7.5,23.0,48.0,31.32091952673165
270,58,687,22.92289999999966,2.23606797749979,69.12307863514182,7.615773105863909,12.36931687685298,14.560219778561036,15.811388300841896,27.16615541441225,49.03060268852505,36.6742416417845,35.0,41.0,24.0,5.5,15.5,4.5,1.5,12.165525060596439,12.36931687685298,12.5,22.0,47.0,30.364452901377952
271,58,688,22.956266666666327,1.4142135623730951,66.94027188471824,7.280109889280518,12.36931687685298,13.601470508735444,15.811388300841896,26.1725046566048,46.87216658103186,34.52535300326414,33.5,39.0,23.0,5.0,15.0,4.0,1.0,11.180339887498949,12.165525060596439,11.5,22.0,49.0,28.792360097775937
272,58,689,22.989633333332996,1.0,68.41052550594829,7.280109889280518,12.36931687685298,14.560219778561036,16.76305461424021,27.294688127912362,47.07440918375928,34.713109915419565,34.0,41.0,23.0,5.0,14.0,3.0,1.0,11.180339887498949,12.165525060596439,11.5,22.0,52.0,27.313000567495326
273,58,690,23.02299999999966,3.1622776601683795,69.3757882838098,7.615773105863909,12.649110640673518,14.560219778561036,17.72004514666935,25.179356624028344,48.27007354458868,35.6931365951495,33.5,40.0,22.0,6.0,16.0,5.0,2.0,12.165525060596439,12.649110640673518,12.5,19.0,56.0,31.304951684997057
274,58,691,23.056366666666325,2.8284271247461903,67.446274915669,7.280109889280518,13.601470508735444,13.601470508735444,16.76305461424021,25.079872407968907,48.05205510693585,34.52535300326414,33.0,40.0,22.0,6.0,16.0,4.0,2.0,13.152946437965905,14.560219778561036,14.0,20.0,57.0,32.69556544854363
275,58,692,23.08973333333299,6.082762530298219,68.41052550594829,6.708203932499369,12.649110640673518,15.811388300841896,17.72004514666935,25.317977802344327,50.44799302251776,37.8549864614954,34.0,41.0,23.0,7.0,17.0,6.0,5.0,9.486832980505138,9.486832980505138,9.0,19.0,47.0,26.570660511172846
276,58,693,23.123099999999656,5.385164807134504,65.80273550544841,6.324555320336759,12.36931687685298,15.811388300841896,17.08800749063506,25.317977802344327,49.24428900898052,36.87817782917155,33.5,43.0,24.0,8.5,14.5,3.5,5.5,11.40175425099138,10.44030650891055,10.0,20.0,46.0,27.51363298439521
277,58,694,23.15646666666632,3.1622776601683795,66.76076692189807,7.615773105863909,13.601470508735444,15.524174696260024,17.08800749063506,25.317977802344327,49.47726750741192,35.90264614203248,33.5,43.0,24.0,8.5,14.5,2.5,4.5,9.486832980505138,9.486832980505138,8.5,20.0,45.0,26.248809496813376
278,58,695,23.189833333332988,1.0,65.80273550544841,8.54400374531753,13.601470508735444,13.92838827718412,16.76305461424021,25.179356624028344,47.29693436154187,33.734255586866,33.0,42.0,23.0,7.5,13.5,1.5,3.5,13.341664064126334,14.560219778561036,13.5,18.0,57.0,32.69556544854363
279,58,696,23.22319999999965,3.0,65.80273550544841,7.615773105863909,13.601470508735444,15.524174696260024,17.72004514666935,24.186773244895647,48.05205510693585,34.52535300326414,32.5,42.0,23.0,8.5,14.5,3.5,4.5,11.704699910719626,12.649110640673518,12.0,18.0,57.0,35.4682957019364
280,58,697,23.25656666666632,6.324555320336759,64.28841264178172,6.324555320336759,13.601470508735444,15.524174696260024,16.76305461424021,25.317977802344327,51.419840528729765,37.8549864614954,34.0,42.0,25.0,8.5,16.5,4.5,5.5,5.830951894845301,5.385164807134504,5.0,16.0,44.0,23.769728648009426
281,58,698,23.289933333332986,6.082762530298219,67.05221845696084,7.615773105863909,15.524174696260024,15.811388300841896,17.72004514666935,25.495097567963924,54.57105459856901,39.05124837953327,35.0,46.0,26.0,11.0,17.0,4.0,7.0,6.708203932499369,5.830951894845301,5.0,14.0,44.0,26.570660511172846
282,58,699,23.32329999999965,6.324555320336759,66.40783086353596,8.54400374531753,16.492422502470642,14.866068747318506,17.08800749063506,25.495097567963924,56.753854494650845,40.26164427839479,36.0,47.0,26.0,11.5,18.5,4.5,6.5,6.4031242374328485,5.830951894845301,4.5,16.0,47.0,30.083217912982647
283,58,700,23.35666666666632,2.23606797749979,65.45991139621256,7.615773105863909,13.92838827718412,16.15549442140351,18.027756377319946,26.476404589747453,49.33558553417604,35.4400902933387,33.5,43.0,22.0,6.5,14.5,3.5,4.5,7.211102550927978,6.708203932499369,6.0,15.0,48.0,26.92582403567252
284,58,701,23.390033333332983,2.23606797749979,61.98386886924694,7.615773105863909,13.601470508735444,14.866068747318506,15.811388300841896,25.495097567963924,48.08326112068523,34.48187929913333,32.5,41.0,22.0,6.5,14.5,2.5,3.5,9.486832980505138,10.770329614269007,10.0,17.0,52.0,27.730849247724095
285,58,702,23.42339999999965,3.605551275463989,67.67569726275453,6.708203932499369,12.649110640673518,14.866068747318506,18.384776310850235,26.248809496813376,49.040799340956916,36.40054944640259,32.5,42.0,20.0,6.0,15.0,5.0,4.0,9.848857801796104,9.848857801796104,9.5,14.0,53.0,30.4138126514911
286,58,703,23.456766666666315,4.47213595499958,64.51356446515724,6.708203932499369,14.866068747318506,16.15549442140351,18.027756377319946,25.709920264364882,51.54609587543949,36.68787265568828,33.0,41.0,20.0,5.5,18.5,6.5,3.5,10.295630140987,9.848857801796104,9.0,15.0,53.0,29.068883707497267
287,58,704,23.49013333333298,6.324555320336759,64.51356446515724,6.708203932499369,15.811388300841896,15.231546211727817,16.76305461424021,24.041630560342615,52.81098370604357,37.0,32.0,41.0,20.0,7.5,19.5,6.5,5.5,13.341664064126334,13.601470508735444,13.0,17.0,58.0,31.78049716414141
288,58,705,23.523499999999647,3.1622776601683795,63.90618123468183,8.94427190999916,16.15549442140351,14.317821063276353,17.46424919657298,23.769728648009426,51.86520991955976,35.73513677041127,32.5,42.0,20.0,8.0,18.0,5.0,5.0,13.601470508735444,14.866068747318506,14.0,15.0,61.0,32.2490309931942
289,58,706,23.556866666666316,5.385164807134504,64.19501538281614,7.615773105863909,13.0,14.317821063276353,16.15549442140351,23.769728648009426,49.64876634922564,36.68787265568828,32.5,39.0,19.0,6.0,18.0,7.0,3.0,13.601470508735444,14.866068747318506,14.0,13.0,61.0,29.5296461204668
290,58,711,23.72369999999964,2.8284271247461903,66.48308055437865,8.06225774829855,14.317821063276353,15.231546211727817,18.027756377319946,25.709920264364882,50.32891812864648,36.05551275463989,33.0,42.0,18.0,5.0,17.0,6.0,2.0,13.601470508735444,15.231546211727817,13.5,13.0,58.0,34.0
291,58,712,23.757066666666308,4.47213595499958,69.28924880528002,8.06225774829855,14.317821063276353,17.72004514666935,18.973665961010276,25.298221281347036,50.99019513592785,36.6742416417845,32.0,42.0,18.0,6.0,16.0,5.0,3.0,13.92838827718412,13.92838827718412,13.0,10.0,56.0,28.844410203711913
292,58,713,23.79043333333297,5.656854249492381,73.38937252763509,6.708203932499369,12.529964086141668,17.08800749063506,19.313207915827967,23.769728648009426,48.30113870293329,35.77708763999664,30.0,38.0,13.0,3.5,17.5,8.5,1.5,13.0,13.416407864998739,12.0,6.0,57.0,31.622776601683793
293,58,714,23.82379999999964,7.211102550927978,73.05477397131553,6.708203932499369,13.0,18.027756377319946,19.924858845171276,24.166091947189145,50.99019513592785,38.01315561749642,31.0,38.0,14.0,4.0,20.0,9.0,2.0,13.92838827718412,13.0,12.0,9.0,55.0,28.844410203711913
294,58,715,23.857166666666306,6.4031242374328485,75.61084578286372,8.06225774829855,14.317821063276353,18.027756377319946,20.248456731316587,22.47220505424423,50.99019513592785,36.6742416417845,30.5,37.0,11.0,3.0,22.0,11.0,0.0,13.0,14.317821063276353,12.5,8.0,60.0,30.0
295,58,716,23.89053333333297,4.123105625617661,78.18567643756751,8.94427190999916,14.7648230602334,19.313207915827967,20.615528128088304,23.769728648009426,50.11985634456667,35.35533905932738,30.5,38.0,10.0,2.0,20.0,8.0,1.0,13.92838827718412,14.7648230602334,13.0,16.0,65.0,37.12142238654117
296,58,717,23.92389999999964,3.1622776601683795,75.27283706623525,7.211102550927978,15.231546211727817,18.027756377319946,18.973665961010276,24.351591323771842,48.75448697299562,33.54101966249684,29.5,37.0,12.0,1.5,19.5,7.5,0.5,15.811388300841896,14.317821063276353,13.5,17.0,64.0,38.01315561749642
297,58,718,23.957266666666303,4.0,74.67261881037788,7.615773105863909,14.7648230602334,17.08800749063506,18.973665961010276,24.166091947189145,48.373546489791295,33.61547262794322,29.0,36.0,10.0,1.0,19.0,8.0,2.0,15.811388300841896,15.231546211727817,14.0,18.0,65.0,38.91015291668744
298,58,719,23.99063333333297,4.123105625617661,78.43468620451031,6.708203932499369,13.416407864998739,18.027756377319946,20.248456731316587,23.769728648009426,46.52956049652737,33.12099032335839,28.5,35.0,9.0,0.0,19.0,9.0,2.0,13.601470508735444,14.317821063276353,12.5,13.0,59.0,34.9857113690718
299,58,720,24.023999999999635,7.211102550927978,79.71198153351854,7.211102550927978,13.892443989449804,19.924858845171276,23.08679276123039,25.0,52.80151512977634,39.0,33.0,40.0,13.0,2.5,21.5,10.5,0.5,14.866068747318506,14.317821063276353,13.0,16.0,62.0,39.35733730830886
300,58,721,24.0573666666663,5.656854249492381,76.84399781375251,6.708203932499369,14.317821063276353,18.027756377319946,19.924858845171276,23.769728648009426,50.08991914547278,35.77708763999664,30.0,34.0,10.0,0.0,23.0,11.0,2.0,14.560219778561036,15.231546211727817,14.0,14.0,60.0,35.35533905932738
301,58,722,24.090733333332967,4.0,77.4919350642375,8.54400374531753,14.317821063276353,18.973665961010276,20.248456731316587,24.698178070456937,49.193495504995376,34.88552708502482,31.0,37.0,11.0,1.0,20.0,9.0,3.0,15.524174696260024,15.652475842498529,14.5,19.0,65.0,41.6293165929973
302,58,723,24.124099999999636,7.615773105863909,77.4919350642375,6.708203932499369,13.0,20.248456731316587,22.135943621178654,24.041630560342615,51.264022471905186,38.27531841800928,32.5,37.0,11.0,1.0,24.0,14.0,0.0,14.560219778561036,14.317821063276353,13.5,15.0,59.0,34.48187929913333
303,58,724,24.1574666666663,3.605551275463989,75.27283706623525,5.830951894845301,11.180339887498949,18.027756377319946,18.973665961010276,24.351591323771842,44.28317965096906,33.1058907144937,29.0,35.0,10.0,0.5,17.5,9.5,1.5,13.601470508735444,15.231546211727817,14.0,10.0,57.0,30.01666203960727
304,58,725,24.190833333332964,3.0,74.67261881037788,7.615773105863909,11.661903789690601,17.08800749063506,18.973665961010276,23.08679276123039,43.382023926967726,31.78049716414141,29.0,36.0,10.0,1.0,16.0,7.0,2.0,15.524174696260024,15.231546211727817,14.0,16.0,59.0,36.24913792078372
305,58,726,24.22419999999963,3.0,74.09453421137081,5.830951894845301,10.295630140987,15.811388300841896,18.384776310850235,24.351591323771842,41.593268686170845,31.304951684997057,28.0,35.0,8.0,1.5,15.5,8.5,2.5,13.601470508735444,15.231546211727817,14.0,10.0,57.0,30.528675044947494
306,58,727,24.257566666666296,2.23606797749979,75.27283706623525,5.830951894845301,10.295630140987,18.027756377319946,19.313207915827967,24.041630560342615,41.6293165929973,31.38470965295043,28.5,34.0,9.0,1.5,16.5,9.5,2.5,14.560219778561036,15.231546211727817,14.0,11.0,57.0,31.38470965295043
307,58,728,24.29093333333296,4.123105625617661,77.25283166331187,6.708203932499369,11.180339887498949,17.72004514666935,20.615528128088304,23.769728648009426,43.86342439892262,32.69556544854363,29.5,37.0,9.0,0.0,17.0,9.0,2.0,14.560219778561036,15.231546211727817,14.5,10.0,57.0,31.76476034853718
308,58,729,24.324299999999628,3.0,72.80109889280519,6.708203932499369,10.295630140987,17.08800749063506,19.313207915827967,24.351591323771842,42.485291572496,32.202484376209235,29.0,36.0,10.0,0.0,15.0,7.0,2.0,13.341664064126334,14.317821063276353,13.0,10.0,56.0,34.438350715445125
309,58,730,24.357666666666294,2.0,72.80109889280519,7.211102550927978,11.661903789690601,18.027756377319946,20.248456731316587,25.0,44.28317965096906,32.69556544854363,30.0,38.0,12.0,1.0,15.0,7.0,1.0,13.601470508735444,15.231546211727817,14.0,9.0,57.0,34.88552708502482
310,58,731,24.39103333333296,1.0,72.11102550927978,6.708203932499369,12.083045973594572,18.027756377319946,18.973665961010276,24.041630560342615,43.08131845707603,31.016124838541646,29.0,36.0,12.0,1.0,16.0,7.0,1.0,13.341664064126334,14.317821063276353,13.0,9.0,51.0,33.61547262794322
311,58,732,24.424399999999626,3.0,74.67261881037788,6.708203932499369,11.180339887498949,18.027756377319946,19.313207915827967,24.041630560342615,42.95346318982906,31.78049716414141,29.0,36.0,10.0,0.0,16.0,8.0,1.0,15.297058540778355,16.15549442140351,14.5,11.0,54.0,32.202484376209235
312,58,733,24.45776666666629,3.1622776601683795,74.33034373659252,5.830951894845301,12.083045973594572,18.027756377319946,19.313207915827967,25.0,44.77722635447622,32.69556544854363,29.5,37.0,12.0,0.5,16.5,7.5,0.5,14.317821063276353,15.231546211727817,14.0,11.0,51.0,29.5296461204668
313,58,734,24.49113333333296,2.0,77.4919350642375,7.211102550927978,12.529964086141668,19.924858845171276,21.18962010041709,25.0,45.18849411078001,32.69556544854363,30.0,37.0,11.0,0.0,17.0,8.0,2.0,12.649110640673518,13.0,12.5,15.0,58.0,34.92849839314596
314,58,735,24.524499999999623,3.1622776601683795,75.96051605933177,6.708203932499369,12.529964086141668,18.973665961010276,21.540659228538015,25.709920264364882,46.61544808322666,34.17601498127012,31.5,39.0,12.0,0.5,17.5,8.5,1.5,12.649110640673518,14.317821063276353,13.0,10.0,55.0,33.1058907144937
315,58,736,24.55786666666629,2.23606797749979,74.67261881037788,7.211102550927978,11.661903789690601,17.46424919657298,18.384776310850235,24.041630560342615,42.485291572496,30.870698080866262,28.5,36.0,10.0,0.0,15.0,7.0,1.0,14.560219778561036,15.811388300841896,15.0,12.0,56.0,31.38470965295043
316,58,737,24.591233333332955,3.605551275463989,76.32168761236873,5.830951894845301,11.180339887498949,18.027756377319946,20.248456731316587,23.08679276123039,42.95346318982906,31.78049716414141,28.0,37.0,9.0,1.0,16.0,8.0,0.0,11.704699910719626,12.529964086141668,10.5,15.0,56.0,28.30194339616981
317,58,738,24.62459999999962,4.242640687119285,72.61542535852834,6.708203932499369,10.295630140987,17.08800749063506,19.697715603592208,22.135943621178654,42.95346318982906,32.69556544854363,28.5,37.0,9.0,2.0,16.0,9.0,0.0,11.704699910719626,12.083045973594572,11.5,14.0,57.0,29.154759474226502
318,58,739,24.657966666666287,3.1622776601683795,72.80109889280519,5.830951894845301,12.083045973594572,18.027756377319946,19.313207915827967,23.769728648009426,43.46262762420146,31.38470965295043,28.5,36.0,10.0,0.0,17.0,8.0,1.0,12.649110640673518,12.083045973594572,11.5,14.0,56.0,26.076809620810597
319,58,740,24.691333333332956,2.8284271247461903,73.53910524340094,6.708203932499369,11.661903789690601,18.027756377319946,20.248456731316587,22.135943621178654,42.95346318982906,31.38470965295043,28.0,37.0,9.0,2.0,16.0,8.0,0.0,11.180339887498949,12.529964086141668,10.5,14.0,57.0,26.627053911388696
320,58,741,24.72469999999962,2.23606797749979,72.2357252334328,6.708203932499369,10.295630140987,17.08800749063506,19.313207915827967,23.08679276123039,42.15447781671598,31.953090617340916,29.0,37.0,10.0,1.5,15.5,7.5,0.5,9.848857801796104,10.295630140987,9.0,15.0,56.0,26.076809620810597
321,58,742,24.758066666666284,2.8284271247461903,75.02666192761077,6.708203932499369,12.649110640673518,18.027756377319946,19.313207915827967,23.08679276123039,44.94441010848846,32.31098884280702,29.0,37.0,10.0,1.5,18.5,9.5,0.5,13.601470508735444,14.866068747318506,13.5,13.0,57.0,29.68164415931166
322,58,747,24.924899999999614,2.8284271247461903,80.95677859203639,7.280109889280518,10.295630140987,17.72004514666935,19.313207915827967,25.96150997149434,42.15447781671598,31.953090617340916,31.0,39.0,14.0,1.5,12.5,5.5,1.5,15.524174696260024,15.811388300841896,15.5,21.0,62.0,40.496913462633174
323,58,748,24.95826666666628,3.605551275463989,77.4919350642375,6.324555320336759,9.848857801796104,16.76305461424021,17.08800749063506,27.202941017470888,41.23105625617661,31.38470965295043,30.5,39.0,16.0,1.5,10.5,3.5,0.5,14.317821063276353,14.560219778561036,14.0,19.0,58.0,32.69556544854363
324,58,749,24.991633333332945,1.4142135623730951,78.84795495128583,7.280109889280518,9.486832980505138,16.76305461424021,18.027756377319946,25.709920264364882,41.7612260356422,32.28002478313795,31.5,40.0,19.0,4.5,10.5,3.5,1.5,14.317821063276353,15.524174696260024,15.0,22.0,54.0,37.0
325,58,751,25.05836666666628,2.23606797749979,78.85429601486528,7.280109889280518,9.219544457292887,16.278820596099706,18.439088914585774,26.30589287593181,42.20189569201838,32.984845004941285,32.5,40.0,23.0,5.5,9.5,2.5,1.5,12.041594578792296,12.36931687685298,13.0,16.0,44.0,30.083217912982647
326,58,752,25.091733333332943,1.0,78.26237921249263,7.0710678118654755,8.246211251235321,17.26267650163207,18.439088914585774,28.160255680657446,43.56604182158393,35.35533905932738,35.0,42.0,28.0,7.0,8.0,1.0,3.0,13.038404810405298,13.601470508735444,13.5,13.0,38.0,31.575306807693888
327,58,754,25.158466666666275,1.0,79.63039620647382,8.246211251235321,9.219544457292887,18.027756377319946,20.223748416156685,28.071337695236398,44.40720662234904,35.22782990761707,35.5,42.0,32.0,9.0,7.0,2.0,3.0,13.0,13.152946437965905,13.0,25.0,38.0,23.194827009486403
328,58,755,25.19183333333294,2.23606797749979,76.4198926981712,8.06225774829855,10.198039027185569,18.110770276274835,18.110770276274835,28.071337695236398,44.40720662234904,34.23448553724738,35.0,41.0,33.0,9.0,7.0,2.0,3.0,12.041594578792296,11.40175425099138,11.5,25.0,37.0,29.068883707497267
329,58,756,25.225199999999607,1.0,77.23341245859851,7.0710678118654755,8.54400374531753,19.026297590440446,19.026297590440446,27.16615541441225,41.593268686170845,33.24154027718932,33.5,39.0,33.0,9.0,5.0,3.0,3.0,8.246211251235321,8.246211251235321,8.5,16.0,30.0,40.11234224026316
330,58,757,25.258566666666272,1.0,78.16009211867653,8.0,9.055385138137417,18.027756377319946,18.110770276274835,27.018512172212592,43.04648650006177,34.0147027033899,34.5,41.0,36.0,11.5,4.5,4.5,4.5,10.198039027185569,9.219544457292887,9.5,19.0,29.0,31.144823004794873
331,58,758,25.29193333333294,2.23606797749979,74.16872656315464,8.06225774829855,10.44030650891055,19.0,19.026297590440446,26.30589287593181,42.579337712087536,32.2490309931942,33.0,39.0,34.0,10.5,5.5,4.5,3.5,7.280109889280518,7.0710678118654755,7.0,16.0,30.0,31.400636936215164
332,58,764,25.492133333332934,1.0,76.16429609731846,8.0,11.045361017187261,18.027756377319946,19.026297590440446,26.076809620810597,44.10215414239989,33.06055050963308,33.5,40.0,35.0,11.5,6.5,3.5,4.5,12.041594578792296,11.045361017187261,11.5,27.0,35.0,30.01666203960727
333,58,765,25.5254999999996,2.0,78.23042886243178,8.06225774829855,12.165525060596439,17.029386365926403,19.1049731745428,25.019992006393608,43.18564576337837,31.064449134018133,32.0,40.0,34.0,12.0,6.0,5.0,5.0,15.033296378372908,13.038404810405298,14.0,31.0,39.0,28.0178514522438
334,58,767,25.59223333333293,1.4142135623730951,77.31752712031083,9.055385138137417,10.198039027185569,19.1049731745428,19.1049731745428,26.019223662515376,44.28317965096906,34.132096331752024,34.5,41.0,34.0,11.5,6.5,3.5,4.5,10.198039027185569,9.219544457292887,10.0,20.0,35.0,35.12833614050059
335,58,768,25.6255999999996,1.0,76.4198926981712,8.06225774829855,10.198039027185569,19.026297590440446,19.1049731745428,27.073972741361768,44.28317965096906,34.132096331752024,34.5,43.0,35.0,12.0,5.0,5.0,5.0,13.038404810405298,12.041594578792296,12.5,21.0,29.0,26.076809620810597
336,58,769,25.658966666666263,0.0,75.32595834106593,8.06225774829855,11.180339887498949,18.027756377319946,19.1049731745428,26.1725046566048,45.39823785126467,34.23448553724738,34.0,41.0,34.0,11.5,7.5,2.5,4.5,9.0,8.06225774829855,8.0,23.0,30.0,22.20360331117452
337,58,770,25.69233333333293,3.0,74.43117626371358,8.06225774829855,10.44030650891055,18.027756377319946,18.027756377319946,26.1725046566048,47.51841748206689,37.21558813185679,35.5,41.0,33.0,11.0,10.0,1.0,5.0,7.280109889280518,7.280109889280518,7.0,18.0,34.0,37.48332962798263
338,58,771,25.725699999999595,5.0,73.43704787094863,8.06225774829855,10.198039027185569,17.029386365926403,18.110770276274835,26.476404589747453,49.64876634922564,39.45883931389772,36.5,42.0,34.0,12.0,11.0,1.0,5.0,7.280109889280518,7.280109889280518,7.0,22.0,37.0,26.30589287593181
339,58,772,25.75906666666626,5.0990195135927845,73.55270219373317,9.055385138137417,12.165525060596439,18.110770276274835,20.09975124224178,25.317977802344327,51.62363799656123,39.45883931389772,36.5,43.0,34.0,13.5,12.5,0.5,6.5,7.280109889280518,7.280109889280518,7.0,24.0,41.0,22.360679774997898
340,58,773,25.792433333332927,9.219544457292887,73.68174807915459,8.06225774829855,13.152946437965905,18.24828759089466,20.09975124224178,25.495097567963924,55.90169943749474,42.7551166528639,37.5,45.0,35.0,15.0,15.0,3.0,9.0,9.219544457292887,9.219544457292887,9.5,15.0,38.0,28.861739379323623
341,58,774,25.825799999999592,10.198039027185569,75.8023746329889,8.06225774829855,13.152946437965905,19.235384061671343,20.09975124224178,26.476404589747453,57.87054518492115,44.721359549995796,39.0,45.0,34.0,13.5,17.5,5.5,7.5,10.198039027185569,9.219544457292887,9.5,19.0,39.0,25.179356624028344
342,58,775,25.85916666666626,14.142135623730951,77.27871634544663,6.082762530298219,12.36931687685298,18.24828759089466,20.396078054371138,26.68332812825267,59.22837157984339,46.87216658103186,39.0,46.0,32.0,13.0,19.0,8.0,9.0,9.486832980505138,10.198039027185569,10.5,16.0,41.0,24.041630560342615
343,58,776,25.892533333332924,11.180339887498949,76.48529270389177,6.324555320336759,11.40175425099138,18.439088914585774,20.396078054371138,25.96150997149434,54.817880294662984,43.41658669218482,36.5,45.0,30.0,12.5,15.5,5.5,9.5,12.165525060596439,12.36931687685298,12.0,16.0,41.0,24.73863375370596
344,58,777,25.92589999999959,3.605551275463989,78.64477096412705,10.198039027185569,15.524174696260024,18.439088914585774,19.4164878389476,24.041630560342615,53.16013544000805,37.64306044943742,34.5,42.0,26.0,11.0,17.0,4.0,4.0,12.36931687685298,12.36931687685298,11.5,24.0,49.0,36.138621999185304
345,58,778,25.959266666666256,2.8284271247461903,74.95331880577403,7.280109889280518,11.40175425099138,17.46424919657298,18.439088914585774,25.96150997149434,47.12748667179272,35.73513677041127,33.0,42.0,25.0,8.5,11.5,2.5,4.5,12.165525060596439,13.341664064126334,13.0,20.0,43.0,25.96150997149434
346,58,779,25.99263333333292,5.0,76.15773105863909,7.280109889280518,10.44030650891055,18.439088914585774,19.6468827043885,24.351591323771842,46.8187996428785,36.40054944640259,32.0,41.0,23.0,9.0,12.0,3.0,5.0,11.180339887498949,11.40175425099138,10.5,13.0,42.0,27.202941017470888
347,58,780,26.025999999999588,2.8284271247461903,77.62087348130012,7.280109889280518,11.704699910719626,18.681541692269406,18.681541692269406,25.298221281347036,46.8187996428785,35.11409973215888,32.0,42.0,22.0,8.0,12.0,3.0,5.0,11.40175425099138,11.704699910719626,11.5,16.0,48.0,24.698178070456937
348,58,781,26.059366666666254,5.385164807134504,76.92203845452875,6.708203932499369,9.848857801796104,17.72004514666935,17.72004514666935,24.351591323771842,46.238512086787566,36.40054944640259,31.5,42.0,21.0,8.5,11.5,3.5,5.5,8.06225774829855,8.54400374531753,7.5,12.0,44.0,21.02379604162864
349,58,782,26.09273333333292,5.830951894845301,75.43208866258443,7.615773105863909,11.704699910719626,16.492422502470642,19.6468827043885,24.351591323771842,49.39635614091387,37.69615364994153,32.5,40.0,21.0,7.5,15.5,5.5,3.5,6.708203932499369,7.615773105863909,6.5,18.0,45.0,21.18962010041709
350,58,783,26.126099999999585,5.0,75.96051605933177,6.324555320336759,12.649110640673518,17.72004514666935,19.6468827043885,24.351591323771842,48.104053883222775,35.4682957019364,31.0,40.0,19.0,6.5,15.5,5.5,3.5,6.708203932499369,6.708203932499369,6.0,19.0,49.0,24.698178070456937
351,58,784,26.15946666666625,5.0,73.08214556237385,6.324555320336759,10.770329614269007,16.76305461424021,17.72004514666935,24.351591323771842,46.238512086787566,35.4682957019364,31.0,40.0,19.0,6.5,13.5,4.5,3.5,6.708203932499369,5.385164807134504,4.5,14.0,46.0,23.259406699226016
352,58,785,26.19283333333292,2.8284271247461903,71.47027354082255,7.615773105863909,11.704699910719626,15.811388300841896,18.027756377319946,23.769728648009426,45.5411901469428,33.83784863137726,31.0,42.0,20.0,8.0,12.0,4.0,5.0,10.44030650891055,9.486832980505138,9.0,15.0,49.0,30.083217912982647
353,58,786,26.226199999999583,3.605551275463989,70.51950084905593,7.615773105863909,11.40175425099138,18.027756377319946,18.384776310850235,22.80350850198276,45.221676218380054,33.83784863137726,30.5,42.0,20.0,9.0,12.0,3.0,6.0,9.486832980505138,8.54400374531753,8.0,15.0,46.0,32.57299494980466
354,58,787,26.25956666666625,2.0,69.26037828369117,7.280109889280518,11.704699910719626,16.15549442140351,17.46424919657298,22.80350850198276,42.37924020083418,30.675723300355934,29.0,41.0,20.0,8.5,9.5,1.5,5.5,12.36931687685298,13.601470508735444,13.0,17.0,53.0,32.89376840679705
355,58,788,26.292933333332915,2.23606797749979,71.78439941937245,7.615773105863909,12.649110640673518,16.76305461424021,18.384776310850235,23.53720459187964,42.05948168962618,29.410882339705484,29.0,43.0,20.0,8.5,8.5,0.5,5.5,14.560219778561036,13.92838827718412,13.0,18.0,59.0,37.0
356,58,789,26.32629999999958,1.4142135623730951,71.16881339463234,6.708203932499369,12.083045973594572,16.15549442140351,18.384776310850235,24.73863375370596,44.598206241955516,32.57299494980466,30.5,42.0,21.0,7.5,10.5,1.5,5.5,13.341664064126334,14.866068747318506,14.0,16.0,57.0,34.0147027033899
357,58,790,26.359666666666246,2.23606797749979,69.92138442565336,7.615773105863909,13.601470508735444,16.76305461424021,17.08800749063506,25.0,47.75981574503821,34.17601498127012,31.5,43.0,23.0,9.0,12.0,1.0,6.0,13.341664064126334,14.866068747318506,14.0,19.0,56.0,37.33630940518894
358,58,791,26.393033333332912,3.1622776601683795,68.30812543175226,7.615773105863909,14.560219778561036,17.72004514666935,19.313207915827967,23.769728648009426,49.040799340956916,34.48187929913333,31.5,44.0,23.0,10.5,13.5,2.5,6.5,14.560219778561036,14.560219778561036,14.0,18.0,57.0,39.56008088970496
359,58,792,26.42639999999958,2.0,73.08214556237385,8.246211251235321,14.560219778561036,16.76305461424021,18.973665961010276,24.041630560342615,47.43416490252569,32.89376840679705,31.0,44.0,23.0,10.5,11.5,0.5,5.5,14.317821063276353,15.524174696260024,14.5,18.0,58.0,44.598206241955516
360,58,793,26.459766666666244,1.4142135623730951,74.94664769020693,8.54400374531753,14.866068747318506,18.027756377319946,19.313207915827967,23.769728648009426,48.38388161361178,33.52610922848042,31.5,46.0,22.0,11.0,12.0,0.0,7.0,14.560219778561036,14.866068747318506,14.5,16.0,62.0,41.78516483155236
361,58,794,26.49313333333291,1.4142135623730951,74.94664769020693,7.615773105863909,13.92838827718412,18.027756377319946,18.973665961010276,25.0,47.75981574503821,33.83784863137726,31.5,45.0,21.0,9.0,12.0,1.0,6.0,15.524174696260024,15.811388300841896,15.0,17.0,64.0,45.31004303683677
362,58,795,26.526499999999576,3.1622776601683795,72.42237223399962,6.324555320336759,14.866068747318506,18.973665961010276,20.248456731316587,24.73863375370596,49.040799340956916,34.20526275297414,31.5,44.0,22.0,9.0,14.0,3.0,7.0,14.560219778561036,14.560219778561036,14.0,13.0,53.0,33.61547262794322
363,58,796,26.55986666666624,1.4142135623730951,71.47027354082255,6.708203932499369,13.92838827718412,17.72004514666935,18.973665961010276,24.73863375370596,46.486557196677836,32.57299494980466,30.5,43.0,21.0,8.0,12.0,1.0,6.0,13.341664064126334,13.92838827718412,13.0,13.0,51.0,30.870698080866262
364,58,797,26.593233333332908,1.0,72.11102550927978,6.708203932499369,12.649110640673518,18.973665961010276,20.248456731316587,23.769728648009426,43.965895873961216,31.32091952673165,29.5,44.0,20.0,9.0,10.0,0.0,7.0,14.560219778561036,13.92838827718412,13.0,16.0,54.0,33.61547262794322
365,58,798,26.626599999999573,1.0,70.8801805866774,6.324555320336759,12.649110640673518,17.72004514666935,18.973665961010276,23.769728648009426,43.01162633521314,30.364452901377952,29.0,40.0,20.0,7.0,11.0,0.0,5.0,14.317821063276353,14.560219778561036,14.0,16.0,54.0,30.870698080866262
366,58,799,26.65996666666624,2.23606797749979,71.47027354082255,7.280109889280518,12.36931687685298,17.08800749063506,19.313207915827967,23.769728648009426,44.9221548904324,32.57299494980466,30.5,43.0,21.0,9.0,11.0,1.0,6.0,15.297058540778355,14.866068747318506,14.0,19.0,56.0,34.539832078341085
367,58,800,26.693333333332905,3.0,72.12489168102785,6.324555320336759,14.560219778561036,16.76305461424021,18.973665961010276,23.769728648009426,47.53945729601885,32.984845004941285,30.5,42.0,21.0,8.5,14.5,2.5,5.5,14.317821063276353,13.601470508735444,13.0,14.0,55.0,31.78049716414141
368,58,801,26.72669999999957,3.1622776601683795,72.12489168102785,6.324555320336759,13.601470508735444,17.72004514666935,19.924858845171276,24.515301344262525,47.53945729601885,33.95585369269929,31.5,43.0,22.0,8.5,13.5,3.5,5.5,14.317821063276353,15.811388300841896,14.5,14.0,52.0,31.304951684997057
369,58,802,26.76006666666624,6.082762530298219,73.08214556237385,6.324555320336759,14.866068747318506,19.6468827043885,20.615528128088304,22.80350850198276,50.0,35.17101079013795,31.0,42.0,21.0,9.5,16.5,4.5,6.5,13.601470508735444,13.92838827718412,13.0,14.0,52.0,34.92849839314596
370,58,803,26.793433333332903,2.23606797749979,75.0,7.280109889280518,13.92838827718412,19.6468827043885,22.80350850198276,22.80350850198276,46.17358552246078,32.28002478313795,30.0,42.0,21.0,9.5,12.5,1.5,6.5,15.297058540778355,14.866068747318506,14.0,19.0,57.0,41.10960958218893
371,58,804,26.82679999999957,3.1622776601683795,79.12016177940993,7.615773105863909,14.866068747318506,19.6468827043885,21.840329667841555,23.08679276123039,48.703182647543684,33.83784863137726,30.5,41.0,19.0,8.0,16.0,3.0,4.0,16.278820596099706,15.811388300841896,15.0,20.0,59.0,41.43669871020132
372,58,805,26.860166666666235,3.0,71.84010022264724,6.324555320336759,11.704699910719626,17.46424919657298,18.681541692269406,26.248809496813376,45.31004303683677,33.61547262794322,31.0,39.0,19.0,4.0,13.0,3.0,1.0,13.341664064126334,13.92838827718412,13.0,14.0,55.0,34.0147027033899
373,58,806,26.8935333333329,2.8284271247461903,75.69015788066504,5.830951894845301,11.704699910719626,16.492422502470642,18.439088914585774,26.68332812825267,42.720018726587654,31.016124838541646,30.0,36.0,16.0,0.0,14.0,5.0,1.0,13.341664064126334,14.560219778561036,14.0,12.0,53.0,34.0147027033899
374,58,807,26.926899999999566,2.0,73.37574531137656,5.385164807134504,10.770329614269007,16.76305461424021,17.72004514666935,24.73863375370596,41.43669871020132,30.675723300355934,29.0,37.0,15.0,2.0,13.0,5.0,1.0,16.278820596099706,16.15549442140351,15.0,13.0,56.0,33.1058907144937
375,58,808,26.960266666666232,2.23606797749979,73.08214556237385,6.324555320336759,12.083045973594572,17.46424919657298,18.681541692269406,23.769728648009426,40.496913462633174,28.460498941515414,28.0,35.0,14.0,1.5,13.5,4.5,0.5,15.297058540778355,15.811388300841896,15.5,13.0,53.0,33.1058907144937
376,58,809,26.993633333332895,2.8284271247461903,75.28612089887484,7.280109889280518,12.083045973594572,17.72004514666935,18.027756377319946,24.73863375370596,42.720018726587654,30.675723300355934,30.0,37.0,15.0,2.0,14.0,4.0,0.0,15.132745950421556,14.866068747318506,14.5,15.0,54.0,33.1058907144937
377,58,810,27.026999999999564,3.1622776601683795,75.0,6.324555320336759,10.770329614269007,15.811388300841896,17.72004514666935,27.202941017470888,46.238512086787566,35.4682957019364,32.5,36.0,15.0,0.5,17.5,8.5,2.5,14.142135623730951,14.866068747318506,14.0,17.0,54.0,34.539832078341085
378,58,811,27.06036666666623,2.8284271247461903,77.88452991448301,6.708203932499369,12.083045973594572,16.492422502470642,18.681541692269406,26.248809496813376,47.53945729601885,35.4682957019364,32.0,36.0,15.0,0.5,18.5,8.5,1.5,15.132745950421556,14.560219778561036,14.5,19.0,55.0,37.69615364994153
379,58,812,27.093733333332896,3.1622776601683795,81.04319835741924,7.615773105863909,13.601470508735444,18.973665961010276,20.8806130178211,25.298221281347036,48.46648326421054,34.92849839314596,31.5,37.0,15.0,2.0,19.0,8.0,0.0,16.1245154965971,15.811388300841896,15.0,19.0,56.0,38.27531841800928
380,58,813,27.12709999999956,5.0,81.60882305241266,6.708203932499369,13.0,18.973665961010276,20.8806130178211,25.298221281347036,49.76946855251722,36.76955262170047,32.0,38.0,14.0,2.0,20.0,9.0,0.0,15.524174696260024,14.866068747318506,14.0,18.0,55.0,38.27531841800928
381,58,814,27.160466666666228,5.830951894845301,82.28000972289685,7.615773105863909,13.601470508735444,18.973665961010276,21.840329667841555,24.351591323771842,51.264022471905186,37.69615364994153,32.5,38.0,15.0,3.5,21.5,10.5,0.5,12.165525060596439,12.649110640673518,12.0,15.0,55.0,32.202484376209235
382,58,815,27.193833333332893,4.242640687119285,83.5224520712844,6.708203932499369,11.704699910719626,18.681541692269406,20.8806130178211,25.0,47.16990566028302,35.4682957019364,31.5,36.0,12.0,0.0,20.0,11.0,2.0,12.36931687685298,13.601470508735444,13.0,14.0,54.0,29.068883707497267
383,58,816,27.22719999999956,4.47213595499958,76.24303246854758,5.830951894845301,11.180339887498949,16.76305461424021,18.027756377319946,24.73863375370596,44.77722635447622,33.61547262794322,30.0,35.0,13.0,0.0,17.0,8.0,2.0,13.341664064126334,13.92838827718412,13.0,16.0,56.0,31.76476034853718
384,58,817,27.260566666666225,2.8284271247461903,73.7563556583431,6.708203932499369,13.0,16.492422502470642,17.46424919657298,26.476404589747453,48.38388161361178,35.4400902933387,33.0,34.0,18.0,0.0,20.0,8.0,2.0,14.317821063276353,14.560219778561036,14.0,22.0,56.0,33.54101966249684
385,58,818,27.29393333333289,3.1622776601683795,68.15423684555495,5.830951894845301,13.601470508735444,15.524174696260024,16.492422502470642,26.30589287593181,47.12748667179272,33.52610922848042,31.5,37.0,20.0,2.5,16.5,4.5,0.5,12.36931687685298,13.601470508735444,12.5,17.0,51.0,25.238858928247925
386,58,819,27.32729999999956,3.605551275463989,67.1863081289633,5.830951894845301,13.0,16.492422502470642,18.681541692269406,25.317977802344327,46.486557196677836,33.52610922848042,31.0,38.0,21.0,4.5,14.5,2.5,2.5,11.180339887498949,12.649110640673518,11.5,19.0,51.0,25.238858928247925
387,58,820,27.360666666666223,3.605551275463989,67.1863081289633,6.708203932499369,13.92838827718412,16.492422502470642,16.76305461424021,25.495097567963924,48.703182647543684,34.785054261852174,32.0,39.0,22.0,5.5,15.5,3.5,2.5,12.649110640673518,13.601470508735444,12.5,18.0,52.0,25.238858928247925
388,58,821,27.39403333333289,5.0,68.6804193347711,6.708203932499369,13.92838827718412,16.76305461424021,18.681541692269406,25.709920264364882,50.92150822589606,37.0,33.0,40.0,21.0,5.5,17.5,6.5,3.5,12.36931687685298,13.601470508735444,12.5,18.0,51.0,25.80697580112788
389,58,822,27.427399999999555,3.605551275463989,67.446274915669,6.4031242374328485,13.0,15.811388300841896,16.76305461424021,25.495097567963924,47.75981574503821,34.785054261852174,31.5,39.0,21.0,5.0,15.0,4.0,3.0,13.601470508735444,13.601470508735444,12.5,19.0,56.0,27.202941017470888
390,58,823,27.46076666666622,7.211102550927978,68.30812543175226,5.830951894845301,13.0,17.08800749063506,18.384776310850235,24.515301344262525,49.9799959983992,37.0,32.0,40.0,19.0,5.5,17.5,7.5,4.5,11.40175425099138,12.649110640673518,11.5,14.0,52.0,21.93171219946131
391,58,824,27.494133333332886,2.23606797749979,66.09841147864296,8.94427190999916,15.231546211727817,18.027756377319946,18.973665961010276,24.73863375370596,50.32891812864648,35.11409973215888,32.5,43.0,23.0,9.0,14.0,1.0,5.0,13.601470508735444,13.92838827718412,12.5,20.0,54.0,32.2490309931942
392,58,825,27.527499999999552,6.324555320336759,70.8801805866774,8.54400374531753,17.08800749063506,18.681541692269406,20.8806130178211,23.53720459187964,55.362442142665635,38.3275357934736,34.0,43.0,23.0,10.0,20.0,6.0,5.0,14.560219778561036,13.92838827718412,13.0,16.0,54.0,32.64965543462902
393,58,826,27.560866666666215,5.0,68.15423684555495,7.615773105863909,13.0,16.492422502470642,18.439088914585774,25.0,50.32891812864648,37.33630940518894,33.0,40.0,23.0,7.5,15.5,4.5,3.5,14.317821063276353,13.601470508735444,13.0,16.0,54.0,31.76476034853718
394,58,827,27.594233333332884,1.4142135623730951,70.60453243241541,7.615773105863909,11.704699910719626,16.492422502470642,18.439088914585774,25.96150997149434,44.598206241955516,32.89376840679705,31.5,39.0,20.0,4.5,12.5,2.5,0.5,15.524174696260024,14.560219778561036,14.0,18.0,54.0,39.21734310225516
395,58,828,27.62759999999955,1.0,71.30918594402827,5.385164807134504,10.770329614269007,15.524174696260024,17.72004514666935,26.68332812825267,43.01162633521314,32.28002478313795,31.0,38.0,20.0,3.0,12.0,3.0,1.0,14.317821063276353,14.866068747318506,13.5,16.0,52.0,36.05551275463989
396,58,829,27.660966666666216,2.0,72.27724399837061,6.708203932499369,10.770329614269007,16.492422502470642,17.72004514666935,26.476404589747453,41.7612260356422,31.04834939252005,31.0,38.0,20.0,3.0,11.0,2.0,1.0,13.341664064126334,14.560219778561036,13.5,14.0,52.0,33.61547262794322
397,58,830,27.69433333333288,1.4142135623730951,72.78049189171504,6.708203932499369,12.083045973594572,17.26267650163207,18.24828759089466,26.68332812825267,44.598206241955516,32.57299494980466,31.5,36.0,20.0,2.0,14.0,4.0,1.0,13.152946437965905,13.601470508735444,13.0,19.0,52.0,36.40054944640259
398,58,831,27.727699999999547,2.0,72.78049189171504,7.615773105863909,10.770329614269007,17.46424919657298,19.4164878389476,27.65863337187866,46.486557196677836,35.73513677041127,34.0,37.0,21.0,2.0,15.0,4.0,1.0,15.132745950421556,15.524174696260024,15.5,22.0,56.0,41.10960958218893
399,58,832,27.761066666666213,3.605551275463989,71.58910531638176,7.615773105863909,14.866068747318506,18.24828759089466,19.4164878389476,26.476404589747453,52.20153254455275,37.36308338453881,34.5,38.0,23.0,4.5,19.5,5.5,0.5,14.317821063276353,15.811388300841896,15.0,17.0,55.0,35.77708763999664
400,58,833,27.79443333333288,4.242640687119285,72.56721022610694,9.486832980505138,14.866068747318506,17.46424919657298,20.396078054371138,25.709920264364882,53.75872022286245,38.897300677553446,35.5,38.0,23.0,5.5,20.5,6.5,0.5,14.317821063276353,15.524174696260024,14.5,22.0,53.0,29.966648127543394
401,58,834,27.827799999999545,5.830951894845301,73.97972695272672,8.06225774829855,15.811388300841896,17.46424919657298,19.6468827043885,25.495097567963924,54.70831746635972,38.897300677553446,34.5,39.0,22.0,5.5,21.5,6.5,1.5,15.132745950421556,14.560219778561036,14.0,20.0,55.0,26.627053911388696
402,58,835,27.86116666666621,5.0,78.10249675906654,9.486832980505138,16.76305461424021,19.6468827043885,21.587033144922902,25.495097567963924,55.65968020030299,38.897300677553446,35.5,42.0,24.0,8.0,20.0,5.0,3.0,14.317821063276353,14.560219778561036,14.0,19.0,53.0,23.853720883753127
403,58,836,27.89453333333288,6.4031242374328485,77.12976079309465,7.615773105863909,16.76305461424021,19.4164878389476,20.615528128088304,25.495097567963924,55.65968020030299,38.897300677553446,34.5,40.0,22.0,6.0,22.0,7.0,2.0,13.152946437965905,14.560219778561036,13.5,20.0,52.0,20.0
404,58,841,28.061366666666206,3.0,68.96375859826666,5.830951894845301,12.649110640673518,16.15549442140351,18.384776310850235,25.317977802344327,44.27188724235731,31.622776601683793,30.0,40.0,20.0,5.0,12.0,3.0,4.0,11.40175425099138,12.649110640673518,12.0,19.0,52.0,24.413111231467404
405,58,842,28.094733333332872,2.23606797749979,68.96375859826666,7.615773105863909,13.92838827718412,14.560219778561036,17.72004514666935,24.041630560342615,47.16990566028302,33.24154027718932,30.5,40.0,20.0,7.0,14.0,2.0,3.0,14.317821063276353,15.524174696260024,15.0,20.0,56.0,23.600847442411894
406,58,843,28.128099999999534,3.605551275463989,63.60031446463138,7.615773105863909,13.601470508735444,15.811388300841896,17.72004514666935,24.041630560342615,48.104053883222775,34.539832078341085,31.0,40.0,22.0,8.0,14.0,1.0,5.0,14.560219778561036,13.92838827718412,13.0,15.0,53.0,29.068883707497267
407,58,844,28.161466666666204,4.242640687119285,66.09841147864296,7.615773105863909,14.560219778561036,17.72004514666935,18.681541692269406,24.73863375370596,50.59644256269407,36.05551275463989,32.5,42.0,22.0,8.0,16.0,3.0,4.0,14.317821063276353,14.560219778561036,14.0,18.0,52.0,30.4138126514911
408,58,846,28.228199999999536,3.0,68.9492567037528,9.486832980505138,16.15549442140351,17.08800749063506,20.248456731316587,25.0,51.62363799656123,35.4682957019364,33.0,45.0,22.0,9.5,14.5,1.5,4.5,14.560219778561036,14.866068747318506,14.0,25.0,62.0,35.84689665786984
409,58,847,28.2615666666662,3.605551275463989,65.96969000988257,6.708203932499369,14.560219778561036,15.811388300841896,17.46424919657298,25.0,49.64876634922564,35.11409973215888,31.5,40.0,24.0,8.0,15.0,2.0,5.0,15.524174696260024,15.811388300841896,15.0,25.0,63.0,39.0
410,58,848,28.294933333332867,3.605551275463989,63.324560795950255,6.708203932499369,14.560219778561036,15.811388300841896,16.76305461424021,25.709920264364882,50.28916384272063,35.73513677041127,32.5,42.0,25.0,8.5,14.5,2.5,5.5,13.341664064126334,13.601470508735444,13.5,14.0,49.0,29.966648127543394
411,58,849,28.328299999999533,5.0,64.28841264178172,7.615773105863909,15.811388300841896,14.560219778561036,16.76305461424021,23.769728648009426,51.86520991955976,36.05551275463989,32.0,40.0,23.0,8.5,17.5,3.5,4.5,14.317821063276353,15.524174696260024,15.0,15.0,50.0,26.076809620810597
412,58,850,28.3616666666662,5.0,67.1863081289633,8.246211251235321,14.560219778561036,16.492422502470642,18.439088914585774,24.73863375370596,52.20153254455275,37.64306044943742,34.0,41.0,24.0,8.5,17.5,3.5,4.5,14.142135623730951,13.601470508735444,12.5,21.0,48.0,25.495097567963924
413,58,851,28.395033333332865,6.708203932499369,66.48308055437865,7.615773105863909,13.601470508735444,16.76305461424021,17.72004514666935,25.0,52.81098370604357,39.21734310225516,34.0,43.0,25.0,10.0,16.0,4.0,6.0,13.341664064126334,13.601470508735444,13.0,18.0,48.0,23.706539182259394
414,58,852,28.42839999999953,8.06225774829855,67.1863081289633,8.54400374531753,14.560219778561036,16.492422502470642,19.6468827043885,24.73863375370596,55.65968020030299,41.10960958218893,35.5,43.0,26.0,10.5,18.5,4.5,5.5,14.317821063276353,14.560219778561036,13.5,16.0,48.0,27.294688127912362
415,58,853,28.4617666666662,7.615773105863909,73.24616030891995,8.54400374531753,15.811388300841896,17.72004514666935,19.6468827043885,25.0,56.92099788303083,41.10960958218893,35.5,43.0,25.0,10.0,20.0,5.0,6.0,14.317821063276353,14.560219778561036,13.5,16.0,50.0,21.633307652783937
416,58,854,28.495133333332863,9.486832980505138,69.3757882838098,7.615773105863909,15.524174696260024,18.439088914585774,20.396078054371138,25.0,57.56735185849702,42.05948168962618,35.5,43.0,25.0,10.0,21.0,7.0,6.0,13.601470508735444,13.601470508735444,13.0,15.0,50.0,23.323807579381203
417,58,855,28.52849999999953,4.47213595499958,69.85699678629192,7.615773105863909,16.492422502470642,15.524174696260024,17.72004514666935,25.709920264364882,54.120236510939236,37.64306044943742,34.0,40.0,24.0,7.0,20.0,5.0,3.0,14.317821063276353,14.560219778561036,13.5,18.0,53.0,29.068883707497267
418,58,856,28.561866666666194,1.0,65.30696746902278,7.280109889280518,13.601470508735444,12.36931687685298,14.317821063276353,28.442925306655784,49.47726750741192,35.90264614203248,35.0,39.0,26.0,4.5,15.5,2.5,0.5,15.132745950421556,15.811388300841896,15.0,19.0,53.0,29.5296461204668
419,58,857,28.59523333333286,1.0,68.65857557508748,8.54400374531753,13.601470508735444,13.341664064126334,15.524174696260024,26.076809620810597,48.05205510693585,34.52535300326414,34.0,41.0,26.0,7.5,13.5,1.5,2.5,13.341664064126334,15.524174696260024,14.5,16.0,52.0,28.635642126552707
420,58,858,28.62859999999953,1.0,68.24954212300622,6.708203932499369,11.40175425099138,14.317821063276353,15.297058540778355,29.274562336608895,47.29693436154187,35.90264614203248,35.0,40.0,27.0,4.5,12.5,0.5,1.5,13.152946437965905,13.341664064126334,13.0,19.0,47.0,24.698178070456937
421,58,859,28.661966666666192,2.23606797749979,66.49060083951716,7.615773105863909,11.40175425099138,14.317821063276353,16.278820596099706,29.274562336608895,50.21951811795888,38.8329756778952,37.0,42.0,28.0,6.0,14.0,3.0,2.0,13.341664064126334,12.36931687685298,12.0,20.0,45.0,26.0
422,58,860,28.695333333332854,5.385164807134504,70.61161377563892,8.246211251235321,13.601470508735444,16.492422502470642,18.439088914585774,28.442925306655784,55.54277630799526,41.97618372363071,38.5,43.0,28.0,7.5,18.5,5.5,2.5,13.341664064126334,13.601470508735444,13.0,18.0,49.0,29.546573405388315
423,58,861,28.728699999999524,6.082762530298219,72.78049189171504,7.615773105863909,12.649110640673518,15.524174696260024,17.46424919657298,28.442925306655784,54.57105459856901,41.97618372363071,38.0,43.0,27.0,7.0,18.0,6.0,3.0,14.317821063276353,15.297058540778355,15.5,19.0,54.0,25.495097567963924
