,frame_seq,m1,m3,m4,m5,m6,m7,m8,m9,m10,m11,m12,m13,m14,m15,m16,m17,e1,e2,e3,b1,b2,b3,label_measures
0,161,4.0,30.26549190084312,3.1622776601683795,6.082762530298219,9.055385138137416,8.06225774829855,7.071067811865476,20.223748416156685,14.142135623730953,12.0,14.0,10.0,5.0,8.0,2.0,3.0,4.0,4.123105625617661,4.0,8.0,11.0,11.0,{}
1,162,4.0,29.068883707497267,4.0,5.0990195135927845,8.06225774829855,9.0,5.0990195135927845,18.110770276274835,13.038404810405298,11.0,12.0,10.0,6.0,7.0,1.0,3.0,4.0,3.0,3.5,9.0,10.0,10.0,{}
2,163,3.0,29.068883707497267,3.0,5.0990195135927845,8.06225774829855,8.0,6.082762530298219,17.11724276862369,12.041594578792296,10.5,12.0,10.0,5.0,6.0,1.0,3.0,4.0,4.0,4.0,9.0,9.0,10.0,{}
3,164,3.0,25.079872407968907,3.0,5.0990195135927845,7.071067811865476,7.0,5.385164807134504,16.278820596099706,11.180339887498947,9.5,11.0,9.0,5.0,6.0,1.0,2.0,4.0,3.0,3.5,8.0,9.0,10.04987562112089,{}
4,165,2.0,26.0768096208106,3.1622776601683795,6.0,7.071067811865476,8.06225774829855,5.0990195135927845,16.1245154965971,10.198039027185567,9.0,11.0,9.0,5.0,6.0,0.0,3.0,4.0,4.0,4.0,8.0,9.0,9.055385138137416,{}
5,166,3.0,24.08318915758459,2.0,5.0990195135927845,7.071067811865476,7.071067811865476,5.0990195135927845,15.132745950421556,10.04987562112089,8.5,11.0,9.0,5.0,5.0,0.0,3.0,3.1622776601683795,3.0,3.0,8.0,9.0,8.0,{}
6,167,2.0,23.08679276123039,3.0,5.0990195135927845,7.0,7.071067811865476,5.0990195135927845,15.132745950421556,10.04987562112089,9.0,11.0,9.0,5.0,5.0,0.0,2.0,3.0,3.0,3.5,7.0,7.0,8.0,{}
7,168,2.23606797749979,22.09072203437452,3.0,5.0,6.0,6.082762530298219,5.0990195135927845,15.132745950421556,10.198039027185567,9.0,12.0,10.0,6.0,4.0,1.0,3.0,4.123105625617661,3.1622776601683795,3.0,9.0,9.0,8.0,{}
8,169,1.0,23.021728866442675,3.0,5.0,6.082762530298219,7.0,5.385164807134504,14.142135623730953,9.219544457292889,8.5,10.0,9.0,4.5,4.5,0.5,2.5,3.1622776601683795,4.123105625617661,4.0,8.0,7.0,8.0,{}
9,170,1.0,21.095023109728988,3.0,5.0990195135927845,6.0,7.0,5.385164807134504,14.317821063276352,9.219544457292889,8.5,11.0,9.0,5.0,4.0,1.0,2.0,3.0,3.0,3.0,7.0,7.0,7.0,{}
10,171,2.0,21.0,3.0,4.0,6.0,6.0,4.47213595499958,13.152946437965904,9.219544457292889,8.0,9.0,9.0,5.0,4.0,1.0,2.0,3.0,2.0,2.5,7.0,7.0,7.0,{}
11,172,2.0,22.0,3.0,4.0,6.0,7.0,4.123105625617661,13.038404810405298,9.055385138137416,8.0,8.0,8.0,4.0,5.0,0.0,1.0,3.0,2.0,2.0,7.0,7.0,8.0,{}
12,173,1.0,18.24828759089466,2.0,4.123105625617661,5.0,5.0,5.0990195135927845,12.16552506059644,8.06225774829855,7.5,11.0,8.0,4.5,2.5,0.5,2.5,3.1622776601683795,2.23606797749979,2.5,6.0,6.0,6.0,{}
13,174,2.0,18.027756377319943,2.0,4.123105625617661,6.0,5.0,4.47213595499958,12.36931687685298,8.246211251235321,7.0,8.0,7.0,3.5,4.5,0.5,1.5,3.0,3.0,3.0,7.0,7.0,7.0,{}
14,175,1.0,15.132745950421556,2.0,4.123105625617661,5.0990195135927845,5.0990195135927845,5.0990195135927845,12.16552506059644,8.06225774829855,7.5,11.0,9.0,5.0,2.0,2.0,3.0,3.0,2.0,2.5,6.0,6.0,6.0,{}
15,246,6.324555320336759,33.24154027718932,3.1622776601683795,4.123105625617661,8.54400374531753,9.486832980505138,8.54400374531753,22.13594362117865,18.027756377319943,14.0,19.0,10.0,6.5,6.5,3.5,5.5,4.123105625617661,3.1622776601683795,3.0,3.0,15.0,12.083045973594572,{}
16,266,3.1622776601683795,47.09564735726647,5.0,8.0,10.04987562112089,11.180339887498947,14.142135623730953,30.14962686336267,22.20360331117452,20.5,20.0,17.0,4.5,11.5,3.5,0.5,10.04987562112089,11.180339887498947,11.0,18.0,20.0,30.01666203960727,{}
17,268,2.0,45.39823785126467,6.0,9.0,9.055385138137416,11.40175425099138,12.16552506059644,29.068883707497267,20.09975124224178,19.0,22.0,16.0,7.0,10.0,3.0,2.0,9.0,9.219544457292889,9.5,15.0,23.0,29.0,{}
18,269,3.0,45.70557952810576,6.0,8.06225774829855,10.198039027185567,12.36931687685298,13.038404810405298,30.0,22.02271554554524,20.5,25.0,17.0,8.0,9.0,2.0,3.0,10.0,10.198039027185567,10.0,13.0,23.0,31.064449134018133,{}
19,309,4.0,39.45883931389772,4.0,9.219544457292889,10.04987562112089,11.180339887498947,12.36931687685298,29.42787793912432,20.223748416156685,18.0,16.0,10.0,1.0,16.0,7.0,2.0,2.23606797749979,2.8284271247461903,2.0,11.0,20.0,20.09975124224178,{}
20,310,4.0,39.45883931389772,4.123105625617661,8.06225774829855,10.198039027185567,11.04536101718726,11.180339887498947,27.29468812791236,19.235384061671343,17.0,14.0,8.0,0.0,16.0,8.0,2.0,1.0,2.23606797749979,2.0,11.0,20.0,18.24828759089466,{}
21,311,5.0990195135927845,38.2099463490856,4.0,7.0,10.04987562112089,11.04536101718726,10.198039027185567,26.1725046566048,19.235384061671343,16.5,12.0,8.0,0.0,16.0,8.0,3.0,2.0,2.23606797749979,1.5,11.0,19.0,19.026297590440446,{}
22,312,5.0,34.36568055487916,3.1622776601683795,7.071067811865476,9.055385138137416,10.04987562112089,11.180339887498947,26.30589287593181,19.235384061671343,16.5,14.0,9.0,0.5,14.5,7.5,1.5,2.23606797749979,2.8284271247461903,1.5,10.0,17.0,17.11724276862369,{}
23,312,7.071067811865476,30.59411708155671,2.0,4.123105625617661,8.246211251235321,9.219544457292889,7.071067811865476,20.223748416156685,16.1245154965971,12.5,6.0,12.0,2.0,11.0,5.0,1.0,2.23606797749979,2.0,2.0,16.0,8.0,16.1245154965971,{}
24,313,3.0,35.35533905932738,4.0,8.06225774829855,8.06225774829855,9.055385138137416,9.219544457292889,24.186773244895647,16.1245154965971,14.5,12.0,7.0,0.5,14.5,6.5,2.5,2.23606797749979,2.23606797749979,2.0,10.0,17.0,16.1245154965971,{}
25,314,4.0,33.37663853655727,4.123105625617661,7.071067811865476,8.246211251235321,9.055385138137416,9.219544457292889,24.33105012119288,17.26267650163207,15.0,13.0,8.0,1.5,13.5,6.5,0.5,1.4142135623730951,2.23606797749979,1.0,9.0,16.0,16.1245154965971,{}
26,314,6.082762530298219,27.65863337187866,2.0,4.0,7.280109889280518,8.246211251235321,7.071067811865476,19.1049731745428,15.132745950421556,12.0,5.0,11.0,1.0,11.0,5.0,1.0,2.23606797749979,2.0,2.0,16.0,8.0,14.142135623730953,{}
27,315,4.0,32.14031735997639,3.1622776601683795,7.071067811865476,8.0,9.055385138137416,9.055385138137416,23.194827009486403,16.1245154965971,14.0,11.0,8.0,0.5,13.5,6.5,2.5,2.23606797749979,2.23606797749979,1.0,10.0,16.0,15.033296378372908,{}
28,315,5.0,26.68332812825267,2.23606797749979,4.123105625617661,7.280109889280518,8.246211251235321,6.0,17.11724276862369,13.038404810405298,10.5,4.0,10.0,1.0,10.0,5.0,1.0,2.23606797749979,2.0,2.0,14.0,7.0,13.152946437965904,{}
29,316,4.0,30.26549190084312,2.23606797749979,7.071067811865476,8.0,8.06225774829855,9.055385138137416,22.20360331117452,15.132745950421556,13.0,10.0,6.0,1.0,14.0,7.0,3.0,1.4142135623730951,2.23606797749979,2.0,9.0,16.0,16.0312195418814,{}
30,316,2.0,24.515301344262525,2.23606797749979,4.123105625617661,7.071067811865476,8.246211251235321,4.123105625617661,12.041594578792296,8.0,7.0,0.0,5.0,1.5,9.5,3.5,3.5,2.23606797749979,2.0,2.0,15.0,8.0,12.16552506059644,{}
31,317,3.0,31.400636936215164,3.1622776601683795,6.082762530298219,8.06225774829855,8.06225774829855,9.055385138137416,21.213203435596427,15.132745950421556,13.5,11.0,6.0,0.5,12.5,6.5,2.5,1.4142135623730951,2.8284271247461903,2.0,8.0,15.0,15.033296378372908,{}
32,318,3.1622776601683795,31.400636936215164,3.0,6.0,8.06225774829855,8.06225774829855,8.246211251235321,20.223748416156685,14.317821063276352,12.5,10.0,5.0,0.5,12.5,6.5,2.5,2.23606797749979,1.4142135623730951,1.0,8.0,15.0,14.142135623730953,{}
33,319,3.0,30.26549190084312,3.1622776601683795,6.082762530298219,7.071067811865476,8.0,8.06225774829855,20.223748416156685,14.142135623730953,12.5,10.0,6.0,0.0,12.0,6.0,2.0,2.23606797749979,2.23606797749979,2.0,8.0,14.0,14.0356688476182,{}
34,320,3.0,27.29468812791236,2.0,6.082762530298219,7.071067811865476,8.0,9.219544457292889,20.223748416156685,14.142135623730953,12.5,11.0,7.0,0.0,11.0,5.0,1.0,2.0,2.23606797749979,2.0,8.0,14.0,13.038404810405298,{}
35,321,4.0,28.284271247461906,2.23606797749979,6.082762530298219,7.071067811865476,7.0,8.06225774829855,20.223748416156685,14.142135623730953,12.0,10.0,6.0,0.0,12.0,6.0,1.0,1.0,1.4142135623730951,1.0,8.0,14.0,14.142135623730953,{}
36,322,3.0,25.317977802344327,3.1622776601683795,6.082762530298219,7.071067811865476,7.071067811865476,7.280109889280518,19.4164878389476,13.341664064126334,11.5,9.0,5.0,0.0,12.0,6.0,2.0,1.0,1.4142135623730951,1.0,8.0,13.0,13.152946437965904,{}
37,323,4.123105625617661,27.16615541441225,2.0,5.0,7.071067811865476,7.071067811865476,7.071067811865476,18.110770276274835,13.152946437965904,11.0,8.0,5.0,0.5,11.5,5.5,1.5,2.0,1.4142135623730951,1.0,8.0,14.0,13.152946437965904,{}
38,324,3.0,26.1725046566048,2.0,5.0990195135927845,6.082762530298219,8.06225774829855,8.246211251235321,18.24828759089466,13.152946437965904,11.5,9.0,6.0,0.5,10.5,5.5,1.5,1.4142135623730951,1.4142135623730951,1.0,8.0,13.0,13.152946437965904,{}
39,325,3.1622776601683795,25.179356624028344,2.0,5.0,7.071067811865476,7.0,7.071067811865476,17.11724276862369,12.16552506059644,10.5,8.0,5.0,0.5,10.5,5.5,1.5,1.0,1.4142135623730951,1.0,7.0,13.0,12.041594578792296,{}
40,326,4.0,24.186773244895647,2.0,5.0990195135927845,6.0,7.071067811865476,7.071067811865476,18.110770276274835,13.038404810405298,11.0,9.0,6.0,0.5,10.5,5.5,1.5,1.0,1.4142135623730951,1.0,7.0,12.0,13.152946437965904,{}
41,327,3.0,24.186773244895647,2.0,5.0990195135927845,6.0,7.071067811865476,7.280109889280518,17.26267650163207,12.16552506059644,10.5,9.0,6.0,0.5,9.5,4.5,1.5,1.4142135623730951,1.4142135623730951,1.0,7.0,11.0,12.041594578792296,{}
42,342,1.0,44.28317965096906,4.0,7.071067811865476,12.0,12.041594578792296,14.142135623730953,25.317977802344327,18.24828759089466,18.0,12.0,17.0,0.5,10.5,2.5,2.5,3.0,3.0,3.5,12.0,7.0,14.0356688476182,{}
43,343,1.4142135623730951,39.11521443121589,3.0,6.082762530298219,11.04536101718726,12.041594578792296,13.152946437965904,23.345235059857504,17.26267650163207,16.5,12.0,15.0,0.5,9.5,2.5,2.5,2.0,3.0,3.0,10.0,6.0,12.041594578792296,{}
44,344,1.0,38.11823710509184,3.0,6.082762530298219,11.04536101718726,11.0,13.152946437965904,22.36067977499789,16.278820596099706,16.0,12.0,15.0,0.5,8.5,1.5,2.5,3.0,3.0,2.5,9.0,6.0,12.041594578792296,{}
45,345,1.0,22.02271554554524,2.0,3.0,5.0,6.0,6.0,10.0,7.0,7.5,7.0,8.0,1.5,2.5,0.5,0.5,3.0,3.0,3.0,8.0,7.0,9.0,{}
46,345,0.0,39.11521443121589,3.1622776601683795,6.082762530298219,10.04987562112089,11.04536101718726,12.041594578792296,21.213203435596427,15.132745950421556,15.0,10.0,13.0,0.5,9.5,2.5,3.5,2.0,2.0,2.0,9.0,5.0,11.180339887498947,{}
47,346,1.4142135623730951,38.11823710509184,3.0,5.0,10.04987562112089,11.04536101718726,11.180339887498947,20.223748416156685,15.297058540778355,14.5,10.0,13.0,0.5,8.5,2.5,2.5,2.0,2.23606797749979,2.5,8.0,4.0,10.04987562112089,{}
48,346,1.0,21.0,2.0,3.0,6.0,6.0,5.0,11.0,8.0,7.5,8.0,8.0,3.0,3.0,0.0,1.0,3.1622776601683795,3.0,3.0,8.0,7.0,9.055385138137416,{}
49,347,1.4142135623730951,35.12833614050059,2.0,5.0,10.0,10.04987562112089,11.180339887498947,19.235384061671343,14.317821063276352,13.5,10.0,13.0,0.5,7.5,1.5,1.5,3.1622776601683795,3.0,2.5,9.0,5.0,12.041594578792296,{}
50,347,0.0,21.02379604162864,2.0,3.0,6.082762530298219,6.082762530298219,5.0,10.0,7.0,7.0,8.0,7.0,2.5,2.5,0.5,1.5,2.0,3.0,3.0,7.0,8.0,9.0,{}
51,347,2.23606797749979,21.02379604162864,3.0,4.0,6.0,6.0,7.071067811865476,16.1245154965971,12.16552506059644,11.0,12.0,11.0,4.5,4.5,0.5,1.5,3.0,3.1622776601683795,3.0,6.0,8.0,7.0,{}
52,348,1.0,35.05709628591621,3.1622776601683795,5.0990195135927845,9.055385138137416,10.04987562112089,10.04987562112089,19.235384061671343,14.142135623730953,13.5,10.0,12.0,1.0,8.0,2.0,2.0,2.0,2.0,2.0,7.0,3.0,10.198039027185567,{}
53,348,1.0,18.0,2.23606797749979,3.0,5.0990195135927845,5.0,5.0990195135927845,10.04987562112089,7.071067811865476,7.0,7.0,7.0,2.0,3.0,0.0,0.0,3.0,3.0,3.0,7.0,7.0,8.0,{}
54,349,1.4142135623730951,31.14482300479488,3.0,5.0,9.055385138137416,9.055385138137416,9.055385138137416,18.110770276274835,13.152946437965904,12.5,9.0,12.0,1.5,7.5,1.5,1.5,2.0,2.0,2.0,8.0,6.0,6.0,{}
55,349,1.0,17.029386365926403,2.0,3.0,5.0,6.082762530298219,6.082762530298219,11.180339887498947,8.246211251235321,8.0,9.0,10.0,3.5,1.5,1.5,1.5,2.0,2.0,2.0,7.0,7.0,8.0,{}
56,350,0.0,32.0624390837628,3.0,5.0990195135927845,9.055385138137416,10.04987562112089,9.055385138137416,17.11724276862369,12.041594578792296,12.0,9.0,11.0,1.0,7.0,1.0,2.0,1.4142135623730951,2.0,2.0,8.0,5.0,9.055385138137416,{}
57,351,1.0,31.14482300479488,2.0,4.123105625617661,8.0,9.0,10.04987562112089,17.11724276862369,13.038404810405298,12.5,9.0,12.0,0.5,6.5,1.5,1.5,2.23606797749979,2.0,2.0,7.0,4.0,9.055385138137416,{}
58,352,0.0,29.154759474226505,3.1622776601683795,5.0990195135927845,8.06225774829855,8.06225774829855,8.06225774829855,16.278820596099706,11.180339887498947,11.0,8.0,11.0,1.5,6.5,1.5,1.5,1.0,2.0,2.0,7.0,4.0,8.06225774829855,{}
59,353,1.4142135623730951,28.16025568065745,2.0,4.0,8.0,8.06225774829855,8.06225774829855,15.132745950421556,11.180339887498947,10.5,7.0,10.0,0.5,6.5,1.5,1.5,2.0,2.0,2.0,7.0,5.0,6.0,{}
60,354,0.0,28.16025568065745,3.1622776601683795,4.0,7.071067811865476,8.06225774829855,8.06225774829855,15.132745950421556,11.180339887498947,11.0,8.0,11.0,1.5,5.5,1.5,1.5,2.0,2.23606797749979,2.0,6.0,3.0,9.055385138137416,{}
61,355,1.0,25.179356624028344,2.23606797749979,3.1622776601683795,7.071067811865476,8.0,8.06225774829855,14.317821063276352,11.180339887498947,10.5,7.0,10.0,0.5,5.5,1.5,1.5,1.0,2.0,1.5,5.0,3.0,7.0,{}
62,356,0.0,26.0768096208106,2.0,4.123105625617661,7.071067811865476,8.06225774829855,8.06225774829855,14.142135623730953,10.04987562112089,10.0,7.0,9.0,0.0,6.0,1.0,2.0,2.0,2.0,1.5,7.0,4.0,8.06225774829855,{}
63,409,2.0,74.24284477308234,9.055385138137416,10.04987562112089,20.024984394500787,20.024984394500787,35.22782990761707,52.3450093132096,42.2965719651132,43.0,58.0,52.0,20.0,3.0,13.0,12.0,8.246211251235321,8.0,7.5,24.0,28.0,30.0,{}
64,410,0.0,71.17583859709698,9.055385138137416,9.055385138137416,19.026297590440446,19.1049731745428,35.22782990761707,53.33854141237835,44.28317965096906,44.0,58.0,53.0,20.5,2.5,11.5,12.5,8.246211251235321,8.06225774829855,7.5,22.0,29.0,30.0,{}
65,411,2.23606797749979,72.11102550927978,8.06225774829855,10.0,20.09975124224178,20.024984394500787,35.35533905932738,51.24451190127583,41.30375285612676,42.0,56.0,52.0,19.0,3.0,13.0,13.0,7.615773105863909,8.0,8.0,21.0,27.0,30.01666203960727,{}
66,412,1.0,76.10519036176179,7.0,10.04987562112089,19.026297590440446,20.024984394500787,36.6742416417845,54.589376255824725,44.553338819890925,43.5,57.0,53.0,19.0,1.0,12.0,13.0,7.280109889280518,8.06225774829855,8.0,24.0,32.0,32.0,{}
67,413,0.0,77.10382610480494,9.055385138137416,9.055385138137416,22.02271554554524,22.02271554554524,33.37663853655727,51.47815070493501,42.42640687119285,42.0,55.0,51.0,20.0,2.0,12.0,12.0,8.246211251235321,8.0,7.5,21.0,29.0,33.0,{}
68,414,0.0,76.23647421018367,8.06225774829855,9.055385138137416,22.09072203437452,23.08679276123039,34.52535300326414,51.62363799656123,42.579337712087536,42.0,56.0,50.0,19.0,2.0,10.0,12.0,7.615773105863909,8.06225774829855,7.5,20.0,27.0,30.01666203960727,{}
69,415,8.0,78.23042886243178,9.055385138137416,8.06225774829855,24.08318915758459,25.019992006393608,32.55764119219941,57.55866572463264,49.49747468305833,45.0,56.0,50.0,21.0,4.0,5.0,14.0,7.615773105863909,8.06225774829855,7.5,21.0,27.0,29.017236257093817,{}
70,416,10.0,75.23961722390672,9.055385138137416,11.180339887498947,23.08679276123039,24.08318915758459,30.80584360149873,60.8276253029822,49.64876634922564,44.0,55.0,49.0,22.0,8.0,3.0,14.0,7.280109889280518,8.06225774829855,7.0,21.0,29.0,29.0,{}
71,417,8.06225774829855,75.1065909225016,9.055385138137416,12.041594578792296,23.08679276123039,24.0,31.78049716414141,60.8276253029822,48.83646178829912,44.0,55.0,51.0,22.0,7.0,6.0,14.0,7.280109889280518,8.06225774829855,7.5,21.0,30.0,34.0147027033899,{}
72,418,9.0,76.23647421018367,9.055385138137416,12.16552506059644,25.079872407968907,25.019992006393608,31.575306807693888,61.66036003787198,49.49747468305833,44.5,56.0,50.0,22.0,8.0,4.0,14.0,7.280109889280518,7.071067811865476,7.0,21.0,28.0,29.017236257093817,{}
73,419,11.04536101718726,76.23647421018367,8.246211251235321,13.152946437965904,22.09072203437452,23.021728866442675,32.38826948140329,64.77653896280658,51.62363799656123,45.5,57.0,51.0,22.0,10.0,3.0,15.0,7.071067811865476,8.06225774829855,8.0,22.0,32.0,29.017236257093817,{}
74,420,12.041594578792296,76.23647421018367,9.055385138137416,11.180339887498947,24.08318915758459,25.019992006393608,30.80584360149873,62.96824596572466,51.78802950489621,45.0,55.0,49.0,22.0,10.0,2.0,14.0,7.280109889280518,8.06225774829855,7.5,21.0,29.0,30.01666203960727,{}
75,421,10.198039027185567,77.23341245859851,8.06225774829855,12.16552506059644,24.08318915758459,24.020824298928627,30.4138126514911,60.8276253029822,48.66210024238576,43.0,54.0,48.0,21.0,9.0,4.0,14.0,9.219544457292889,9.055385138137416,9.0,24.0,32.0,32.01562118716424,{}
76,422,8.06225774829855,78.16009211867653,8.246211251235321,10.198039027185567,23.021728866442675,24.020824298928627,30.26549190084312,56.71860364994893,46.52956049652737,42.0,53.0,48.0,20.5,5.5,5.5,13.5,6.324555320336759,8.06225774829855,7.5,22.0,29.0,31.016124838541646,{}
77,423,9.219544457292889,76.16429609731846,8.06225774829855,12.16552506059644,23.021728866442675,24.020824298928627,29.61418578992169,59.033888572581766,46.87216658103186,41.5,52.0,47.0,20.5,8.5,4.5,13.5,6.324555320336759,7.071067811865476,7.0,18.0,28.0,26.019223662515376,{}
78,424,10.04987562112089,72.11102550927978,8.06225774829855,12.041594578792296,21.095023109728988,22.0,29.154759474226505,59.30430001273095,47.265209192385896,42.0,50.0,46.0,19.0,11.0,2.0,12.0,5.385164807134504,6.082762530298219,5.5,24.0,34.0,25.019992006393608,{}
79,425,5.0990195135927845,80.15609770940699,9.055385138137416,12.041594578792296,22.02271554554524,23.0,30.26549190084312,56.43580423808985,44.40720662234904,41.5,52.0,47.0,19.5,6.5,6.5,11.5,7.280109889280518,6.082762530298219,6.0,23.0,33.0,25.0,{}
80,426,3.0,81.15417426109393,9.055385138137416,13.152946437965904,23.021728866442675,23.021728866442675,30.26549190084312,55.44366510251645,42.2965719651132,40.5,51.0,46.0,18.5,6.5,7.5,10.5,5.0990195135927845,5.0990195135927845,5.0,20.0,30.0,27.16615541441225,{}
81,427,1.4142135623730951,81.15417426109393,9.055385138137416,12.041594578792296,22.02271554554524,22.02271554554524,30.26549190084312,52.46903848937962,40.44749683231337,39.5,49.0,44.0,16.5,5.5,7.5,8.5,6.082762530298219,6.082762530298219,6.0,21.0,29.0,27.073972741361768,{}
82,428,2.23606797749979,80.15609770940699,9.0,14.0356688476182,22.02271554554524,23.0,30.4138126514911,55.44366510251645,41.43669871020132,40.0,50.0,45.0,17.5,7.5,7.5,9.5,6.324555320336759,6.0,5.5,20.0,28.0,28.0713376952364,{}
83,429,5.0990195135927845,79.1580697086532,9.055385138137416,13.038404810405298,22.02271554554524,23.0,30.26549190084312,57.42821606144492,44.40720662234904,41.5,51.0,46.0,18.5,8.5,5.5,10.5,6.082762530298219,7.071067811865476,6.5,22.0,31.0,30.066592756745816,{}
84,430,2.23606797749979,83.09632964216891,9.219544457292889,13.038404810405298,22.02271554554524,23.021728866442675,30.26549190084312,54.589376255824725,41.593268686170845,40.0,50.0,46.0,18.0,6.0,8.0,10.0,7.280109889280518,6.0,6.0,24.0,31.0,28.16025568065745,{}
85,431,1.4142135623730951,82.29823813423954,9.055385138137416,12.041594578792296,22.09072203437452,22.02271554554524,30.4138126514911,50.635955604688654,38.63935817272331,38.5,49.0,42.0,15.5,4.5,7.5,8.5,6.324555320336759,6.0,6.0,23.0,29.0,25.019992006393608,{}
86,432,1.0,83.48652585896721,9.055385138137416,12.041594578792296,22.09072203437452,23.021728866442675,30.26549190084312,51.47815070493501,39.45883931389772,39.0,50.0,41.0,15.5,5.5,7.5,8.5,6.324555320336759,6.082762530298219,6.0,22.0,30.0,29.068883707497267,{}
87,433,1.0,85.21150157109074,9.055385138137416,12.041594578792296,22.09072203437452,23.08679276123039,30.14962686336267,51.35172830587107,39.319206502675,39.0,49.0,43.0,16.0,5.0,8.0,9.0,5.0990195135927845,5.0,4.5,21.0,32.0,27.073972741361768,{}
88,434,1.4142135623730951,81.30190649671138,10.04987562112089,12.041594578792296,21.02379604162864,22.02271554554524,31.064449134018133,54.230987451824994,42.190046219457976,41.5,50.0,43.0,15.5,7.5,5.5,7.5,9.055385138137416,8.06225774829855,8.0,24.0,35.0,30.26549190084312,{}
89,435,3.1622776601683795,83.2946576918352,8.06225774829855,12.16552506059644,23.08679276123039,23.021728866442675,33.54101966249684,56.88585061331157,44.7213595499958,42.5,52.0,45.0,15.5,7.5,5.5,9.5,5.385164807134504,4.123105625617661,4.0,22.0,32.0,31.064449134018133,{}
90,436,2.23606797749979,81.49846624323675,10.04987562112089,11.180339887498947,22.09072203437452,23.021728866442675,32.14031735997639,55.44366510251645,44.28317965096906,43.0,54.0,45.0,17.5,5.5,6.5,9.5,7.071067811865476,8.06225774829855,7.0,22.0,32.0,28.0713376952364,{}
91,437,8.246211251235321,78.23042886243178,8.06225774829855,11.04536101718726,22.02271554554524,23.021728866442675,31.400636936215164,58.69412236331676,47.67598976424087,43.0,53.0,47.0,19.0,8.0,3.0,12.0,6.082762530298219,5.0,5.0,23.0,32.0,30.14962686336267,{}
92,438,7.071067811865476,78.40918313565064,10.04987562112089,12.041594578792296,22.09072203437452,23.021728866442675,32.38826948140329,61.5223536610881,49.49747468305833,45.5,57.0,49.0,21.0,8.0,5.0,13.0,10.198039027185567,10.0,10.0,20.0,31.0,28.0713376952364,{}
93,439,9.055385138137416,76.23647421018367,8.06225774829855,10.198039027185567,22.20360331117452,23.021728866442675,32.2490309931942,59.53990258641679,49.36598018878993,44.5,55.0,49.0,20.0,7.0,3.0,14.0,6.324555320336759,7.0,7.0,19.0,28.0,22.02271554554524,{}
94,440,5.0990195135927845,79.1012010022604,9.055385138137416,10.198039027185567,21.02379604162864,22.0,33.24154027718932,57.55866572463264,47.38143096192854,44.5,54.0,50.0,19.0,5.0,5.0,11.0,6.324555320336759,6.082762530298219,5.5,23.0,33.0,27.16615541441225,{}
95,441,0.0,80.05623023850174,8.246211251235321,8.246211251235321,20.024984394500787,20.024984394500787,34.23448553724738,50.635955604688654,42.42640687119285,42.0,51.0,48.0,15.5,0.5,7.5,8.5,6.708203932499369,6.082762530298219,6.0,21.0,32.0,24.186773244895647,{}
96,442,0.0,82.29823813423954,8.06225774829855,10.198039027185567,22.09072203437452,22.02271554554524,34.36568055487916,52.61178575186362,42.42640687119285,42.0,53.0,46.0,15.5,2.5,7.5,9.5,4.47213595499958,5.0990195135927845,4.5,20.0,31.0,23.194827009486403,{}
97,443,1.0,80.22468448052632,8.246211251235321,11.180339887498947,21.02379604162864,21.095023109728988,32.2490309931942,51.47815070493501,40.311288741492746,40.0,50.0,44.0,15.0,4.0,7.0,8.0,7.280109889280518,8.06225774829855,7.5,20.0,30.0,26.1725046566048,{}
98,444,1.4142135623730951,78.40918313565064,8.246211251235321,11.180339887498947,21.095023109728988,22.09072203437452,33.24154027718932,53.46026561849464,42.2965719651132,41.5,52.0,44.0,15.0,5.0,6.0,9.0,8.246211251235321,7.071067811865476,6.5,21.0,33.0,23.194827009486403,{}
99,445,1.0,83.21658488546619,9.055385138137416,11.180339887498947,22.09072203437452,23.08679276123039,32.2490309931942,53.46026561849464,42.2965719651132,41.5,49.0,43.0,14.0,7.0,5.0,7.0,5.385164807134504,6.082762530298219,5.5,22.0,31.0,27.073972741361768,{}
100,446,0.0,80.50465825031493,9.055385138137416,11.180339887498947,20.223748416156685,21.095023109728988,34.52535300326414,54.74486277268398,43.56604182158393,43.0,51.0,42.0,12.5,7.5,3.5,6.5,9.219544457292889,9.055385138137416,9.0,19.0,30.0,24.515301344262525,{}
101,447,1.4142135623730951,81.30190649671138,8.246211251235321,10.198039027185567,20.223748416156685,21.095023109728988,36.22154055254967,53.75872022286245,43.56604182158393,43.5,50.0,43.0,10.5,6.5,3.5,5.5,9.219544457292889,8.06225774829855,8.0,20.0,31.0,27.29468812791236,{}
102,448,1.0,82.60750571225353,9.219544457292889,13.152946437965904,21.095023109728988,21.095023109728988,35.6931365951495,57.0701322935211,43.93176527297759,43.5,52.0,42.0,12.0,9.0,4.0,5.0,6.324555320336759,6.082762530298219,5.5,20.0,32.0,24.186773244895647,{}
103,449,2.23606797749979,81.49846624323675,8.06225774829855,10.198039027185567,20.09975124224178,21.095023109728988,36.49657518178932,56.88585061331157,46.69047011971501,45.0,53.0,44.0,12.5,7.5,3.5,6.5,4.47213595499958,5.0990195135927845,4.5,21.0,33.0,25.179356624028344,{}
104,450,3.1622776601683795,80.62257748298549,10.04987562112089,11.180339887498947,22.09072203437452,22.09072203437452,34.36568055487916,58.69412236331676,47.51841748206689,45.5,54.0,44.0,15.0,9.0,3.0,7.0,7.280109889280518,8.246211251235321,7.5,21.0,34.0,26.1725046566048,{}
105,451,8.06225774829855,78.63841300535,9.219544457292889,11.40175425099138,23.08679276123039,24.08318915758459,33.37663853655727,61.98386886924694,50.635955604688654,46.0,56.0,46.0,18.0,10.0,2.0,11.0,5.0,6.082762530298219,5.0,17.0,32.0,22.56102834535696,{}
106,452,8.246211251235321,74.67261881037788,8.06225774829855,11.180339887498947,22.20360331117452,23.08679276123039,33.37663853655727,60.8276253029822,49.64876634922564,45.0,56.0,46.0,18.0,9.0,2.0,12.0,6.324555320336759,7.071067811865476,6.5,20.0,35.0,26.30589287593181,{}
107,453,13.152946437965904,75.66372975210778,9.055385138137416,10.198039027185567,22.20360331117452,23.08679276123039,31.400636936215164,63.788713735268246,53.60037313302959,46.5,56.0,46.0,20.0,12.0,1.0,13.0,6.324555320336759,7.071067811865476,6.0,22.0,35.0,30.26549190084312,{}
108,454,12.041594578792296,71.7007670809734,9.055385138137416,13.152946437965904,19.1049731745428,21.095023109728988,32.7566787083184,66.91038783328041,53.75872022286245,47.0,56.0,46.0,19.0,15.0,2.0,11.0,6.708203932499369,7.071067811865476,7.0,20.0,34.0,28.635642126552707,{}
109,455,10.198039027185567,74.54528824815154,9.055385138137416,12.16552506059644,21.095023109728988,23.021728866442675,31.400636936215164,62.80127387243033,50.635955604688654,45.0,56.0,47.0,20.5,10.5,1.5,12.5,7.280109889280518,8.06225774829855,8.0,21.0,35.0,30.59411708155671,{}
110,456,12.16552506059644,74.67261881037788,9.055385138137416,12.16552506059644,22.09072203437452,23.021728866442675,32.14031735997639,65.49045732013177,53.33854141237835,47.0,57.0,47.0,20.0,13.0,0.0,12.0,6.324555320336759,8.06225774829855,7.5,22.0,36.0,31.400636936215164,{}
111,457,10.04987562112089,73.33484846919642,9.219544457292889,10.44030650891055,22.20360331117452,23.08679276123039,30.4138126514911,60.01666435249463,49.64876634922564,44.0,53.0,46.0,19.5,9.5,0.5,12.5,5.0,7.280109889280518,6.5,19.0,34.0,27.459060435491963,{}
112,458,9.055385138137416,76.23647421018367,9.219544457292889,10.198039027185567,21.095023109728988,22.02271554554524,30.59411708155671,59.033888572581766,48.83646178829912,43.5,52.0,46.0,19.0,9.0,2.0,12.0,5.830951894845301,7.280109889280518,6.5,20.0,34.0,29.61418578992169,{}
113,459,6.0,77.31752712031083,8.246211251235321,10.198039027185567,21.095023109728988,22.02271554554524,31.400636936215164,55.731499172371095,45.5411901469428,42.0,51.0,44.0,16.5,7.5,3.5,9.5,5.0,7.071067811865476,6.5,19.0,33.0,29.61418578992169,{}
114,460,4.0,77.31752712031083,9.055385138137416,11.180339887498947,21.095023109728988,22.09072203437452,31.400636936215164,55.57877292636101,44.40720662234904,42.0,52.0,45.0,17.5,6.5,5.5,10.5,6.708203932499369,7.071067811865476,6.5,18.0,33.0,28.635642126552707,{}
115,461,1.4142135623730951,78.5175139698144,8.246211251235321,11.180339887498947,22.09072203437452,22.09072203437452,32.38826948140329,52.61178575186362,41.43669871020132,40.5,54.0,45.0,17.5,2.5,8.5,10.5,5.385164807134504,6.082762530298219,6.0,19.0,33.0,29.61418578992169,{}
116,462,1.4142135623730951,78.5175139698144,10.198039027185567,13.152946437965904,21.095023109728988,22.09072203437452,31.25699921617557,55.44366510251645,42.2965719651132,41.5,53.0,44.0,17.5,6.5,6.5,9.5,6.324555320336759,7.071067811865476,6.5,20.0,33.0,27.65863337187866,{}
117,463,1.0,72.3394774656273,9.055385138137416,12.041594578792296,20.09975124224178,20.09975124224178,32.55764119219941,54.589376255824725,42.579337712087536,41.5,52.0,45.0,16.5,5.5,6.5,8.5,5.830951894845301,6.082762530298219,6.0,19.0,32.0,29.27456233660889,{}
118,464,2.0,74.43117626371358,9.219544457292889,12.16552506059644,20.09975124224178,21.095023109728988,31.400636936215164,54.74486277268398,42.579337712087536,41.0,52.0,44.0,17.0,6.0,7.0,9.0,5.830951894845301,7.071067811865476,6.5,18.0,33.0,25.96150997149434,{}
119,465,2.0,78.31347265956222,9.055385138137416,12.16552506059644,22.09072203437452,22.02271554554524,32.2490309931942,55.44366510251645,43.28972164382672,42.0,52.0,45.0,16.5,6.5,6.5,9.5,6.324555320336759,7.280109889280518,6.5,18.0,32.0,27.29468812791236,{}
120,466,2.23606797749979,76.16429609731846,9.055385138137416,12.16552506059644,21.02379604162864,22.0,31.575306807693888,54.91812087098393,42.7551166528639,41.0,50.0,45.0,16.5,6.5,6.5,8.5,5.385164807134504,5.0990195135927845,5.0,18.0,32.0,27.16615541441225,{}
121,467,1.4142135623730951,77.23341245859851,10.04987562112089,12.16552506059644,20.09975124224178,22.0,32.38826948140329,55.731499172371095,43.56604182158393,42.5,51.0,45.0,16.0,7.0,6.0,8.0,5.385164807134504,6.324555320336759,5.5,17.0,32.0,28.442925306655784,{}
122,468,1.4142135623730951,76.4198926981712,10.04987562112089,12.16552506059644,21.213203435596427,21.095023109728988,31.400636936215164,54.74486277268398,42.579337712087536,41.5,52.0,44.0,17.0,6.0,6.0,9.0,6.708203932499369,6.324555320336759,6.0,19.0,33.0,29.42787793912432,{}
123,469,1.4142135623730951,77.23341245859851,9.055385138137416,12.16552506059644,21.095023109728988,21.095023109728988,32.55764119219941,54.91812087098393,42.7551166528639,41.5,50.0,44.0,15.0,7.0,6.0,8.0,5.385164807134504,6.324555320336759,5.5,19.0,33.0,26.476404589747453,{}
124,470,1.4142135623730951,79.40403012442127,9.219544457292889,11.180339887498947,23.08679276123039,22.02271554554524,31.25699921617557,52.773099207835045,41.593268686170845,40.5,51.0,43.0,16.0,5.0,7.0,9.0,7.615773105863909,7.071067811865476,6.5,19.0,34.0,24.73863375370596,{}
125,471,1.4142135623730951,79.22752047110903,9.055385138137416,9.219544457292889,22.09072203437452,22.02271554554524,30.4138126514911,49.8196748283246,40.60788100849391,39.5,50.0,44.0,17.0,2.0,8.0,10.0,6.324555320336759,6.082762530298219,6.0,16.0,31.0,23.53720459187964,{}
126,472,2.0,80.22468448052632,10.04987562112089,11.180339887498947,21.095023109728988,22.02271554554524,29.42787793912432,52.61178575186362,41.43669871020132,40.0,50.0,44.0,18.0,5.0,7.0,10.0,7.280109889280518,8.06225774829855,7.5,19.0,33.0,27.459060435491963,{}
127,473,3.0,75.16648189186454,10.198039027185567,12.36931687685298,22.02271554554524,22.02271554554524,31.25699921617557,56.71860364994893,44.40720662234904,42.5,52.0,47.0,18.5,6.5,6.5,9.5,4.47213595499958,5.0990195135927845,5.5,17.0,34.0,25.96150997149434,{}
128,474,2.0,78.16009211867653,9.055385138137416,13.152946437965904,22.02271554554524,21.0,33.37663853655727,57.55866572463264,44.40720662234904,43.0,52.0,47.0,16.5,7.5,6.5,8.5,5.830951894845301,6.082762530298219,5.5,16.0,32.0,29.8328677803526,{}
129,475,1.0,78.10249675906654,9.055385138137416,12.16552506059644,20.0,20.0,34.23448553724738,56.43580423808985,44.28317965096906,43.5,52.0,48.0,16.0,6.0,7.0,8.0,5.830951894845301,7.071067811865476,6.5,19.0,33.0,25.495097567963924,{}
130,476,1.0,73.17103251970687,9.219544457292889,11.04536101718726,19.0,20.024984394500787,34.23448553724738,55.44366510251645,44.40720662234904,43.5,53.0,48.0,16.5,4.5,7.5,8.5,6.324555320336759,7.280109889280518,6.5,17.0,32.0,28.635642126552707,{}
131,477,0.0,81.09870529176159,10.04987562112089,11.04536101718726,21.02379604162864,22.0,32.38826948140329,53.46026561849464,42.42640687119285,42.0,51.0,47.0,17.0,4.0,8.0,9.0,7.615773105863909,8.06225774829855,8.0,21.0,35.0,28.442925306655784,{}
132,478,1.4142135623730951,79.22752047110903,10.04987562112089,13.152946437965904,21.02379604162864,22.02271554554524,31.25699921617557,53.33854141237835,40.19950248448356,40.5,51.0,45.0,17.0,5.0,9.0,9.0,7.071067811865476,8.246211251235321,7.5,19.0,32.0,23.53720459187964,{}
133,479,1.0,79.05694150420949,10.04987562112089,12.16552506059644,20.09975124224178,22.02271554554524,29.068883707497267,52.23983154643591,40.11234224026316,39.5,48.0,45.0,17.5,5.5,7.5,9.5,7.280109889280518,9.219544457292889,8.5,22.0,35.0,24.04163056034261,{}
134,480,2.0,76.02631123499285,9.055385138137416,12.041594578792296,21.02379604162864,22.02271554554524,28.284271247461906,51.35172830587107,39.319206502675,38.0,46.0,44.0,17.0,6.0,7.0,10.0,5.385164807134504,5.0990195135927845,5.0,18.0,32.0,22.80350850198276,{}
135,481,3.1622776601683795,72.11102550927978,9.055385138137416,11.180339887498947,21.02379604162864,21.02379604162864,30.14962686336267,53.23532661682466,42.1070065428546,40.5,49.0,45.0,17.0,6.0,6.0,10.0,6.324555320336759,8.06225774829855,8.0,20.0,34.0,28.635642126552707,{}
136,482,6.082762530298219,74.06078584514209,8.06225774829855,11.04536101718726,20.09975124224178,22.02271554554524,31.14482300479488,56.32051136131489,45.27692569068709,42.0,52.0,49.0,19.5,5.5,5.5,12.5,6.708203932499369,7.280109889280518,6.5,20.0,35.0,29.8328677803526,{}
137,483,9.0,72.06247289678588,9.219544457292889,14.142135623730953,21.02379604162864,22.0,31.14482300479488,63.38769596696192,49.25444142409901,44.5,53.0,50.0,20.5,11.5,3.5,12.5,6.708203932499369,8.246211251235321,7.5,21.0,33.0,27.65863337187866,{}
138,484,7.071067811865476,71.17583859709698,9.055385138137416,12.16552506059644,20.024984394500787,21.02379604162864,33.24154027718932,61.5223536610881,49.36598018878993,45.5,55.0,50.0,19.5,8.5,4.5,11.5,7.615773105863909,8.06225774829855,7.5,22.0,34.0,25.70992026436488,{}
139,485,8.06225774829855,74.16872656315464,8.06225774829855,13.152946437965904,20.09975124224178,21.02379604162864,32.2490309931942,61.5223536610881,48.373546489791295,44.0,55.0,50.0,20.5,8.5,4.5,13.5,5.830951894845301,6.082762530298219,6.0,17.0,32.0,29.8328677803526,{}
140,486,10.04987562112089,73.10950690573696,9.055385138137416,13.152946437965904,21.095023109728988,22.0,31.14482300479488,63.38769596696192,50.24937810560445,45.0,53.0,49.0,20.0,12.0,1.0,12.0,7.615773105863909,8.246211251235321,7.5,19.0,33.0,29.61418578992169,{}
141,487,10.0,74.24284477308234,9.219544457292889,13.152946437965904,21.095023109728988,21.02379604162864,31.14482300479488,63.38769596696192,50.24937810560445,45.0,55.0,49.0,21.0,11.0,2.0,13.0,7.280109889280518,7.071067811865476,7.0,20.0,32.0,30.4138126514911,{}
142,488,9.055385138137416,74.10802925459562,9.219544457292889,10.198039027185567,20.024984394500787,20.024984394500787,31.14482300479488,59.53990258641679,49.36598018878993,44.5,53.0,49.0,20.0,8.0,3.0,12.0,8.246211251235321,8.06225774829855,8.0,20.0,33.0,30.4138126514911,{}
143,489,1.0,77.1621668954417,9.055385138137416,10.198039027185567,20.024984394500787,21.02379604162864,33.37663853655727,53.60037313302959,43.41658669218482,42.5,52.0,47.0,16.5,3.5,7.5,8.5,8.54400374531753,8.246211251235321,7.5,19.0,31.0,24.73863375370596,{}
144,490,2.0,82.15229759416349,7.071067811865476,9.219544457292889,22.02271554554524,21.095023109728988,33.37663853655727,47.67598976424087,38.47076812334269,39.0,51.0,46.0,15.5,1.5,10.5,9.5,8.246211251235321,8.06225774829855,7.5,19.0,31.0,28.442925306655784,{}
145,491,0.0,88.2779700718135,7.071067811865476,12.041594578792296,22.02271554554524,22.09072203437452,34.36568055487916,53.46026561849464,41.43669871020132,41.0,53.0,46.0,15.5,3.5,8.5,9.5,9.219544457292889,9.219544457292889,9.0,22.0,35.0,34.36568055487916,{}
146,492,0.0,83.38465086573187,7.071067811865476,12.041594578792296,21.02379604162864,21.095023109728988,33.24154027718932,52.3450093132096,40.311288741492746,40.0,52.0,44.0,15.0,4.0,8.0,9.0,7.280109889280518,8.246211251235321,7.5,19.0,33.0,32.38826948140329,{}
147,493,1.0,83.2946576918352,9.219544457292889,13.152946437965904,21.095023109728988,22.02271554554524,33.24154027718932,55.44366510251645,42.2965719651132,42.0,53.0,46.0,16.5,5.5,7.5,9.5,9.219544457292889,9.219544457292889,9.0,24.0,37.0,32.38826948140329,{}
148,494,1.4142135623730951,84.29116205154607,9.055385138137416,12.16552506059644,23.08679276123039,23.08679276123039,33.24154027718932,55.326304774492215,43.18564576337837,42.5,54.0,47.0,17.5,4.5,8.5,10.5,9.219544457292889,9.219544457292889,9.0,21.0,34.0,34.23448553724738,{}
149,495,1.4142135623730951,83.38465086573187,9.055385138137416,11.180339887498947,22.09072203437452,23.08679276123039,31.25699921617557,52.3450093132096,41.19465984809196,40.5,53.0,45.0,18.0,3.0,9.0,10.0,9.219544457292889,9.055385138137416,8.5,22.0,35.0,33.24154027718932,{}
150,496,1.0,80.05623023850174,7.280109889280518,11.180339887498947,21.02379604162864,21.02379604162864,31.400636936215164,49.64876634922564,38.47076812334269,38.0,48.0,45.0,15.5,2.5,9.5,9.5,9.219544457292889,10.04987562112089,9.0,22.0,32.0,28.284271247461906,{}
151,497,1.4142135623730951,80.22468448052632,8.06225774829855,10.198039027185567,21.095023109728988,22.02271554554524,31.400636936215164,48.507731342539614,38.3275357934736,38.5,50.0,44.0,16.0,1.0,9.0,10.0,7.280109889280518,9.055385138137416,8.5,24.0,35.0,35.35533905932738,{}
152,498,2.23606797749979,80.09993757800315,10.198039027185567,9.055385138137416,21.02379604162864,21.02379604162864,31.25699921617557,52.3450093132096,43.28972164382672,42.0,50.0,46.0,17.0,4.0,6.0,8.0,10.44030650891055,11.04536101718726,10.0,23.0,36.0,40.311288741492746,{}
153,499,4.123105625617661,82.49242389456137,10.198039027185567,9.055385138137416,23.08679276123039,23.08679276123039,31.400636936215164,54.45181356024793,45.39823785126467,43.0,55.0,46.0,19.5,3.5,5.5,11.5,10.198039027185567,12.16552506059644,11.0,24.0,36.0,40.311288741492746,{}
154,500,5.0,82.38931969618392,11.180339887498947,11.04536101718726,21.095023109728988,23.08679276123039,30.4138126514911,57.55866572463264,46.52956049652737,43.5,55.0,47.0,21.0,6.0,6.0,12.0,10.198039027185567,11.180339887498947,10.5,27.0,38.0,41.30375285612676,{}
155,501,6.082762530298219,81.39410298049853,10.198039027185567,9.219544457292889,22.09072203437452,23.08679276123039,28.442925306655784,53.60037313302959,44.40720662234904,41.0,53.0,45.0,21.0,4.0,5.0,13.0,10.198039027185567,11.180339887498947,10.5,23.0,34.0,40.311288741492746,{}
156,502,3.0,79.63039620647382,8.06225774829855,9.055385138137416,23.194827009486403,23.345235059857504,28.284271247461906,48.373546489791295,39.319206502675,37.5,53.0,43.0,20.0,0.0,8.0,13.0,10.198039027185567,11.180339887498947,10.5,22.0,33.0,35.510561809129406,{}
157,503,4.123105625617661,76.10519036176179,8.246211251235321,10.04987562112089,22.09072203437452,23.194827009486403,26.30589287593181,48.373546489791295,38.3275357934736,36.0,46.0,42.0,18.0,4.0,5.0,11.0,7.280109889280518,8.06225774829855,8.0,24.0,35.0,33.54101966249684,{}
158,504,5.0990195135927845,79.02531240052139,8.06225774829855,9.219544457292889,22.02271554554524,23.08679276123039,27.29468812791236,49.36598018878993,40.19950248448356,37.5,46.0,44.0,18.0,4.0,5.0,11.0,10.198039027185567,10.198039027185567,9.5,24.0,35.0,40.44749683231337,{}
159,505,2.23606797749979,80.05623023850174,8.246211251235321,11.180339887498947,22.02271554554524,22.09072203437452,30.26549190084312,51.47815070493501,40.311288741492746,39.0,49.0,46.0,17.5,3.5,7.5,10.5,10.44030650891055,11.180339887498947,10.5,27.0,38.0,37.48332962798263,{}
160,506,2.23606797749979,79.05694150420949,10.04987562112089,12.041594578792296,20.024984394500787,21.0,32.2490309931942,56.22277118748239,44.181444068749045,43.0,50.0,47.0,16.5,7.5,5.5,7.5,9.486832980505138,11.04536101718726,10.0,26.0,38.0,40.44749683231337,{}
161,507,2.0,83.09632964216891,9.055385138137416,12.041594578792296,19.026297590440446,21.02379604162864,33.24154027718932,56.32051136131489,44.28317965096906,43.0,51.0,47.0,16.0,7.0,5.0,8.0,10.198039027185567,10.198039027185567,10.0,26.0,37.0,40.311288741492746,{}
162,508,2.23606797749979,77.1621668954417,9.219544457292889,13.038404810405298,21.02379604162864,22.09072203437452,32.2490309931942,55.22680508593631,42.190046219457976,41.5,51.0,46.0,16.5,6.5,6.5,8.5,9.219544457292889,10.198039027185567,9.5,24.0,35.0,38.3275357934736,{}
163,509,2.23606797749979,80.09993757800315,9.055385138137416,11.180339887498947,21.02379604162864,22.02271554554524,31.400636936215164,53.46026561849464,42.2965719651132,41.0,51.0,47.0,18.0,4.0,8.0,10.0,10.04987562112089,11.180339887498947,10.5,28.0,39.0,41.30375285612676,{}
164,510,1.4142135623730951,82.05485969764375,9.055385138137416,10.198039027185567,21.095023109728988,22.02271554554524,33.24154027718932,53.33854141237835,43.18564576337837,42.5,50.0,47.0,15.5,4.5,6.5,8.5,9.219544457292889,9.219544457292889,8.5,26.0,37.0,40.311288741492746,{}
165,511,1.0,82.00609733428362,9.055385138137416,9.219544457292889,22.0,22.02271554554524,30.26549190084312,49.49747468305833,40.311288741492746,39.5,46.0,45.0,15.5,3.5,6.5,7.5,10.44030650891055,11.180339887498947,10.0,29.0,39.0,39.319206502675,{}
166,512,1.4142135623730951,85.00588214941364,9.055385138137416,10.04987562112089,23.021728866442675,24.020824298928627,29.42787793912432,49.36598018878993,39.319206502675,38.5,47.0,46.0,17.5,2.5,8.5,9.5,9.219544457292889,10.04987562112089,10.0,29.0,39.0,37.48332962798263,{}
167,513,1.0,84.02380615040002,9.0,10.0,23.021728866442675,24.08318915758459,28.284271247461906,47.09564735726647,37.12142238654117,37.0,46.0,44.0,17.0,2.0,8.0,9.0,8.06225774829855,9.219544457292889,9.0,25.0,36.0,38.3275357934736,{}
168,514,2.23606797749979,86.05230967266364,9.219544457292889,8.06225774829855,23.08679276123039,24.020824298928627,27.29468812791236,46.389654018972806,38.3275357934736,37.0,47.0,44.0,18.5,0.5,8.5,10.5,9.219544457292889,10.04987562112089,9.5,21.0,33.0,38.47076812334269,{}
169,515,1.4142135623730951,83.00602387778854,9.055385138137416,10.04987562112089,21.02379604162864,22.02271554554524,29.154759474226505,49.16299421312742,39.11521443121589,38.5,46.0,45.0,16.5,3.5,7.5,9.5,8.246211251235321,10.198039027185567,9.5,24.0,36.0,36.345563690772494,{}
170,516,3.605551275463989,79.02531240052139,8.06225774829855,10.04987562112089,22.02271554554524,23.08679276123039,30.26549190084312,51.15662224971465,41.10960958218893,39.5,47.0,45.0,16.0,5.0,6.0,9.0,8.246211251235321,9.219544457292889,9.0,25.0,37.0,39.20459156782532,{}
171,517,2.23606797749979,83.15046602394962,9.219544457292889,11.04536101718726,23.021728866442675,23.021728866442675,32.2490309931942,53.23532661682466,42.190046219457976,41.5,53.0,48.0,18.5,2.5,9.5,10.5,9.219544457292889,10.198039027185567,9.5,24.0,36.0,37.21558813185679,{}
172,518,1.4142135623730951,79.1012010022604,8.06225774829855,8.06225774829855,20.024984394500787,21.0,32.38826948140329,49.36598018878993,41.30375285612676,40.5,51.0,47.0,17.0,0.0,10.0,10.0,10.198039027185567,11.180339887498947,10.5,26.0,37.0,41.19465984809196,{}
173,519,1.0,77.00649323271382,9.055385138137416,8.06225774829855,20.0,20.0,29.42787793912432,46.389654018972806,38.3275357934736,38.0,46.0,45.0,16.5,0.5,8.5,7.5,11.180339887498947,11.180339887498947,11.0,29.0,39.0,47.16990566028302,{}
174,520,1.0,84.09518416651456,10.04987562112089,12.0,21.095023109728988,22.02271554554524,29.27456233660889,50.24937810560445,38.3275357934736,38.5,48.0,44.0,17.0,4.0,9.0,9.0,10.198039027185567,10.44030650891055,9.5,23.0,34.0,39.11521443121589,{}
175,521,2.0,81.0,9.055385138137416,11.04536101718726,23.021728866442675,23.021728866442675,29.42787793912432,51.47815070493501,40.44749683231337,39.0,44.0,44.0,15.0,7.0,5.0,7.0,9.219544457292889,9.219544457292889,8.5,26.0,37.0,37.33630940518894,{}
176,522,2.0,83.05419917138447,9.055385138137416,10.04987562112089,23.021728866442675,24.08318915758459,30.26549190084312,51.35172830587107,41.30375285612676,40.0,49.0,46.0,17.5,3.5,7.5,9.5,7.280109889280518,9.219544457292889,8.5,24.0,38.0,35.90264614203248,{}
177,523,2.23606797749979,80.02499609497022,11.180339887498947,11.180339887498947,22.02271554554524,23.021728866442675,30.14962686336267,54.3323108288245,43.18564576337837,42.0,50.0,48.0,19.0,5.0,6.0,9.0,4.47213595499958,6.082762530298219,5.5,22.0,36.0,42.579337712087536,{}
178,524,5.0990195135927845,79.1012010022604,10.04987562112089,10.04987562112089,22.09072203437452,24.08318915758459,31.400636936215164,56.56854249492381,46.52956049652737,43.5,53.0,49.0,20.0,5.0,5.0,11.0,8.06225774829855,6.0,6.0,25.0,38.0,36.6742416417845,{}
179,525,9.0,75.23961722390672,9.055385138137416,10.198039027185567,21.095023109728988,22.09072203437452,30.4138126514911,58.54912467321779,48.373546489791295,43.5,54.0,48.0,21.0,7.0,3.0,12.0,5.385164807134504,6.082762530298219,5.5,23.0,36.0,39.45883931389772,{}
180,526,6.0,76.16429609731846,10.198039027185567,10.198039027185567,22.20360331117452,23.08679276123039,30.26549190084312,56.56854249492381,46.389654018972806,43.0,54.0,49.0,21.5,4.5,4.5,13.5,7.615773105863909,9.055385138137416,8.0,26.0,39.0,42.7551166528639,{}
181,527,9.0,75.16648189186454,8.06225774829855,10.198039027185567,20.024984394500787,21.095023109728988,32.38826948140329,59.53990258641679,49.36598018878993,44.5,54.0,49.0,19.5,7.5,2.5,11.5,6.324555320336759,8.246211251235321,7.5,24.0,38.0,43.56604182158393,{}
182,528,8.0,78.10249675906654,10.198039027185567,10.198039027185567,22.09072203437452,24.08318915758459,30.26549190084312,58.54912467321779,48.373546489791295,44.0,52.0,48.0,20.0,8.0,2.0,11.0,8.246211251235321,9.055385138137416,8.5,24.0,38.0,37.65634076752546,{}
183,529,6.0,76.16429609731846,9.219544457292889,11.180339887498947,21.095023109728988,22.09072203437452,31.25699921617557,57.55866572463264,46.389654018972806,43.0,52.0,47.0,18.5,7.5,3.5,11.5,8.246211251235321,10.198039027185567,9.5,22.0,35.0,39.6232255123179,{}
184,530,6.0,78.10249675906654,9.055385138137416,12.16552506059644,22.02271554554524,23.0,30.26549190084312,57.42821606144492,45.27692569068709,42.0,51.0,47.0,19.0,8.0,5.0,11.0,8.246211251235321,8.246211251235321,8.5,26.0,37.0,41.30375285612676,{}
185,531,2.23606797749979,79.05694150420949,10.198039027185567,9.219544457292889,21.095023109728988,22.09072203437452,30.26549190084312,51.47815070493501,42.2965719651132,41.0,50.0,47.0,18.5,2.5,6.5,9.5,8.246211251235321,9.219544457292889,9.0,25.0,37.0,42.2965719651132,{}
186,532,4.0,77.10382610480494,9.055385138137416,10.198039027185567,21.095023109728988,22.09072203437452,31.25699921617557,54.45181356024793,44.28317965096906,42.0,51.0,47.0,18.0,5.0,6.0,10.0,9.219544457292889,10.04987562112089,9.5,24.0,37.0,36.49657518178932,{}
187,533,2.0,77.1621668954417,9.055385138137416,10.198039027185567,20.09975124224178,21.095023109728988,31.25699921617557,52.46903848937962,42.2965719651132,41.0,52.0,47.0,18.5,2.5,7.5,10.5,11.180339887498947,10.04987562112089,9.5,29.0,38.0,38.3275357934736,{}
188,534,5.0990195135927845,75.16648189186454,8.246211251235321,10.198039027185567,21.095023109728988,21.095023109728988,31.14482300479488,54.3323108288245,44.181444068749045,41.5,52.0,47.0,18.5,4.5,5.5,11.5,9.219544457292889,9.219544457292889,8.5,27.0,39.0,39.20459156782532,{}
189,535,5.0,78.05767098754612,9.219544457292889,10.04987562112089,21.02379604162864,21.02379604162864,30.066592756745816,54.230987451824994,44.181444068749045,41.5,50.0,47.0,18.5,5.5,5.5,10.5,9.486832980505138,10.198039027185567,9.5,31.0,43.0,52.3450093132096,{}
190,536,4.123105625617661,77.05841939723393,10.198039027185567,11.180339887498947,19.1049731745428,21.0,30.14962686336267,55.326304774492215,44.181444068749045,42.0,50.0,47.0,18.5,6.5,5.5,9.5,9.219544457292889,10.04987562112089,9.5,28.0,40.0,42.42640687119285,{}
191,537,3.0,77.00649323271382,9.219544457292889,10.04987562112089,21.095023109728988,23.021728866442675,31.064449134018133,53.23532661682466,43.18564576337837,41.5,49.0,48.0,17.5,4.5,6.5,10.5,9.219544457292889,10.198039027185567,10.0,32.0,44.0,47.51841748206689,{}
192,538,2.23606797749979,82.05485969764375,9.055385138137416,10.04987562112089,21.02379604162864,22.02271554554524,31.14482300479488,52.15361924162119,42.1070065428546,41.0,49.0,46.0,16.5,4.5,6.5,9.5,10.198039027185567,11.180339887498947,10.5,30.0,42.0,41.30375285612676,{}
193,539,2.23606797749979,80.00624975587844,9.219544457292889,11.04536101718726,21.02379604162864,22.0,31.25699921617557,53.33854141237835,42.2965719651132,41.0,48.0,47.0,16.5,5.5,7.5,8.5,9.219544457292889,10.198039027185567,10.0,29.0,42.0,42.2965719651132,{}
194,540,1.4142135623730951,84.0535543567314,9.055385138137416,12.041594578792296,21.02379604162864,22.0,32.14031735997639,54.147945482723536,42.1070065428546,41.5,50.0,47.0,16.5,5.5,7.5,8.5,11.04536101718726,11.180339887498947,11.0,32.0,43.0,53.33854141237835,{}
195,541,1.0,83.02409288875127,9.055385138137416,12.041594578792296,19.026297590440446,20.0,32.2490309931942,52.3450093132096,40.311288741492746,40.5,48.0,46.0,15.0,5.0,8.0,8.0,9.219544457292889,10.04987562112089,10.0,30.0,41.0,50.35871324805669,{}
196,542,1.4142135623730951,78.00640999302557,9.055385138137416,12.041594578792296,19.0,20.0,31.14482300479488,53.150729063673246,41.10960958218893,40.5,47.0,46.0,15.5,6.5,6.5,7.5,9.219544457292889,11.180339887498947,10.5,27.0,42.0,43.56604182158393,{}
197,543,1.4142135623730951,85.00588214941364,9.055385138137416,10.04987562112089,20.0,21.0,32.14031735997639,52.15361924162119,42.1070065428546,41.5,49.0,48.0,16.5,3.5,7.5,8.5,9.219544457292889,12.16552506059644,11.0,30.0,43.0,40.311288741492746,{}
198,544,1.4142135623730951,83.02409288875127,9.055385138137416,11.04536101718726,21.02379604162864,22.0,30.066592756745816,51.0881590977792,40.049968789001575,39.5,47.0,45.0,16.0,5.0,7.0,8.0,9.219544457292889,10.198039027185567,10.0,29.0,41.0,42.2965719651132,{}
199,545,2.23606797749979,82.09750300709517,10.198039027185567,11.04536101718726,22.0,23.021728866442675,28.284271247461906,50.24937810560445,39.20459156782532,38.5,48.0,44.0,18.0,4.0,8.0,9.0,9.219544457292889,12.16552506059644,11.5,28.0,42.0,45.5411901469428,{}
200,546,1.0,85.21150157109074,9.055385138137416,13.152946437965904,22.09072203437452,24.08318915758459,27.29468812791236,50.48762224545735,37.33630940518894,36.5,49.0,43.0,19.0,4.0,8.0,10.0,8.246211251235321,9.219544457292889,9.0,30.0,44.0,44.553338819890925,{}
201,547,3.1622776601683795,75.0,8.246211251235321,11.04536101718726,21.0,21.0,27.459060435491963,49.49747468305833,38.47076812334269,36.5,42.0,42.0,15.0,7.0,6.0,7.0,8.246211251235321,10.198039027185567,9.5,27.0,40.0,38.47076812334269,{}
202,548,1.0,85.05292469985967,9.055385138137416,11.04536101718726,22.02271554554524,23.0,29.42787793912432,50.48762224545735,39.45883931389772,38.5,47.0,44.0,16.5,4.5,7.5,8.5,9.055385138137416,9.055385138137416,9.5,25.0,38.0,43.41658669218482,{}
203,549,2.0,83.02409288875127,9.055385138137416,11.04536101718726,22.02271554554524,23.08679276123039,27.459060435491963,49.49747468305833,38.47076812334269,37.0,44.0,42.0,16.0,6.0,7.0,8.0,10.198039027185567,12.16552506059644,11.0,25.0,37.0,39.6232255123179,{}
204,550,1.0,84.00595217006948,10.04987562112089,12.041594578792296,22.02271554554524,24.08318915758459,27.459060435491963,50.48762224545735,38.47076812334269,37.5,43.0,42.0,15.5,7.5,5.5,7.5,10.198039027185567,10.04987562112089,9.5,25.0,36.0,41.593268686170845,{}
205,551,1.4142135623730951,82.09750300709517,8.06225774829855,12.16552506059644,23.08679276123039,23.194827009486403,28.284271247461906,49.64876634922564,37.48332962798263,36.5,46.0,42.0,16.0,5.0,8.0,10.0,8.06225774829855,9.055385138137416,9.0,23.0,36.0,32.28002478313795,{}
206,552,0.0,81.02468759581859,9.055385138137416,10.04987562112089,21.0,22.0,27.65863337187866,46.69047011971501,36.6742416417845,36.0,44.0,42.0,16.0,3.0,8.0,8.0,9.219544457292889,10.04987562112089,10.0,26.0,39.0,35.17101079013795,{}
207,553,2.23606797749979,82.02438661763951,8.246211251235321,10.04987562112089,24.020824298928627,24.020824298928627,28.16025568065745,48.25971404805462,38.2099463490856,37.0,44.0,42.0,15.0,5.0,6.0,8.0,9.219544457292889,10.198039027185567,9.0,25.0,38.0,40.024992192379,{}
208,554,2.0,88.20430828479978,9.055385138137416,13.038404810405298,24.020824298928627,24.08318915758459,28.284271247461906,50.15974481593781,37.12142238654117,37.0,48.0,42.0,17.0,5.0,8.0,9.0,11.04536101718726,11.180339887498947,11.0,25.0,37.0,40.60788100849391,{}
209,555,1.0,79.05694150420949,9.055385138137416,10.04987562112089,21.02379604162864,23.021728866442675,28.284271247461906,48.373546489791295,38.3275357934736,37.5,45.0,42.0,15.5,4.5,6.5,7.5,10.198039027185567,12.36931687685298,11.0,26.0,38.0,41.593268686170845,{}
210,556,2.23606797749979,87.14355971613737,9.055385138137416,10.04987562112089,23.021728866442675,24.08318915758459,27.29468812791236,48.25971404805462,38.2099463490856,37.0,47.0,42.0,17.5,3.5,7.5,9.5,10.198039027185567,11.180339887498947,10.5,28.0,39.0,41.43669871020132,{}
211,557,3.1622776601683795,82.05485969764375,8.06225774829855,11.04536101718726,21.02379604162864,23.021728866442675,29.42787793912432,51.35172830587107,40.311288741492746,38.5,47.0,44.0,16.5,5.5,6.5,9.5,10.198039027185567,11.180339887498947,10.5,27.0,38.0,41.0,{}
212,558,2.23606797749979,84.09518416651456,9.055385138137416,11.04536101718726,23.021728866442675,23.08679276123039,28.284271247461906,50.24937810560445,39.20459156782532,38.0,48.0,44.0,18.0,4.0,7.0,10.0,10.198039027185567,12.16552506059644,11.0,25.0,38.0,41.43669871020132,{}
213,559,3.0,86.05230967266364,9.055385138137416,10.04987562112089,22.02271554554524,24.08318915758459,29.61418578992169,51.62363799656123,41.593268686170845,39.5,48.0,45.0,17.5,4.5,6.5,9.5,9.219544457292889,10.198039027185567,9.5,27.0,39.0,38.63935817272331,{}
214,560,5.0,84.29116205154607,8.06225774829855,10.04987562112089,23.021728866442675,24.186773244895647,28.284271247461906,51.35172830587107,41.30375285612676,38.5,50.0,43.0,18.5,4.5,4.5,10.5,10.198039027185567,11.180339887498947,10.5,26.0,39.0,43.41658669218482,{}
215,561,3.1622776601683795,87.20665112249179,10.04987562112089,10.04987562112089,23.021728866442675,24.08318915758459,27.459060435491963,50.35871324805669,40.311288741492746,38.5,50.0,44.0,20.0,3.0,7.0,11.0,9.055385138137416,10.198039027185567,9.5,24.0,37.0,42.42640687119285,{}
216,562,6.0,84.09518416651456,9.055385138137416,11.04536101718726,23.08679276123039,23.021728866442675,28.442925306655784,54.45181356024793,43.41658669218482,40.0,49.0,45.0,19.0,7.0,4.0,11.0,10.198039027185567,10.198039027185567,9.5,26.0,37.0,42.579337712087536,{}
217,563,4.0,84.09518416651456,9.055385138137416,9.219544457292889,22.09072203437452,23.021728866442675,28.635642126552707,50.80354318352215,41.593268686170845,39.0,48.0,44.0,18.0,4.0,6.0,11.0,10.198039027185567,10.198039027185567,9.5,25.0,38.0,39.81205847478876,{}
218,564,0.0,83.05419917138447,9.219544457292889,10.04987562112089,22.09072203437452,23.021728866442675,29.42787793912432,48.66210024238576,38.63935817272331,38.0,47.0,44.0,16.5,2.5,8.5,9.5,12.041594578792296,11.180339887498947,11.0,27.0,39.0,44.553338819890925,{}
219,565,1.0,85.14693182963201,9.219544457292889,9.219544457292889,23.08679276123039,23.08679276123039,28.635642126552707,48.05205510693585,38.8329756778952,37.5,46.0,41.0,15.5,3.5,6.5,8.5,10.198039027185567,10.198039027185567,10.0,24.0,37.0,40.60788100849391,{}
220,566,1.0,85.09406559801923,9.055385138137416,11.04536101718726,22.02271554554524,22.02271554554524,29.61418578992169,50.635955604688654,39.6232255123179,38.5,48.0,44.0,17.0,4.0,8.0,9.0,9.219544457292889,10.198039027185567,9.5,24.0,36.0,34.52535300326414,{}
221,567,1.4142135623730951,80.09993757800315,8.06225774829855,9.055385138137416,22.02271554554524,23.08679276123039,29.42787793912432,47.38143096192854,38.3275357934736,37.5,47.0,43.0,16.0,2.0,7.0,9.0,10.198039027185567,12.16552506059644,11.0,25.0,38.0,37.8549864614954,{}
222,568,1.0,78.16009211867653,9.055385138137416,10.04987562112089,21.095023109728988,22.09072203437452,29.61418578992169,48.507731342539614,38.47076812334269,38.0,47.0,42.0,15.5,3.5,7.5,8.5,10.04987562112089,11.180339887498947,10.5,25.0,39.0,40.79215610874228,{}
223,569,1.0,79.1012010022604,8.246211251235321,11.04536101718726,20.09975124224178,21.095023109728988,28.442925306655784,48.66210024238576,37.65634076752546,36.5,45.0,41.0,15.0,5.0,6.0,8.0,10.198039027185567,10.198039027185567,9.5,27.0,37.0,41.593268686170845,{}
224,570,2.0,83.05419917138447,9.219544457292889,10.04987562112089,22.02271554554524,22.02271554554524,29.27456233660889,50.48762224545735,40.44749683231337,39.0,48.0,45.0,17.5,3.5,7.5,9.5,9.055385138137416,10.198039027185567,9.5,26.0,38.0,40.311288741492746,{}
225,571,1.0,82.29823813423954,10.04987562112089,12.16552506059644,22.09072203437452,23.08679276123039,28.442925306655784,50.48762224545735,38.3275357934736,38.0,49.0,42.0,17.5,4.5,7.5,9.5,9.219544457292889,11.180339887498947,10.5,26.0,39.0,43.41658669218482,{}
226,572,4.0,80.05623023850174,9.055385138137416,11.04536101718726,21.02379604162864,23.08679276123039,28.442925306655784,52.46903848937962,41.43669871020132,39.0,48.0,45.0,18.5,5.5,6.5,10.5,10.198039027185567,11.180339887498947,10.5,25.0,39.0,41.97618372363071,{}
227,573,5.0,85.09406559801923,8.246211251235321,11.04536101718726,23.08679276123039,23.194827009486403,27.459060435491963,51.62363799656123,40.60788100849391,37.5,48.0,44.0,19.0,5.0,6.0,12.0,11.180339887498947,12.36931687685298,11.0,26.0,38.0,39.81205847478876,{}
228,574,5.0990195135927845,82.15229759416349,9.219544457292889,8.246211251235321,23.021728866442675,24.186773244895647,27.459060435491963,49.64876634922564,41.43669871020132,38.5,49.0,44.0,19.5,2.5,5.5,11.5,10.198039027185567,11.40175425099138,10.5,24.0,37.0,44.40720662234904,{}
229,575,6.0,85.09406559801923,9.055385138137416,9.219544457292889,23.021728866442675,24.08318915758459,27.29468812791236,51.47815070493501,42.2965719651132,39.0,48.0,44.0,19.0,5.0,5.0,11.0,11.04536101718726,12.16552506059644,11.0,25.0,37.0,42.7551166528639,{}
230,576,6.082762530298219,83.09632964216891,9.055385138137416,11.180339887498947,24.020824298928627,24.08318915758459,27.65863337187866,53.60037313302959,42.42640687119285,39.0,48.0,44.0,19.0,7.0,4.0,11.0,10.198039027185567,11.180339887498947,10.5,27.0,38.0,43.41658669218482,{}
231,577,8.06225774829855,81.15417426109393,9.055385138137416,8.246211251235321,23.021728866442675,24.08318915758459,27.65863337187866,52.61178575186362,44.40720662234904,40.0,50.0,45.0,20.5,4.5,3.5,12.5,10.04987562112089,11.180339887498947,10.5,26.0,40.0,38.8329756778952,{}
232,578,7.071067811865476,87.14355971613737,9.219544457292889,9.055385138137416,23.021728866442675,25.079872407968907,28.442925306655784,53.46026561849464,44.40720662234904,40.5,52.0,47.0,21.5,3.5,5.5,13.5,10.198039027185567,11.180339887498947,10.5,28.0,40.0,43.41658669218482,{}
233,579,8.06225774829855,80.30566605165541,9.055385138137416,11.180339887498947,22.09072203437452,23.021728866442675,27.29468812791236,55.57877292636101,44.40720662234904,40.0,52.0,45.0,21.5,6.5,4.5,13.5,11.180339887498947,11.180339887498947,10.5,27.0,39.0,44.40720662234904,{}
234,580,9.0,83.2946576918352,8.06225774829855,9.219544457292889,25.079872407968907,26.0768096208106,27.29468812791236,53.46026561849464,44.28317965096906,39.5,52.0,45.0,21.5,4.5,4.5,14.5,9.219544457292889,11.04536101718726,10.0,26.0,37.0,45.5411901469428,{}
235,581,10.0,82.21921916437786,8.246211251235321,10.198039027185567,23.08679276123039,24.186773244895647,27.459060435491963,55.731499172371095,45.5411901469428,40.0,51.0,45.0,21.0,7.0,4.0,14.0,9.219544457292889,10.198039027185567,9.5,26.0,40.0,42.7551166528639,{}
236,582,7.0,83.2946576918352,9.055385138137416,10.04987562112089,22.09072203437452,23.021728866442675,27.459060435491963,53.46026561849464,43.41658669218482,39.5,52.0,45.0,21.5,4.5,5.5,13.5,11.180339887498947,11.180339887498947,10.5,30.0,41.0,46.2709412050371,{}
237,583,6.082762530298219,83.21658488546619,9.219544457292889,11.180339887498947,23.021728866442675,24.08318915758459,27.29468812791236,53.46026561849464,42.2965719651132,39.0,50.0,44.0,20.0,6.0,5.0,12.0,10.198039027185567,11.04536101718726,10.5,28.0,42.0,36.87817782917155,{}
238,584,4.0,83.02409288875127,8.06225774829855,11.180339887498947,23.021728866442675,22.09072203437452,27.459060435491963,50.635955604688654,39.45883931389772,37.0,47.0,45.0,19.0,4.0,7.0,12.0,10.198039027185567,11.180339887498947,10.5,25.0,40.0,38.3275357934736,{}
239,585,3.0,81.05553651663777,8.06225774829855,11.04536101718726,22.02271554554524,22.09072203437452,26.476404589747453,48.507731342539614,37.48332962798263,35.5,46.0,43.0,18.5,3.5,7.5,11.5,11.180339887498947,12.041594578792296,11.5,27.0,39.0,42.579337712087536,{}
240,586,2.23606797749979,82.02438661763951,8.06225774829855,11.180339887498947,23.021728866442675,24.08318915758459,27.459060435491963,48.507731342539614,37.33630940518894,36.0,48.0,46.0,20.0,1.0,10.0,12.0,10.198039027185567,11.180339887498947,10.5,26.0,38.0,41.77319714841085,{}
241,587,9.055385138137416,82.05485969764375,8.06225774829855,11.180339887498947,22.02271554554524,24.020824298928627,27.459060435491963,55.44366510251645,44.28317965096906,39.5,49.0,46.0,20.5,7.5,4.5,13.5,12.16552506059644,12.16552506059644,11.5,28.0,39.0,42.579337712087536,{}
242,588,10.0,80.22468448052632,10.04987562112089,12.041594578792296,21.02379604162864,22.09072203437452,30.4138126514911,62.39390995922599,50.35871324805669,45.0,55.0,49.0,22.0,10.0,3.0,13.0,12.16552506059644,11.180339887498947,11.0,32.0,44.0,47.38143096192854,{}
243,589,10.0,77.00649323271382,8.06225774829855,10.04987562112089,20.09975124224178,22.02271554554524,30.59411708155671,58.54912467321779,48.507731342539614,43.0,49.0,48.0,18.5,9.5,1.5,11.5,10.04987562112089,11.180339887498947,11.0,26.0,37.0,42.579337712087536,{}
244,590,1.4142135623730951,84.00595217006948,8.06225774829855,11.04536101718726,21.02379604162864,22.02271554554524,32.2490309931942,52.23983154643591,41.19465984809196,40.5,50.0,49.0,17.5,2.5,9.5,10.5,11.180339887498947,12.36931687685298,11.5,30.0,41.0,44.40720662234904,{}
245,591,0.0,83.15046602394962,9.055385138137416,14.0,21.02379604162864,22.0,31.25699921617557,54.230987451824994,40.311288741492746,40.0,52.0,47.0,18.5,4.5,9.5,10.5,12.041594578792296,13.152946437965904,13.0,28.0,39.0,45.27692569068709,{}
246,592,0.0,86.28441342444185,8.06225774829855,14.142135623730953,21.095023109728988,22.09072203437452,31.400636936215164,53.60037313302959,39.45883931389772,39.0,53.0,46.0,18.5,3.5,9.5,11.5,13.152946437965904,13.038404810405298,12.5,28.0,39.0,49.36598018878993,{}
247,593,1.4142135623730951,80.15609770940699,10.04987562112089,14.0356688476182,21.02379604162864,22.09072203437452,31.14482300479488,56.1426753904728,42.1070065428546,41.5,53.0,48.0,19.5,5.5,8.5,10.5,11.04536101718726,13.152946437965904,12.0,27.0,39.0,43.41658669218482,{}
248,594,1.0,84.38009243891595,9.219544457292889,14.317821063276352,21.213203435596427,22.20360331117452,30.26549190084312,54.74486277268398,40.44749683231337,39.5,54.0,46.0,20.0,4.0,9.0,12.0,11.180339887498947,11.04536101718726,11.0,27.0,38.0,44.28317965096906,{}
249,595,1.4142135623730951,88.36288813749809,8.246211251235321,14.142135623730953,21.213203435596427,21.095023109728988,30.26549190084312,53.46026561849464,39.319206502675,38.5,55.0,47.0,21.0,2.0,11.0,14.0,12.16552506059644,13.152946437965904,12.5,31.0,42.0,45.5411901469428,{}
250,596,1.0,88.20430828479978,9.219544457292889,13.038404810405298,21.095023109728988,22.09072203437452,29.068883707497267,51.15662224971465,38.11823710509184,38.0,53.0,47.0,21.0,1.0,12.0,13.0,10.198039027185567,12.16552506059644,11.5,27.0,42.0,42.7551166528639,{}
251,597,0.0,83.38465086573187,10.04987562112089,14.0356688476182,21.095023109728988,22.20360331117452,28.284271247461906,52.3450093132096,38.3275357934736,38.0,52.0,44.0,20.0,4.0,9.0,11.0,10.198039027185567,12.16552506059644,11.0,29.0,41.0,43.41658669218482,{}
252,598,3.1622776601683795,86.37129152675674,10.198039027185567,13.152946437965904,21.213203435596427,22.20360331117452,29.27456233660889,55.44366510251645,42.2965719651132,40.5,55.0,47.0,22.0,4.0,8.0,13.0,14.142135623730953,13.038404810405298,12.5,32.0,44.0,52.46903848937962,{}
253,599,3.1622776601683795,87.28115489611719,11.180339887498947,14.0356688476182,22.20360331117452,23.08679276123039,28.16025568065745,56.22277118748239,42.190046219457976,40.5,53.0,46.0,21.5,6.5,7.5,12.5,10.04987562112089,11.180339887498947,10.5,31.0,44.0,42.2965719651132,{}
254,600,6.082762530298219,86.09297300012354,10.04987562112089,13.038404810405298,22.02271554554524,24.08318915758459,28.16025568065745,57.14017850864661,44.10215414239989,41.0,51.0,47.0,21.0,8.0,5.0,12.0,10.198039027185567,11.180339887498947,10.5,31.0,45.0,43.41658669218482,{}
255,601,2.0,85.28774824088158,11.04536101718726,13.038404810405298,22.02271554554524,23.08679276123039,30.14962686336267,56.22277118748239,43.18564576337837,42.0,54.0,47.0,20.5,5.5,7.5,10.5,12.041594578792296,13.152946437965904,12.5,30.0,44.0,51.35172830587107,{}
256,602,2.23606797749979,91.35097153287424,8.06225774829855,13.152946437965904,23.194827009486403,23.194827009486403,31.25699921617557,54.589376255824725,41.43669871020132,40.0,53.0,45.0,18.0,5.0,7.0,11.0,10.198039027185567,11.180339887498947,10.5,30.0,44.0,50.35871324805669,{}
257,603,2.0,86.28441342444185,8.06225774829855,12.041594578792296,21.095023109728988,22.09072203437452,31.14482300479488,53.23532661682466,41.19465984809196,40.0,52.0,45.0,17.5,4.5,7.5,10.5,10.198039027185567,11.180339887498947,10.5,29.0,42.0,49.36598018878993,{}
258,604,1.4142135623730951,86.37129152675674,10.04987562112089,12.041594578792296,23.021728866442675,23.08679276123039,31.064449134018133,54.08326913195984,42.04759208325728,41.5,54.0,46.0,19.0,4.0,8.0,10.0,10.198039027185567,11.04536101718726,10.5,30.0,44.0,44.28317965096906,{}
259,605,1.4142135623730951,89.35882720806042,9.055385138137416,14.0356688476182,22.02271554554524,23.021728866442675,32.14031735997639,56.1426753904728,42.1070065428546,41.5,54.0,46.0,18.0,6.0,8.0,10.0,12.041594578792296,13.152946437965904,12.5,32.0,45.0,57.21887800367987,{}
260,606,1.4142135623730951,89.35882720806042,9.055385138137416,13.038404810405298,22.02271554554524,23.08679276123039,32.2490309931942,55.22680508593631,42.190046219457976,41.5,53.0,45.0,17.0,6.0,7.0,9.0,13.152946437965904,14.0356688476182,13.5,33.0,43.0,49.36598018878993,{}
261,607,2.23606797749979,87.36704184073076,9.055385138137416,14.0356688476182,20.09975124224178,22.09072203437452,30.066592756745816,55.08175741568164,41.04875150354759,40.0,53.0,45.0,19.0,6.0,7.0,11.0,11.180339887498947,12.16552506059644,11.5,36.0,50.0,56.43580423808985,{}
262,608,1.0,81.39410298049853,9.055385138137416,13.038404810405298,20.09975124224178,22.20360331117452,32.14031735997639,54.147945482723536,41.10960958218893,41.0,53.0,45.0,17.0,5.0,8.0,10.0,13.038404810405298,13.038404810405298,13.0,31.0,44.0,48.373546489791295,{}
263,609,2.8284271247461903,87.28115489611719,9.055385138137416,12.0,20.024984394500787,21.095023109728988,30.4138126514911,53.150729063673246,41.19465984809196,40.0,51.0,44.0,17.5,5.5,6.5,9.5,11.180339887498947,12.16552506059644,11.5,30.0,43.0,49.49747468305833,{}
264,610,1.4142135623730951,91.13725912051558,9.0,14.0356688476182,21.02379604162864,22.09072203437452,31.400636936215164,55.22680508593631,41.19465984809196,40.5,52.0,47.0,18.5,5.5,9.5,10.5,11.180339887498947,12.041594578792296,11.5,30.0,43.0,45.39823785126467,{}
265,611,2.0,94.5304183847718,9.219544457292889,13.038404810405298,23.194827009486403,25.079872407968907,29.42787793912432,53.60037313302959,40.60788100849391,39.0,54.0,44.0,20.0,4.0,8.0,12.0,11.180339887498947,11.40175425099138,11.0,29.0,45.0,45.5411901469428,{}
266,612,1.0,82.09750300709517,9.055385138137416,11.180339887498947,19.1049731745428,20.09975124224178,29.42787793912432,50.635955604688654,39.45883931389772,38.5,50.0,46.0,19.0,2.0,9.0,11.0,9.219544457292889,11.180339887498947,10.0,29.0,44.0,40.60788100849391,{}
267,613,3.0,86.28441342444185,10.04987562112089,13.038404810405298,22.09072203437452,23.08679276123039,29.27456233660889,55.326304774492215,42.2965719651132,40.5,51.0,44.0,18.5,7.5,5.5,9.5,13.038404810405298,13.152946437965904,12.5,29.0,42.0,43.56604182158393,{}
268,614,4.0,82.21921916437786,10.04987562112089,11.04536101718726,22.09072203437452,23.021728866442675,30.4138126514911,55.44366510251645,44.40720662234904,42.0,52.0,46.0,19.0,6.0,6.0,10.0,12.16552506059644,12.16552506059644,12.0,30.0,42.0,46.389654018972806,{}
269,615,6.0,83.38465086573187,10.04987562112089,9.219544457292889,22.09072203437452,23.08679276123039,28.861739379323623,53.9351462406472,44.7213595499958,41.0,53.0,45.0,21.0,4.0,6.0,13.0,11.180339887498947,12.16552506059644,11.5,28.0,40.0,43.41658669218482,{}
270,616,7.0,86.37129152675674,9.219544457292889,10.198039027185567,23.08679276123039,23.194827009486403,29.61418578992169,55.90169943749474,45.70557952810576,41.5,54.0,46.0,21.0,5.0,5.0,13.0,12.16552506059644,12.16552506059644,12.0,28.0,41.0,46.52956049652737,{}
271,617,6.0,89.20201791439474,11.04536101718726,11.04536101718726,24.08318915758459,25.079872407968907,28.861739379323623,56.71860364994893,45.70557952810576,42.0,53.0,47.0,22.0,6.0,5.0,12.0,11.04536101718726,13.152946437965904,12.0,27.0,40.0,47.51841748206689,{}
272,618,4.123105625617661,86.37129152675674,11.04536101718726,9.219544457292889,22.20360331117452,24.08318915758459,27.892651361962702,51.78802950489621,42.579337712087536,40.0,52.0,44.0,21.0,3.0,6.0,12.0,13.152946437965904,13.038404810405298,12.0,30.0,41.0,48.25971404805462,{}
273,619,3.1622776601683795,83.38465086573187,10.198039027185567,8.246211251235321,23.194827009486403,24.08318915758459,29.8328677803526,50.99019513592785,42.7551166528639,40.5,53.0,45.0,20.0,1.0,7.0,11.0,13.038404810405298,13.152946437965904,12.5,29.0,40.0,48.25971404805462,{}
274,620,3.0,82.29823813423954,10.04987562112089,9.219544457292889,23.194827009486403,24.08318915758459,29.61418578992169,51.78802950489621,42.579337712087536,40.5,52.0,45.0,19.5,2.5,6.5,11.5,12.16552506059644,11.180339887498947,10.5,29.0,40.0,47.38143096192854,{}
275,621,2.0,87.20665112249179,9.055385138137416,11.04536101718726,25.079872407968907,25.079872407968907,29.120439557122072,50.99019513592785,40.024992192379,38.0,49.0,43.0,18.0,4.0,7.0,10.0,12.041594578792296,13.038404810405298,12.0,27.0,39.0,44.40720662234904,{}
276,622,1.0,85.14693182963201,9.055385138137416,10.04987562112089,22.09072203437452,23.021728866442675,30.083217912982647,50.00999900019995,40.024992192379,38.5,49.0,44.0,17.5,2.5,7.5,9.5,12.041594578792296,12.16552506059644,11.5,27.0,41.0,37.8549864614954,{}
277,623,1.4142135623730951,84.29116205154607,9.055385138137416,8.06225774829855,22.20360331117452,23.08679276123039,29.8328677803526,47.67598976424087,39.6232255123179,38.5,50.0,43.0,17.5,0.5,7.5,10.5,13.152946437965904,12.16552506059644,11.5,32.0,42.0,43.41658669218482,{}
278,624,0.0,87.36704184073076,8.06225774829855,10.04987562112089,22.09072203437452,23.08679276123039,30.59411708155671,48.66210024238576,38.63935817272331,38.0,50.0,42.0,16.0,2.0,8.0,9.0,12.041594578792296,12.16552506059644,11.5,29.0,40.0,42.579337712087536,{}
279,625,1.4142135623730951,92.19544457292888,9.219544457292889,9.055385138137416,23.021728866442675,22.02271554554524,31.575306807693888,48.66210024238576,39.6232255123179,39.5,50.0,44.0,16.0,1.0,8.0,9.0,10.198039027185567,12.36931687685298,11.5,24.0,39.0,43.73785545725808,{}
280,626,1.4142135623730951,91.26883367283708,10.04987562112089,10.04987562112089,22.09072203437452,23.08679276123039,30.59411708155671,51.47815070493501,41.43669871020132,40.5,51.0,44.0,17.5,3.5,6.5,9.5,12.16552506059644,12.36931687685298,12.0,30.0,42.0,42.42640687119285,{}
281,627,1.0,93.34345183246651,9.055385138137416,9.055385138137416,24.08318915758459,24.08318915758459,31.575306807693888,49.49747468305833,40.44749683231337,40.0,52.0,44.0,17.0,1.0,8.0,10.0,13.038404810405298,12.16552506059644,12.0,31.0,43.0,47.51841748206689,{}
282,628,0.0,87.28115489611719,9.055385138137416,12.041594578792296,23.08679276123039,24.08318915758459,30.4138126514911,51.47815070493501,39.45883931389772,39.0,48.0,41.0,14.5,6.5,5.5,7.5,12.041594578792296,12.16552506059644,12.0,28.0,40.0,46.389654018972806,{}
283,629,2.23606797749979,92.19544457292888,10.04987562112089,8.06225774829855,23.021728866442675,24.020824298928627,29.8328677803526,46.52956049652737,38.47076812334269,38.5,49.0,43.0,17.0,0.0,8.0,8.0,12.36931687685298,12.16552506059644,11.5,29.0,41.0,49.36598018878993,{}
284,630,0.0,85.28774824088158,9.055385138137416,9.055385138137416,21.095023109728988,22.02271554554524,30.59411708155671,48.66210024238576,39.6232255123179,39.0,49.0,42.0,15.5,2.5,6.5,8.5,12.16552506059644,12.16552506059644,11.5,26.0,39.0,44.553338819890925,{}
285,631,2.0,84.2140130857092,8.0,10.04987562112089,23.08679276123039,24.08318915758459,30.59411708155671,50.48762224545735,40.44749683231337,39.0,48.0,42.0,15.0,5.0,5.0,8.0,12.041594578792296,11.180339887498947,11.0,26.0,39.0,42.579337712087536,{}
286,632,1.0,88.14193099768123,9.219544457292889,7.280109889280518,22.02271554554524,23.021728866442675,30.4138126514911,46.69047011971501,39.45883931389772,39.0,49.0,44.0,16.5,0.5,8.5,8.5,12.16552506059644,13.152946437965904,12.5,29.0,41.0,41.593268686170845,{}
287,633,0.0,86.37129152675674,10.04987562112089,13.152946437965904,23.08679276123039,23.08679276123039,30.4138126514911,53.60037313302959,40.44749683231337,40.0,50.0,42.0,16.0,7.0,6.0,8.0,13.038404810405298,13.152946437965904,12.5,26.0,40.0,42.579337712087536,{}
288,634,1.0,86.37129152675674,10.198039027185567,11.180339887498947,23.08679276123039,24.08318915758459,30.4138126514911,51.62363799656123,40.44749683231337,40.0,49.0,41.0,15.0,6.0,5.0,7.0,13.038404810405298,13.152946437965904,12.5,29.0,42.0,44.28317965096906,{}
289,635,1.0,89.35882720806042,10.04987562112089,9.055385138137416,24.08318915758459,24.08318915758459,30.59411708155671,49.8196748283246,40.79215610874228,40.0,51.0,43.0,17.0,2.0,7.0,9.0,12.16552506059644,12.16552506059644,12.0,29.0,40.0,44.28317965096906,{}
290,636,1.4142135623730951,88.2779700718135,10.04987562112089,12.041594578792296,23.08679276123039,24.08318915758459,30.4138126514911,53.33854141237835,41.30375285612676,40.5,50.0,43.0,16.5,6.5,6.5,8.5,13.152946437965904,12.041594578792296,12.0,27.0,39.0,44.28317965096906,{}
291,637,1.0,86.20904824900923,10.04987562112089,12.041594578792296,23.08679276123039,24.08318915758459,30.26549190084312,52.23983154643591,40.19950248448356,40.0,49.0,43.0,16.0,6.0,6.0,8.0,13.038404810405298,13.038404810405298,12.5,29.0,38.0,44.181444068749045,{}
292,638,1.0,86.14522621712709,10.04987562112089,9.055385138137416,23.08679276123039,23.021728866442675,31.400636936215164,50.35871324805669,41.30375285612676,41.0,50.0,45.0,16.5,2.5,7.5,8.5,11.180339887498947,11.180339887498947,11.0,33.0,40.0,45.27692569068709,{}
293,639,2.23606797749979,90.13878188659972,8.06225774829855,9.055385138137416,24.020824298928627,24.08318915758459,31.575306807693888,50.48762224545735,41.43669871020132,40.0,52.0,47.0,18.5,0.5,8.5,11.5,11.180339887498947,11.04536101718726,10.5,28.0,36.0,47.38143096192854,{}
294,640,1.4142135623730951,92.13576938409967,10.04987562112089,9.055385138137416,22.02271554554524,23.021728866442675,30.26549190084312,48.25971404805462,39.20459156782532,39.5,51.0,46.0,18.5,0.5,9.5,10.5,12.16552506059644,13.038404810405298,12.5,30.0,37.0,45.39823785126467,{}
295,641,1.0,88.09086218218096,8.06225774829855,7.071067811865476,23.021728866442675,23.021728866442675,30.26549190084312,45.27692569068709,38.2099463490856,38.0,50.0,46.0,18.0,3.0,10.0,10.0,12.041594578792296,13.152946437965904,12.5,28.0,37.0,40.79215610874228,{}
296,642,1.4142135623730951,91.02197536858888,10.04987562112089,9.055385138137416,23.021728866442675,23.021728866442675,29.61418578992169,47.51841748206689,38.47076812334269,38.5,48.0,46.0,18.0,0.0,10.0,10.0,10.04987562112089,11.04536101718726,11.0,28.0,37.0,44.181444068749045,{}
297,643,1.0,90.13878188659972,9.0,10.0,24.020824298928627,24.020824298928627,29.42787793912432,47.265209192385896,37.33630940518894,37.5,49.0,44.0,17.5,0.5,8.5,9.5,11.04536101718726,11.04536101718726,11.0,28.0,36.0,41.30375285612676,{}
298,644,1.0,88.02272433866155,9.055385138137416,8.06225774829855,22.02271554554524,22.09072203437452,28.635642126552707,45.5411901469428,37.48332962798263,37.0,46.0,44.0,17.0,0.0,9.0,9.0,10.04987562112089,10.04987562112089,9.5,28.0,35.0,42.190046219457976,{}
299,645,1.0,86.02325267042627,9.055385138137416,10.04987562112089,22.02271554554524,23.0,29.61418578992169,48.507731342539614,38.47076812334269,38.0,47.0,45.0,17.0,2.0,9.0,9.0,10.04987562112089,11.04536101718726,10.5,29.0,35.0,43.28972164382672,{}
300,646,1.0,85.0235261559999,10.04987562112089,9.055385138137416,23.021728866442675,24.08318915758459,28.635642126552707,47.51841748206689,38.47076812334269,38.0,48.0,46.0,19.0,0.0,9.0,10.0,11.04536101718726,12.16552506059644,11.5,28.0,36.0,41.30375285612676,{}
301,647,4.0,86.20904824900923,9.055385138137416,10.0,23.021728866442675,24.020824298928627,29.27456233660889,52.23983154643591,42.2965719651132,40.0,52.0,46.0,20.0,3.0,7.0,12.0,11.180339887498947,11.04536101718726,10.5,29.0,37.0,41.10960958218893,{}
302,648,6.0,87.09190547921202,10.04987562112089,8.06225774829855,23.021728866442675,24.08318915758459,28.635642126552707,52.61178575186362,44.553338819890925,41.0,52.0,48.0,22.0,2.0,6.0,13.0,11.04536101718726,12.041594578792296,11.5,28.0,35.0,39.6232255123179,{}
303,649,6.0,84.1486779456457,10.04987562112089,8.06225774829855,23.021728866442675,24.020824298928627,28.635642126552707,52.61178575186362,44.553338819890925,41.0,52.0,47.0,21.5,2.5,6.5,12.5,11.180339887498947,12.16552506059644,11.0,27.0,35.0,43.41658669218482,{}
304,650,10.0,87.14355971613737,8.06225774829855,7.280109889280518,23.08679276123039,25.079872407968907,29.42787793912432,54.589376255824725,47.38143096192854,42.0,52.0,47.0,20.5,4.5,3.5,13.5,13.038404810405298,12.16552506059644,12.0,30.0,38.0,43.28972164382672,{}
305,651,12.0,87.20665112249179,9.055385138137416,10.04987562112089,23.021728866442675,25.079872407968907,28.635642126552707,59.53990258641679,49.49747468305833,43.0,52.0,46.0,21.0,10.0,1.0,13.0,10.198039027185567,10.04987562112089,9.5,29.0,38.0,38.47076812334269,{}
306,652,13.0,82.21921916437786,8.06225774829855,8.246211251235321,22.09072203437452,24.08318915758459,29.61418578992169,58.69412236331676,50.48762224545735,43.5,54.0,48.0,22.0,7.0,2.0,16.0,11.04536101718726,12.041594578792296,12.0,28.0,38.0,41.43669871020132,{}
307,653,15.033296378372908,87.14355971613737,8.246211251235321,9.219544457292889,24.020824298928627,26.0768096208106,29.42787793912432,61.5223536610881,52.3450093132096,44.5,53.0,48.0,21.5,10.5,0.5,14.5,12.16552506059644,12.16552506059644,11.5,28.0,38.0,40.44749683231337,{}
308,654,12.041594578792296,85.21150157109074,7.071067811865476,8.06225774829855,22.09072203437452,23.08679276123039,29.61418578992169,56.71860364994893,48.66210024238576,42.0,53.0,47.0,21.0,6.0,2.0,15.0,13.038404810405298,14.142135623730953,13.0,28.0,38.0,45.39823785126467,{}
309,655,11.04536101718726,89.20201791439474,8.06225774829855,9.055385138137416,23.08679276123039,24.020824298928627,28.284271247461906,56.43580423808985,47.38143096192854,41.5,52.0,46.0,21.0,7.0,3.0,14.0,13.038404810405298,12.16552506059644,11.5,27.0,36.0,37.33630940518894,{}
310,656,10.04987562112089,85.09406559801923,8.06225774829855,10.04987562112089,23.021728866442675,25.019992006393608,28.284271247461906,56.43580423808985,46.389654018972806,41.0,49.0,45.0,19.0,9.0,2.0,11.0,12.16552506059644,13.152946437965904,12.5,28.0,40.0,41.77319714841085,{}
311,657,7.071067811865476,87.05170877128145,9.0,9.055385138137416,22.02271554554524,24.020824298928627,28.635642126552707,53.60037313302959,44.553338819890925,40.5,49.0,46.0,19.5,5.5,4.5,11.5,11.04536101718726,12.041594578792296,11.5,27.0,38.0,42.42640687119285,{}
312,658,7.071067811865476,82.15229759416349,9.055385138137416,10.198039027185567,22.02271554554524,22.09072203437452,29.61418578992169,55.90169943749474,45.70557952810576,41.5,49.0,44.0,17.5,8.5,1.5,9.5,14.0356688476182,13.152946437965904,13.0,33.0,43.0,49.25444142409901,{}
313,659,8.06225774829855,89.1403387922662,9.055385138137416,10.04987562112089,25.079872407968907,26.0768096208106,28.442925306655784,55.57877292636101,45.5411901469428,41.0,50.0,45.0,19.5,7.5,3.5,11.5,11.180339887498947,12.041594578792296,11.0,28.0,38.0,45.39823785126467,{}
314,660,7.071067811865476,86.14522621712709,9.055385138137416,8.06225774829855,23.08679276123039,24.020824298928627,28.635642126552707,52.773099207835045,44.7213595499958,40.5,50.0,45.0,19.5,4.5,4.5,12.5,10.198039027185567,12.16552506059644,11.0,28.0,38.0,42.579337712087536,{}
315,661,8.0,86.14522621712709,9.219544457292889,8.246211251235321,23.08679276123039,24.08318915758459,28.442925306655784,53.75872022286245,45.5411901469428,41.0,50.0,45.0,19.5,5.5,3.5,11.5,13.038404810405298,13.152946437965904,12.5,27.0,37.0,41.43669871020132,{}
316,662,7.071067811865476,85.21150157109074,10.04987562112089,8.06225774829855,22.09072203437452,23.08679276123039,29.8328677803526,54.589376255824725,46.52956049652737,42.5,52.0,46.0,20.0,5.0,3.0,11.0,13.038404810405298,13.152946437965904,13.0,29.0,39.0,43.28972164382672,{}
317,663,6.0,85.28774824088158,10.198039027185567,10.198039027185567,23.194827009486403,24.186773244895647,28.442925306655784,54.74486277268398,44.553338819890925,41.0,52.0,45.0,20.5,5.5,3.5,12.5,12.16552506059644,12.16552506059644,11.5,25.0,36.0,49.49747468305833,{}
318,664,5.0,87.28115489611719,11.04536101718726,8.06225774829855,23.194827009486403,23.08679276123039,29.27456233660889,53.33854141237835,45.27692569068709,42.5,52.0,45.0,19.5,4.5,3.5,10.5,13.038404810405298,14.142135623730953,13.5,29.0,39.0,49.49747468305833,{}
319,665,5.0,85.14693182963201,10.04987562112089,8.246211251235321,23.08679276123039,24.08318915758459,29.61418578992169,52.773099207835045,44.553338819890925,41.5,50.0,45.0,18.5,4.5,3.5,10.5,11.04536101718726,12.16552506059644,11.0,25.0,35.0,46.389654018972806,{}
320,666,6.082762530298219,84.2140130857092,10.04987562112089,9.055385138137416,23.08679276123039,23.08679276123039,30.59411708155671,55.731499172371095,46.69047011971501,43.0,52.0,46.0,19.0,6.0,4.0,10.0,11.04536101718726,12.16552506059644,11.0,28.0,38.0,44.40720662234904,{}
321,667,3.0,91.26883367283708,11.04536101718726,9.219544457292889,23.08679276123039,23.08679276123039,31.575306807693888,54.74486277268398,45.5411901469428,43.5,54.0,47.0,19.5,3.5,6.5,9.5,12.041594578792296,12.16552506059644,12.0,28.0,38.0,43.18564576337837,{}
322,668,3.1622776601683795,82.29823813423954,11.04536101718726,10.198039027185567,23.08679276123039,23.021728866442675,31.575306807693888,55.90169943749474,45.70557952810576,43.5,53.0,46.0,18.5,5.5,5.5,9.5,11.04536101718726,12.16552506059644,12.0,28.0,39.0,41.43669871020132,{}
323,669,5.0,84.2140130857092,8.06225774829855,9.055385138137416,22.09072203437452,22.09072203437452,33.54101966249684,55.57877292636101,46.52956049652737,43.5,53.0,47.0,17.0,5.0,5.0,10.0,11.180339887498947,11.04536101718726,10.5,27.0,36.0,41.30375285612676,{}
324,670,1.0,87.28115489611719,9.055385138137416,8.06225774829855,21.095023109728988,22.09072203437452,34.36568055487916,51.35172830587107,43.28972164382672,43.0,55.0,48.0,17.5,0.5,8.5,10.5,11.180339887498947,12.16552506059644,11.0,29.0,38.0,41.43669871020132,{}
325,671,1.4142135623730951,81.09870529176159,8.06225774829855,8.06225774829855,21.02379604162864,21.095023109728988,33.37663853655727,48.373546489791295,40.311288741492746,40.5,52.0,48.0,17.0,2.0,10.0,10.0,12.041594578792296,12.041594578792296,11.5,29.0,35.0,43.41658669218482,{}
326,672,2.0,84.00595217006948,8.06225774829855,9.0,21.0,21.02379604162864,35.22782990761707,50.24937810560445,41.30375285612676,42.0,52.0,51.0,16.5,1.5,11.5,9.5,9.0,9.055385138137416,9.5,29.0,33.0,42.190046219457976,{}
327,673,2.23606797749979,83.02409288875127,8.0,12.0,21.02379604162864,21.02379604162864,35.05709628591621,53.009433122794285,41.01219330881976,42.0,50.0,52.0,16.0,2.0,11.0,8.0,8.06225774829855,9.0,9.0,29.0,33.0,39.20459156782532,{}
328,674,2.23606797749979,86.05230967266364,9.0,12.0,22.02271554554524,23.08679276123039,33.0,52.009614495783374,40.01249804748511,41.0,50.0,53.0,18.5,0.5,12.5,9.5,7.071067811865476,7.0,7.0,28.0,30.0,42.190046219457976,{}
329,675,5.0990195135927845,84.1486779456457,9.0,11.04536101718726,22.09072203437452,24.020824298928627,33.015148038438355,58.077534382926416,47.042533945356304,44.5,51.0,56.0,20.5,4.5,7.5,11.5,7.0,8.06225774829855,8.0,32.0,30.0,40.01249804748511,{}
330,676,8.246211251235321,82.21921916437786,9.0,11.04536101718726,23.08679276123039,24.08318915758459,31.016124838541646,59.13543776789008,48.0936586256442,44.0,51.0,57.0,23.0,5.0,8.0,13.0,8.0,8.06225774829855,7.5,33.0,28.0,40.0,{}
331,677,6.324555320336759,82.60750571225353,9.0,9.055385138137416,22.09072203437452,23.345235059857504,32.0,56.08029957123981,47.042533945356304,44.0,50.0,60.0,23.0,1.0,10.0,13.0,9.0,9.219544457292889,9.0,37.0,27.0,46.04345773288535,{}
332,678,5.385164807134504,83.86298349093002,10.0,11.180339887498947,23.194827009486403,23.194827009486403,30.01666203960727,56.22277118748239,45.09988913511872,42.5,48.0,60.0,24.0,2.0,11.0,13.0,8.0,9.219544457292889,9.0,38.0,26.0,45.0111097397076,{}
333,679,8.246211251235321,81.74350127074322,9.055385138137416,10.198039027185567,21.213203435596427,22.20360331117452,31.064449134018133,58.42088667591412,48.25971404805462,44.0,50.0,61.0,24.5,2.5,9.5,13.5,8.0,10.04987562112089,9.5,38.0,24.0,44.0,{}
334,680,6.082762530298219,80.06247560499239,9.055385138137416,10.44030650891055,21.213203435596427,22.20360331117452,31.25699921617557,56.71860364994893,46.389654018972806,43.0,48.0,61.0,23.5,1.5,10.5,12.5,9.055385138137416,9.219544457292889,8.5,40.0,22.0,46.04345773288535,{}
335,681,6.324555320336759,82.37718130647589,9.055385138137416,12.36931687685298,21.213203435596427,21.587033144922906,31.016124838541646,58.42088667591412,46.17358552246078,43.0,47.0,62.0,23.5,3.5,10.5,12.5,9.055385138137416,10.198039027185567,9.5,41.0,21.0,45.39823785126467,{}
336,682,5.830951894845301,81.02468759581859,9.055385138137416,11.40175425099138,22.56102834535696,22.80350850198276,31.064449134018133,56.71860364994893,45.39823785126467,42.5,46.0,64.0,24.0,1.0,12.0,12.0,9.055385138137416,10.44030650891055,9.5,42.0,21.0,46.2709412050371,{}
337,683,5.0,85.90692637965812,9.055385138137416,11.704699910719626,24.515301344262525,24.73863375370596,32.0624390837628,56.88585061331157,45.39823785126467,43.0,45.0,63.0,22.0,2.0,12.0,10.0,8.06225774829855,9.219544457292889,9.0,43.0,20.0,46.389654018972806,{}
338,684,4.242640687119285,83.19855767980596,9.055385138137416,11.704699910719626,22.36067977499789,22.56102834535696,31.064449134018133,54.91812087098393,43.41658669218482,41.5,45.0,64.0,23.5,0.5,13.5,12.5,8.06225774829855,9.486832980505138,8.5,44.0,17.0,43.41658669218482,{}
339,685,4.242640687119285,83.95236744726142,10.04987562112089,10.44030650891055,22.36067977499789,23.53720459187964,32.14031735997639,55.90169943749474,45.5411901469428,43.5,45.0,63.0,22.0,1.0,12.0,10.0,9.219544457292889,10.198039027185567,10.0,42.0,20.0,39.20459156782532,{}
340,686,3.605551275463989,86.12200647918046,9.055385138137416,9.486832980505138,23.345235059857504,24.73863375370596,34.23448553724738,55.10898293381942,45.70557952810576,44.0,44.0,63.0,19.5,0.5,11.5,8.5,10.04987562112089,11.40175425099138,10.5,43.0,20.0,40.19950248448356,{}
341,687,2.0,85.14693182963201,10.04987562112089,11.40175425099138,21.37755832643195,22.80350850198276,34.36568055487916,56.08921464952064,44.7213595499958,44.0,43.0,62.0,18.5,2.5,11.5,7.5,10.198039027185567,11.40175425099138,10.5,47.0,21.0,42.579337712087536,{}
342,688,2.0,87.32124598286491,9.055385138137416,12.649110640673518,22.56102834535696,22.80350850198276,34.52535300326414,56.51548460377917,43.93176527297759,43.0,42.0,62.0,18.0,3.0,12.0,7.0,8.06225774829855,8.06225774829855,8.0,39.0,19.0,42.2965719651132,{}
343,689,1.4142135623730951,84.92938243034621,9.055385138137416,10.770329614269007,19.4164878389476,20.8806130178211,34.23448553724738,52.952809179494906,42.42640687119285,42.5,43.0,61.0,18.0,0.0,13.0,7.0,11.180339887498947,10.44030650891055,10.0,44.0,18.0,43.56604182158393,{}
344,690,1.4142135623730951,88.07383266328314,10.198039027185567,11.704699910719626,21.587033144922906,21.18962010041709,34.52535300326414,55.54277630799526,43.93176527297759,43.5,43.0,62.0,18.5,1.5,12.5,6.5,9.219544457292889,10.44030650891055,9.5,43.0,18.0,44.553338819890925,{}
345,691,2.0,87.0976463516667,9.055385138137416,11.704699910719626,21.587033144922906,22.80350850198276,34.23448553724738,55.10898293381942,43.56604182158393,43.0,43.0,62.0,18.5,1.5,12.5,7.5,10.198039027185567,10.44030650891055,9.5,42.0,17.0,44.553338819890925,{}
346,692,2.0,85.90692637965812,9.055385138137416,9.486832980505138,19.4164878389476,19.6468827043885,34.36568055487916,53.150729063673246,43.73785545725808,43.0,43.0,61.0,18.0,0.0,12.0,7.0,10.04987562112089,11.180339887498947,10.5,40.0,16.0,44.40720662234904,{}
347,693,2.0,87.0976463516667,10.198039027185567,12.36931687685298,20.615528128088304,22.80350850198276,36.345563690772494,59.22837157984339,46.87216658103186,46.0,45.0,64.0,18.5,3.5,11.5,6.5,10.198039027185567,10.198039027185567,9.5,40.0,19.0,42.579337712087536,{}
348,694,2.0,83.74365647617735,9.055385138137416,11.704699910719626,19.4164878389476,20.615528128088304,34.132096331752024,54.91812087098393,43.41658669218482,43.0,43.0,60.0,17.5,2.5,11.5,7.5,12.041594578792296,12.36931687685298,11.5,41.0,18.0,43.28972164382672,{}
349,695,3.605551275463989,86.49277426467485,9.219544457292889,13.341664064126334,22.36067977499789,22.56102834535696,35.22782990761707,61.0,47.67598976424087,45.5,47.0,63.0,20.0,5.0,11.0,10.0,11.04536101718726,11.180339887498947,11.0,40.0,19.0,43.18564576337837,{}
350,696,12.36931687685298,90.4267659490264,10.04987562112089,13.341664064126334,22.36067977499789,23.345235059857504,31.25699921617557,66.91038783328041,53.60037313302959,47.0,47.0,63.0,24.0,11.0,5.0,13.0,13.152946437965904,13.341664064126334,12.5,40.0,20.0,39.45883931389772,{}
351,697,17.11724276862369,91.41115905621152,9.219544457292889,12.649110640673518,23.345235059857504,25.179356624028344,28.284271247461906,67.08203932499369,54.589376255824725,45.5,43.0,59.0,23.0,15.0,0.0,13.0,10.04987562112089,11.180339887498947,10.0,41.0,19.0,37.48332962798263,{}
352,698,21.37755832643195,90.60905032059436,8.06225774829855,11.704699910719626,22.56102834535696,23.345235059857504,33.24154027718932,74.14849964766651,62.64982043070834,51.5,49.0,66.0,24.5,15.5,1.5,14.5,8.06225774829855,10.44030650891055,9.0,40.0,18.0,43.18564576337837,{}
353,699,22.09072203437452,87.13208364316786,9.219544457292889,13.601470508735444,23.345235059857504,25.495097567963924,26.1725046566048,70.8590149522275,57.42821606144492,46.0,44.0,58.0,25.0,19.0,3.0,15.0,13.152946437965904,11.180339887498947,11.0,42.0,22.0,40.44749683231337,{}
354,700,18.110770276274835,89.44271909999159,9.219544457292889,14.560219778561036,24.515301344262525,26.476404589747453,29.068883707497267,70.71067811865476,56.32051136131489,47.0,43.0,59.0,22.0,19.0,1.0,11.0,10.198039027185567,10.44030650891055,9.5,40.0,18.0,38.47076812334269,{}
355,701,3.605551275463989,85.90692637965812,11.04536101718726,15.297058540778355,23.345235059857504,23.769728648009423,29.017236257093817,58.42088667591412,43.18564576337837,41.5,44.0,62.0,24.0,5.0,13.0,11.0,13.038404810405298,12.16552506059644,12.0,41.0,20.0,42.579337712087536,{}
356,702,2.23606797749979,83.74365647617735,11.180339887498947,13.601470508735444,19.4164878389476,20.615528128088304,33.06055050963308,59.682493245507096,46.2709412050371,45.0,48.0,65.0,23.5,2.5,12.5,10.5,12.041594578792296,12.16552506059644,11.5,40.0,22.0,42.2965719651132,{}
357,703,4.47213595499958,83.3606621854697,10.04987562112089,9.486832980505138,19.235384061671343,20.39607805437113,33.13608305156178,56.71860364994893,47.38143096192854,45.0,47.0,62.0,21.5,1.5,9.5,10.5,11.180339887498947,11.40175425099138,10.5,42.0,20.0,42.2965719651132,{}
358,704,1.4142135623730951,85.5102333057278,10.04987562112089,9.486832980505138,20.223748416156685,21.587033144922906,35.12833614050059,55.57877292636101,46.2709412050371,45.5,46.0,62.0,19.0,1.0,11.0,8.0,10.198039027185567,10.44030650891055,10.0,43.0,23.0,47.265209192385896,{}
359,705,2.23606797749979,87.66413177577246,9.0,8.246211251235321,20.39607805437113,22.80350850198276,34.23448553724738,52.61178575186362,44.40720662234904,43.5,45.0,62.0,19.5,1.5,12.5,8.5,12.041594578792296,12.16552506059644,12.0,42.0,21.0,42.579337712087536,{}
360,706,1.4142135623730951,88.45903006477066,9.055385138137416,10.44030650891055,20.39607805437113,21.587033144922906,34.058772731852805,54.45181356024793,44.181444068749045,43.5,45.0,61.0,19.0,1.0,12.0,8.0,11.04536101718726,11.180339887498947,11.0,44.0,22.0,43.41658669218482,{}
361,707,1.0,84.52810183601665,9.0,10.44030650891055,21.37755832643195,21.840329667841555,35.510561809129406,54.91812087098393,44.553338819890925,44.0,45.0,61.0,18.0,1.0,12.0,8.0,11.04536101718726,12.16552506059644,11.5,44.0,22.0,45.27692569068709,{}
362,708,1.4142135623730951,86.31338250816034,9.055385138137416,11.180339887498947,22.20360331117452,22.56102834535696,35.12833614050059,54.45181356024793,43.28972164382672,43.5,45.0,60.0,17.5,1.5,12.5,7.5,11.180339887498947,10.44030650891055,10.5,42.0,21.0,41.43669871020132,{}
363,709,2.23606797749979,87.47571091451616,10.04987562112089,11.40175425099138,21.37755832643195,21.840329667841555,33.13608305156178,53.75872022286245,42.42640687119285,42.5,44.0,60.0,19.0,1.0,12.0,7.0,11.04536101718726,10.198039027185567,10.0,44.0,22.0,44.28317965096906,{}
364,710,3.1622776601683795,89.62700485902673,9.055385138137416,9.848857801796104,21.37755832643195,21.840329667841555,34.132096331752024,49.8196748283246,40.311288741492746,41.5,43.0,60.0,17.5,2.5,14.5,7.5,10.198039027185567,11.40175425099138,10.5,43.0,22.0,45.39823785126467,{}
365,711,2.23606797749979,91.41115905621152,10.04987562112089,12.36931687685298,22.36067977499789,23.53720459187964,33.06055050963308,54.589376255824725,42.2965719651132,42.5,44.0,60.0,19.0,2.0,13.0,8.0,10.198039027185567,10.198039027185567,9.5,42.0,22.0,44.28317965096906,{}
366,712,2.8284271247461903,89.44271909999159,9.055385138137416,11.40175425099138,21.37755832643195,21.587033144922906,33.06055050963308,51.62363799656123,40.311288741492746,41.0,44.0,60.0,19.0,1.0,15.0,8.0,11.04536101718726,10.44030650891055,9.5,43.0,23.0,42.42640687119285,{}
367,713,1.0,92.57429448826494,9.055385138137416,10.44030650891055,23.53720459187964,24.73863375370596,33.24154027718932,52.773099207835045,42.42640687119285,42.0,45.0,62.0,20.5,1.5,14.5,9.5,12.041594578792296,12.16552506059644,11.5,42.0,22.0,43.56604182158393,{}
368,714,2.0,88.64536084872124,10.04987562112089,12.36931687685298,22.36067977499789,23.53720459187964,33.37663853655727,53.75872022286245,41.43669871020132,42.0,45.0,62.0,20.5,0.5,15.5,9.5,11.04536101718726,12.16552506059644,11.5,39.0,20.0,43.41658669218482,{}
369,715,2.8284271247461903,92.22797840135064,9.055385138137416,11.40175425099138,21.37755832643195,22.36067977499789,33.13608305156178,51.78802950489621,40.44749683231337,41.0,46.0,61.0,20.5,2.5,15.5,9.5,11.04536101718726,12.16552506059644,11.5,39.0,20.0,42.190046219457976,{}
370,716,3.605551275463989,89.10667763978185,10.04987562112089,11.180339887498947,21.37755832643195,22.56102834535696,33.13608305156178,51.62363799656123,40.44749683231337,41.5,46.0,60.0,20.0,2.0,16.0,9.0,11.04536101718726,11.180339887498947,11.0,41.0,22.0,43.28972164382672,{}
371,717,2.23606797749979,92.22797840135064,9.055385138137416,11.40175425099138,24.515301344262525,24.515301344262525,33.06055050963308,52.61178575186362,41.30375285612676,41.5,46.0,61.0,20.5,1.5,15.5,9.5,12.041594578792296,12.16552506059644,11.5,42.0,23.0,46.389654018972806,{}
372,718,2.23606797749979,87.96590248499699,11.04536101718726,11.40175425099138,23.345235059857504,23.345235059857504,31.016124838541646,52.46903848937962,41.19465984809196,41.5,47.0,60.0,22.5,1.5,14.5,10.5,9.055385138137416,10.198039027185567,10.0,40.0,22.0,41.19465984809196,{}
373,719,3.0,83.18653737234169,10.04987562112089,13.341664064126334,22.20360331117452,23.345235059857504,31.016124838541646,54.589376255824725,41.30375285612676,41.0,46.0,60.0,22.0,1.0,14.0,11.0,10.198039027185567,11.180339887498947,10.5,43.0,24.0,46.2709412050371,{}
374,720,2.8284271247461903,82.37718130647589,10.0,12.36931687685298,22.36067977499789,22.56102834535696,30.066592756745816,54.45181356024793,42.190046219457976,41.0,46.0,61.0,23.5,0.5,14.5,11.5,12.041594578792296,11.40175425099138,11.5,39.0,22.0,44.28317965096906,{}
375,721,4.47213595499958,83.54639429682169,9.055385138137416,12.36931687685298,22.36067977499789,23.345235059857504,30.0,55.326304774492215,43.10452412450461,41.0,46.0,62.0,24.0,1.0,14.0,14.0,11.04536101718726,10.198039027185567,10.0,38.0,22.0,46.2709412050371,{}
376,722,2.8284271247461903,83.54639429682169,9.055385138137416,11.40175425099138,22.36067977499789,22.56102834535696,31.0,53.33854141237835,42.1070065428546,41.0,47.0,63.0,24.0,2.0,15.0,13.0,11.04536101718726,11.180339887498947,11.0,40.0,23.0,43.18564576337837,{}
377,723,2.8284271247461903,86.31338250816034,10.04987562112089,12.16552506059644,23.345235059857504,24.515301344262525,29.017236257093817,53.33854141237835,41.19465984809196,40.0,46.0,61.0,24.5,0.5,14.5,12.5,10.04987562112089,11.180339887498947,10.5,40.0,22.0,46.17358552246078,{}
378,724,2.8284271247461903,87.29833904490967,9.055385138137416,12.16552506059644,24.186773244895647,24.33105012119288,30.066592756745816,53.46026561849464,41.30375285612676,40.0,46.0,61.0,23.5,0.5,14.5,12.5,10.04987562112089,10.44030650891055,9.5,42.0,24.0,47.16990566028302,{}
379,725,3.1622776601683795,81.58431221748455,10.04987562112089,11.40175425099138,23.345235059857504,23.53720459187964,29.068883707497267,53.46026561849464,42.190046219457976,40.5,46.0,62.0,25.0,1.0,14.0,13.0,10.04987562112089,11.40175425099138,10.5,40.0,23.0,47.16990566028302,{}
380,726,8.06225774829855,83.02409288875127,9.055385138137416,10.44030650891055,22.20360331117452,23.345235059857504,30.01666203960727,57.3149195236284,47.09564735726647,43.0,49.0,62.0,25.5,1.5,11.5,15.5,9.055385138137416,11.180339887498947,10.0,41.0,23.0,44.181444068749045,{}
381,727,3.605551275463989,84.52810183601665,9.055385138137416,10.198039027185567,23.53720459187964,23.53720459187964,30.01666203960727,52.3450093132096,42.190046219457976,40.5,44.0,60.0,22.0,0.0,12.0,11.0,10.04987562112089,10.198039027185567,10.0,41.0,24.0,44.181444068749045,{}
382,728,3.605551275463989,86.97700845625813,8.06225774829855,10.198039027185567,23.194827009486403,23.194827009486403,29.0,50.24937810560445,40.11234224026316,38.5,44.0,57.0,21.5,0.5,11.5,12.5,10.04987562112089,11.180339887498947,11.0,42.0,24.0,47.38143096192854,{}
383,729,3.605551275463989,88.28363381737297,8.06225774829855,10.198039027185567,24.33105012119288,24.33105012119288,29.0,50.24937810560445,40.11234224026316,38.5,43.0,58.0,21.5,0.5,13.5,11.5,10.04987562112089,10.198039027185567,10.0,43.0,24.0,47.265209192385896,{}
384,730,2.23606797749979,87.47571091451616,8.06225774829855,10.198039027185567,23.194827009486403,23.345235059857504,30.01666203960727,47.38143096192854,37.21558813185679,37.5,42.0,58.0,20.0,3.0,15.0,11.0,7.071067811865476,8.54400374531753,7.5,42.0,24.0,46.2709412050371,{}
385,731,1.4142135623730951,88.45903006477066,9.055385138137416,11.40175425099138,24.33105012119288,24.515301344262525,28.0713376952364,49.49747468305833,38.2099463490856,37.5,42.0,58.0,22.0,1.0,14.0,11.0,5.0990195135927845,6.708203932499369,5.5,41.0,26.0,41.19465984809196,{}
386,732,2.23606797749979,85.70297544426332,8.06225774829855,11.180339887498947,23.345235059857504,24.515301344262525,28.0178514522438,48.373546489791295,37.21558813185679,36.5,40.0,57.0,20.5,0.5,13.5,10.5,6.082762530298219,6.708203932499369,6.0,40.0,24.0,42.04759208325728,{}
387,733,2.8284271247461903,86.68333173107735,9.219544457292889,10.198039027185567,24.515301344262525,24.515301344262525,28.0713376952364,49.64876634922564,39.45883931389772,38.0,40.0,57.0,20.5,0.5,12.5,9.5,7.0,8.54400374531753,7.0,40.0,23.0,41.10960958218893,{}
388,734,3.605551275463989,86.88498144098322,8.06225774829855,9.486832980505138,24.33105012119288,24.73863375370596,27.459060435491963,48.27007354458868,38.8329756778952,36.5,38.0,56.0,20.0,0.0,12.0,10.0,7.071067811865476,8.54400374531753,7.5,39.0,22.0,42.190046219457976,{}
389,735,9.219544457292889,89.26925562588724,9.219544457292889,9.486832980505138,25.495097567963924,25.70992026436488,28.16025568065745,55.90169943749474,46.52956049652737,41.5,40.0,60.0,22.0,5.0,8.0,11.0,4.47213595499958,5.0,4.0,44.0,26.0,45.17742799230607,{}
390,736,10.198039027185567,87.32124598286491,9.219544457292889,9.486832980505138,25.70992026436488,26.92582403567252,27.459060435491963,56.29387178015028,46.87216658103186,41.0,38.0,58.0,21.0,7.0,6.0,10.0,7.071067811865476,7.615773105863909,6.5,40.0,23.0,39.11521443121589,{}
391,737,10.198039027185567,89.26925562588724,8.246211251235321,10.770329614269007,25.495097567963924,25.96150997149434,28.284271247461906,57.27128425310541,46.69047011971501,41.0,40.0,60.0,22.0,6.0,8.0,11.0,5.0990195135927845,6.708203932499369,5.0,41.0,24.0,38.2099463490856,{}
392,738,6.324555320336759,89.49860334105779,8.06225774829855,11.704699910719626,25.495097567963924,26.92582403567252,28.16025568065745,53.9351462406472,42.42640687119285,39.0,38.0,59.0,20.5,4.5,10.5,9.5,6.082762530298219,5.830951894845301,5.0,45.0,26.0,45.27692569068709,{}
393,739,5.0,86.34813257969161,8.06225774829855,11.40175425099138,23.53720459187964,25.70992026436488,28.284271247461906,52.172789842982326,40.79215610874228,38.0,39.0,59.0,21.0,2.0,12.0,10.0,4.123105625617661,6.4031242374328485,4.5,41.0,23.0,41.19465984809196,{}
394,740,5.830951894845301,87.55569655939013,8.06225774829855,13.341664064126334,24.515301344262525,25.70992026436488,28.0713376952364,54.74486277268398,41.43669871020132,38.5,40.0,61.0,22.5,3.5,11.5,11.5,4.123105625617661,6.708203932499369,5.5,42.0,25.0,44.181444068749045,{}
395,741,12.36931687685298,87.80091115700337,9.219544457292889,12.36931687685298,27.65863337187866,27.65863337187866,29.068883707497267,62.80127387243033,50.48762224545735,44.0,43.0,65.0,25.0,8.0,8.0,13.0,5.0990195135927845,6.324555320336759,5.5,41.0,21.0,42.190046219457976,{}
396,742,16.278820596099706,85.61541917201598,7.071067811865476,12.36931687685298,25.70992026436488,25.96150997149434,29.068883707497267,64.6297145282261,52.3450093132096,44.0,43.0,64.0,24.5,10.5,5.5,14.5,6.324555320336759,7.615773105863909,6.5,43.0,22.0,43.18564576337837,{}
397,743,16.278820596099706,86.34813257969161,7.280109889280518,12.36931687685298,25.495097567963924,26.92582403567252,28.0178514522438,63.63961030678928,51.35172830587107,43.0,43.0,63.0,25.0,10.0,6.0,15.0,6.082762530298219,8.54400374531753,7.5,43.0,21.0,44.28317965096906,{}
398,744,15.297058540778355,83.43260753446461,9.219544457292889,14.317821063276352,24.515301344262525,25.96150997149434,28.284271247461906,67.08203932499369,52.773099207835045,44.5,42.0,62.0,24.0,14.0,4.0,13.0,7.071067811865476,8.246211251235321,8.0,41.0,22.0,38.47076812334269,{}
399,745,10.198039027185567,88.29496021857646,8.246211251235321,11.40175425099138,24.73863375370596,25.96150997149434,28.0178514522438,57.55866572463264,46.2709412050371,41.0,40.0,60.0,22.0,7.0,8.0,11.0,8.06225774829855,8.54400374531753,8.0,43.0,22.0,44.40720662234904,{}
400,746,5.830951894845301,86.58521813797087,8.06225774829855,10.770329614269007,23.769728648009423,25.0,27.16615541441225,51.19570294468082,40.60788100849391,37.5,38.0,59.0,21.5,1.5,12.5,10.5,8.06225774829855,9.219544457292889,8.5,43.0,22.0,43.41658669218482,{}
401,747,2.8284271247461903,90.47098982546837,8.246211251235321,11.704699910719626,25.495097567963924,26.92582403567252,30.14962686336267,52.172789842982326,40.60788100849391,39.0,39.0,60.0,19.5,1.5,13.5,9.5,8.06225774829855,9.219544457292889,9.5,42.0,21.0,46.2709412050371,{}
402,748,2.23606797749979,90.47098982546837,7.071067811865476,11.704699910719626,23.53720459187964,24.04163056034261,34.23448553724738,54.12947441089743,42.579337712087536,41.5,39.0,60.0,15.5,3.5,11.5,6.5,8.246211251235321,9.486832980505138,9.0,46.0,21.0,47.67598976424087,{}
403,749,2.23606797749979,89.05054744357274,8.06225774829855,13.341664064126334,22.56102834535696,23.769728648009423,36.6742416417845,57.48912940721924,44.14748010928823,43.5,41.0,60.0,14.5,5.5,11.5,5.5,8.246211251235321,9.219544457292889,9.0,46.0,22.0,46.389654018972806,{}
404,750,2.23606797749979,88.07383266328314,8.246211251235321,13.341664064126334,22.56102834535696,23.769728648009423,37.48332962798263,60.41522986797286,47.07440918375928,45.5,43.0,62.0,15.5,6.5,10.5,5.5,9.219544457292889,10.44030650891055,9.5,44.0,19.0,44.553338819890925,{}
405,751,2.23606797749979,86.83317338436964,8.246211251235321,11.704699910719626,21.587033144922906,24.04163056034261,34.23448553724738,55.31726674375732,43.73785545725808,42.5,41.0,63.0,18.0,2.0,14.0,8.0,8.246211251235321,9.486832980505138,9.5,45.0,19.0,47.51841748206689,{}
406,752,2.23606797749979,87.80091115700337,9.219544457292889,12.36931687685298,23.769728648009423,24.35159132377184,31.400636936215164,54.3415126767741,41.97618372363071,40.5,39.0,61.0,19.0,3.0,13.0,8.0,8.246211251235321,9.486832980505138,8.5,43.0,19.0,42.42640687119285,{}
407,753,3.0,89.73850901368932,9.055385138137416,12.649110640673518,23.769728648009423,24.04163056034261,31.25699921617557,53.36665625650534,40.79215610874228,40.0,38.0,60.0,18.0,3.0,13.0,7.0,8.246211251235321,8.54400374531753,8.0,44.0,20.0,44.40720662234904,{}
408,754,2.23606797749979,82.46211251235322,8.246211251235321,12.36931687685298,22.56102834535696,24.04163056034261,32.14031735997639,51.97114584074513,39.6232255123179,39.5,39.0,59.0,17.0,2.0,14.0,7.0,8.246211251235321,8.54400374531753,8.0,42.0,19.0,46.52956049652737,{}
409,755,2.23606797749979,87.55569655939013,9.219544457292889,14.560219778561036,22.56102834535696,23.08679276123039,33.06055050963308,57.87054518492115,43.41658669218482,42.5,41.0,62.0,18.5,5.5,12.5,8.5,8.54400374531753,10.44030650891055,9.5,44.0,19.0,47.51841748206689,{}
410,756,3.605551275463989,86.34813257969161,10.198039027185567,15.297058540778355,22.80350850198276,23.769728648009423,33.13608305156178,61.814237842102365,46.52956049652737,44.5,42.0,62.0,19.0,9.0,11.0,7.0,10.198039027185567,10.44030650891055,10.0,44.0,20.0,47.265209192385896,{}
411,757,6.324555320336759,86.34813257969161,10.198039027185567,13.601470508735444,23.53720459187964,24.04163056034261,33.015148038438355,62.64982043070834,49.25444142409901,46.0,44.0,64.0,21.0,8.0,9.0,9.0,11.40175425099138,11.40175425099138,10.5,44.0,20.0,43.41658669218482,{}
412,758,12.16552506059644,82.22530024268686,10.198039027185567,11.40175425099138,22.56102834535696,23.769728648009423,32.0624390837628,65.62011886609167,54.3323108288245,48.0,44.0,63.0,21.5,11.5,3.5,9.5,9.219544457292889,10.44030650891055,9.5,43.0,22.0,44.40720662234904,{}
413,759,10.198039027185567,82.0,9.055385138137416,9.486832980505138,22.36067977499789,23.769728648009423,30.066592756745816,58.54912467321779,49.25444142409901,44.0,42.0,60.0,21.0,7.0,6.0,10.0,12.16552506059644,12.16552506059644,12.0,44.0,23.0,46.2709412050371,{}
414,760,6.082762530298219,87.0976463516667,9.219544457292889,10.44030650891055,24.33105012119288,24.73863375370596,30.066592756745816,55.57877292636101,45.27692569068709,42.0,42.0,61.0,21.5,3.5,10.5,10.5,11.180339887498947,11.180339887498947,11.0,43.0,23.0,42.190046219457976,{}
415,761,4.242640687119285,85.14693182963201,8.06225774829855,11.40175425099138,24.515301344262525,24.73863375370596,29.068883707497267,51.78802950489621,40.44749683231337,38.5,39.0,58.0,19.5,2.5,11.5,9.5,11.180339887498947,11.04536101718726,11.0,43.0,22.0,43.28972164382672,{}
416,762,4.242640687119285,84.72307831990054,8.06225774829855,10.44030650891055,23.345235059857504,24.515301344262525,27.018512172212592,48.66210024238576,38.3275357934736,36.5,39.0,56.0,20.5,0.5,12.5,10.5,10.198039027185567,11.180339887498947,11.0,41.0,19.0,41.30375285612676,{}
417,763,6.324555320336759,86.34813257969161,8.06225774829855,11.40175425099138,23.53720459187964,24.73863375370596,28.0713376952364,53.60037313302959,42.2965719651132,39.0,39.0,59.0,21.0,4.0,11.0,11.0,11.180339887498947,11.180339887498947,10.5,41.0,20.0,43.28972164382672,{}
418,764,10.198039027185567,84.40379138403677,8.246211251235321,10.770329614269007,24.515301344262525,25.70992026436488,29.0,57.55866572463264,47.16990566028302,42.0,41.0,61.0,22.0,6.0,8.0,12.0,11.180339887498947,11.180339887498947,11.0,45.0,21.0,41.30375285612676,{}
419,765,11.180339887498947,83.19855767980596,8.06225774829855,11.40175425099138,22.56102834535696,24.73863375370596,29.017236257093817,59.4138031100518,48.16637831516918,42.5,41.0,60.0,21.5,8.5,5.5,11.5,10.44030650891055,12.36931687685298,11.5,42.0,22.0,43.28972164382672,{}
420,766,12.36931687685298,84.72307831990054,8.246211251235321,11.40175425099138,24.515301344262525,24.73863375370596,28.0713376952364,59.84145720150872,48.507731342539614,42.0,42.0,59.0,22.5,8.5,5.5,12.5,11.180339887498947,12.16552506059644,11.0,41.0,21.0,41.19465984809196,{}
421,767,13.152946437965904,82.97590011563598,8.246211251235321,11.40175425099138,23.345235059857504,24.73863375370596,29.017236257093817,61.5223536610881,50.24937810560445,43.5,43.0,61.0,23.0,9.0,5.0,13.0,10.198039027185567,11.180339887498947,10.5,42.0,20.0,43.28972164382672,{}
422,768,15.132745950421556,82.0,8.246211251235321,12.36931687685298,22.56102834535696,23.769728648009423,30.0,65.37583651472461,53.150729063673246,45.5,44.0,62.0,23.0,12.0,4.0,13.0,10.198039027185567,11.40175425099138,10.5,42.0,19.0,43.41658669218482,{}
423,769,18.110770276274835,86.12200647918046,8.246211251235321,12.36931687685298,23.53720459187964,24.73863375370596,29.017236257093817,67.47592163134935,55.22680508593631,46.0,44.0,63.0,24.5,13.5,2.5,13.5,12.16552506059644,12.16552506059644,11.5,44.0,22.0,39.20459156782532,{}
424,770,17.26267650163207,86.12200647918046,8.246211251235321,15.297058540778355,23.53720459187964,24.515301344262525,29.068883707497267,69.72087205421343,54.45181356024793,45.5,43.0,62.0,23.5,16.5,1.5,12.5,9.219544457292889,10.198039027185567,10.0,42.0,21.0,40.44749683231337,{}
425,770,5.0990195135927845,34.713109915419565,4.123105625617661,6.324555320336759,7.280109889280518,7.280109889280518,12.041594578792296,17.72004514666935,11.40175425099138,13.5,14.0,21.0,5.5,0.5,7.5,0.5,6.324555320336759,7.0,6.5,20.0,8.0,14.560219778561036,{}
426,771,16.1245154965971,83.43260753446461,8.06225774829855,11.40175425099138,22.80350850198276,23.769728648009423,28.284271247461906,63.788713735268246,52.46903848937962,44.0,41.0,61.0,23.0,12.0,2.0,12.0,11.180339887498947,11.180339887498947,11.0,44.0,21.0,42.42640687119285,{}
427,772,4.47213595499958,85.14693182963201,8.06225774829855,9.486832980505138,23.769728648009423,24.73863375370596,30.26549190084312,51.97114584074513,42.579337712087536,40.0,40.0,59.0,19.5,1.5,11.5,8.5,10.04987562112089,10.04987562112089,10.0,41.0,21.0,38.47076812334269,{}
428,773,2.23606797749979,84.17244204607586,9.055385138137416,11.40175425099138,23.769728648009423,23.769728648009423,29.42787793912432,49.24428900898052,37.8549864614954,37.5,37.0,56.0,17.5,1.5,12.5,6.5,10.198039027185567,11.180339887498947,10.5,42.0,22.0,39.319206502675,{}
429,774,1.4142135623730951,85.37564055396598,8.06225774829855,10.44030650891055,23.53720459187964,24.73863375370596,30.4138126514911,50.00999900019995,39.6232255123179,38.5,38.0,58.0,18.0,1.0,13.0,8.0,9.219544457292889,10.198039027185567,9.5,43.0,22.0,38.47076812334269,{}
430,775,4.47213595499958,87.32124598286491,8.06225774829855,9.848857801796104,22.80350850198276,22.80350850198276,29.068883707497267,50.80354318352215,41.30375285612676,39.0,39.0,59.0,20.0,1.0,11.0,9.0,11.180339887498947,11.40175425099138,11.0,45.0,19.0,43.56604182158393,{}
431,776,7.615773105863909,86.34813257969161,7.280109889280518,8.94427190999916,22.56102834535696,23.769728648009423,31.016124838541646,53.9351462406472,45.39823785126467,41.5,42.0,62.0,21.0,1.0,11.0,12.0,10.198039027185567,11.40175425099138,10.5,42.0,17.0,45.39823785126467,{}
432,777,8.54400374531753,87.32124598286491,8.06225774829855,10.44030650891055,24.515301344262525,24.73863375370596,30.066592756745816,56.71860364994893,46.389654018972806,42.0,42.0,62.0,22.0,4.0,10.0,11.0,9.219544457292889,10.198039027185567,10.0,45.0,19.0,45.39823785126467,{}
433,778,8.54400374531753,87.55569655939013,8.246211251235321,9.486832980505138,23.53720459187964,24.04163056034261,30.01666203960727,55.731499172371095,46.389654018972806,42.0,42.0,63.0,22.5,2.5,10.5,12.5,10.198039027185567,11.180339887498947,11.0,43.0,20.0,45.27692569068709,{}
434,779,9.219544457292889,84.40379138403677,8.246211251235321,10.44030650891055,21.587033144922906,24.04163056034261,30.01666203960727,57.55866572463264,47.265209192385896,42.5,42.0,62.0,22.0,5.0,8.0,12.0,11.180339887498947,11.180339887498947,11.0,42.0,17.0,45.5411901469428,{}
435,780,9.219544457292889,84.17244204607586,8.06225774829855,10.770329614269007,23.53720459187964,25.0,30.066592756745816,57.706152185014034,47.265209192385896,42.5,42.0,61.0,21.5,5.5,8.5,11.5,10.198039027185567,11.180339887498947,11.0,41.0,19.0,42.42640687119285,{}
436,781,4.242640687119285,85.37564055396598,8.06225774829855,10.44030650891055,25.495097567963924,25.96150997149434,30.14962686336267,51.97114584074513,41.593268686170845,39.5,39.0,59.0,19.0,2.0,12.0,8.0,11.180339887498947,10.04987562112089,10.0,41.0,20.0,41.43669871020132,{}
437,782,3.0,87.55569655939013,8.06225774829855,13.341664064126334,25.495097567963924,26.92582403567252,29.017236257093817,50.635955604688654,37.33630940518894,37.0,37.0,58.0,18.5,2.5,14.5,8.5,9.219544457292889,10.198039027185567,10.0,42.0,21.0,43.28972164382672,{}
438,783,2.23606797749979,88.76936408468859,8.06225774829855,12.649110640673518,22.56102834535696,23.08679276123039,30.01666203960727,49.64876634922564,37.21558813185679,37.5,38.0,60.0,19.0,0.0,15.0,9.0,10.198039027185567,11.180339887498947,10.5,41.0,20.0,42.2965719651132,{}
439,784,2.8284271247461903,82.76472678623425,9.219544457292889,12.36931687685298,23.53720459187964,24.73863375370596,29.017236257093817,52.61178575186362,40.311288741492746,39.0,40.0,57.0,19.5,3.5,12.5,8.5,9.219544457292889,10.198039027185567,10.0,40.0,22.0,44.28317965096906,{}
440,785,5.385164807134504,83.95236744726142,10.04987562112089,11.40175425099138,22.36067977499789,22.80350850198276,29.0,55.326304774492215,44.10215414239989,41.5,41.0,59.0,21.0,5.0,10.0,10.0,10.198039027185567,11.180339887498947,11.0,41.0,23.0,39.319206502675,{}
441,786,8.246211251235321,86.68333173107735,10.04987562112089,12.36931687685298,23.53720459187964,24.73863375370596,29.017236257093817,59.4138031100518,47.16990566028302,43.0,43.0,60.0,22.5,7.5,7.5,10.5,10.04987562112089,10.04987562112089,10.0,41.0,25.0,38.2099463490856,{}
442,787,10.198039027185567,82.37718130647589,9.055385138137416,13.341664064126334,23.345235059857504,25.70992026436488,29.0,61.29437168288782,48.0936586256442,43.0,43.0,58.0,21.5,10.5,5.5,11.5,11.180339887498947,11.04536101718726,11.0,41.0,24.0,40.049968789001575,{}
443,788,9.219544457292889,84.34453153583817,8.06225774829855,10.44030650891055,22.36067977499789,23.53720459187964,30.0,57.3149195236284,47.09564735726647,42.5,45.0,60.0,22.5,4.5,8.5,12.5,12.041594578792296,12.16552506059644,11.5,43.0,22.0,42.190046219457976,{}
444,789,11.180339887498947,84.34453153583817,8.06225774829855,8.54400374531753,23.345235059857504,23.53720459187964,29.0,56.32051136131489,48.0936586256442,42.5,44.0,59.0,22.5,4.5,6.5,12.5,12.041594578792296,11.04536101718726,11.0,40.0,22.0,45.27692569068709,{}
445,790,10.44030650891055,85.5102333057278,7.071067811865476,8.54400374531753,23.345235059857504,24.73863375370596,29.017236257093817,54.589376255824725,46.2709412050371,41.0,43.0,59.0,22.0,3.0,8.0,13.0,9.055385138137416,10.198039027185567,10.0,39.0,23.0,41.19465984809196,{}
446,791,4.47213595499958,82.56512580987206,7.280109889280518,11.40175425099138,22.36067977499789,23.53720459187964,29.017236257093817,51.62363799656123,40.311288741492746,38.0,42.0,58.0,21.0,1.0,13.0,12.0,11.04536101718726,12.16552506059644,11.5,42.0,22.0,46.2709412050371,{}
447,792,5.0,86.49277426467485,8.06225774829855,12.36931687685298,23.53720459187964,24.515301344262525,30.0,54.45181356024793,42.190046219457976,40.0,45.0,61.0,23.0,1.0,13.0,13.0,12.041594578792296,12.16552506059644,11.5,44.0,24.0,45.27692569068709,{}
448,793,7.280109889280518,86.68333173107735,8.06225774829855,12.36931687685298,22.36067977499789,23.769728648009423,28.0178514522438,55.44366510251645,43.18564576337837,39.5,42.0,59.0,22.5,4.5,9.5,12.5,10.198039027185567,11.04536101718726,10.5,43.0,24.0,45.27692569068709,{}
449,794,8.246211251235321,83.54639429682169,7.071067811865476,12.36931687685298,23.194827009486403,24.515301344262525,29.0,56.32051136131489,44.10215414239989,40.0,44.0,60.0,23.0,4.0,11.0,14.0,12.16552506059644,12.16552506059644,12.0,44.0,24.0,48.25971404805462,{}
450,795,4.242640687119285,80.4114419718985,8.06225774829855,11.180339887498947,23.194827009486403,23.345235059857504,30.01666203960727,52.46903848937962,41.30375285612676,39.5,44.0,59.0,21.5,0.5,12.5,12.5,11.04536101718726,11.180339887498947,10.5,40.0,23.0,44.181444068749045,{}
451,796,3.605551275463989,82.56512580987206,8.246211251235321,11.40175425099138,23.194827009486403,23.345235059857504,29.0,51.47815070493501,40.19950248448356,38.5,42.0,58.0,21.0,1.0,12.0,12.0,12.16552506059644,12.041594578792296,11.5,40.0,23.0,43.10452412450461,{}
452,797,7.280109889280518,81.78630692236935,8.06225774829855,10.198039027185567,22.56102834535696,22.36067977499789,29.017236257093817,54.3323108288245,44.181444068749045,40.5,42.0,59.0,21.5,3.5,9.5,11.5,11.04536101718726,10.198039027185567,10.0,41.0,22.0,41.30375285612676,{}
453,798,9.219544457292889,84.72307831990054,7.071067811865476,10.44030650891055,22.36067977499789,23.769728648009423,29.017236257093817,55.44366510251645,45.17742799230607,40.5,42.0,59.0,21.5,4.5,8.5,12.5,10.198039027185567,11.180339887498947,10.5,44.0,20.0,44.28317965096906,{}
454,799,8.246211251235321,82.76472678623425,7.071067811865476,10.44030650891055,22.36067977499789,23.53720459187964,30.066592756745816,55.57877292636101,45.27692569068709,41.0,43.0,60.0,21.5,3.5,9.5,12.5,11.04536101718726,12.36931687685298,11.5,42.0,20.0,40.311288741492746,{}
455,800,6.324555320336759,81.78630692236935,8.06225774829855,10.44030650891055,21.37755832643195,22.56102834535696,32.0624390837628,56.56854249492381,46.2709412050371,43.0,44.0,61.0,20.5,3.5,9.5,10.5,11.04536101718726,11.40175425099138,11.0,44.0,22.0,41.19465984809196,{}
456,801,2.23606797749979,82.76472678623425,9.055385138137416,9.219544457292889,21.37755832643195,21.840329667841555,36.12478373637688,53.60037313302959,44.40720662234904,44.5,43.0,60.0,15.5,1.5,10.5,5.5,11.180339887498947,11.180339887498947,11.0,43.0,22.0,45.27692569068709,{}
457,802,1.4142135623730951,87.47571091451616,7.071067811865476,8.54400374531753,22.36067977499789,22.80350850198276,37.05401462729781,51.47815070493501,43.18564576337837,43.5,44.0,60.0,15.0,1.0,12.0,7.0,11.04536101718726,12.16552506059644,11.5,43.0,21.0,44.40720662234904,{}
458,803,2.23606797749979,85.5102333057278,8.06225774829855,11.40175425099138,21.37755832643195,21.587033144922906,35.05709628591621,53.60037313302959,42.2965719651132,42.5,42.0,58.0,15.0,3.0,11.0,6.0,9.219544457292889,11.180339887498947,10.5,43.0,23.0,43.18564576337837,{}
459,804,2.23606797749979,86.49277426467485,9.055385138137416,12.36931687685298,21.37755832643195,22.56102834535696,35.12833614050059,58.54912467321779,46.2709412050371,45.0,44.0,60.0,17.0,6.0,9.0,7.0,11.04536101718726,10.04987562112089,10.0,40.0,22.0,43.28972164382672,{}
460,805,7.280109889280518,86.88498144098322,10.04987562112089,11.40175425099138,22.36067977499789,23.769728648009423,34.0147027033899,62.39390995922599,51.15662224971465,47.5,46.0,64.0,21.0,7.0,8.0,10.0,11.04536101718726,11.180339887498947,10.5,43.0,22.0,43.28972164382672,{}
461,806,10.198039027185567,81.39410298049853,9.055385138137416,12.36931687685298,21.37755832643195,23.53720459187964,33.015148038438355,64.38167441127949,52.15361924162119,47.0,47.0,62.0,21.5,9.5,5.5,11.5,11.04536101718726,11.180339887498947,11.0,43.0,23.0,42.190046219457976,{}
