,video_id,frame_seq,gap,time_seconds,m1,m3,m4,m5,m6,m7,m8,m9,m10,m11,m12,m13,m14,m15,m16,m17,e1,e2,e3,b1,b2,b3,label_measures
0,97,0,0,0.0,65.66839104152336,204.97463782916884,21.8894636805079,37.809073629968,55.71863482311073,63.67843979784084,29.915526824791183,155.2289525808304,117.42398615988786,84.57292785650748,69.64829352888853,67.658342285206,38.804049251809374,86.56287910018989,44.77390298285684,18.904536814984,17.909561193142736,18.01977491766081,17.909561193142736,69.64829352888842,69.64829352888842,71.63824477257094,{}
1,97,1,0,0.0333333333333333,65.33932921355472,201.9676322095784,21.7797764045182,39.59959346276037,57.453537959689385,63.359349540416815,29.69969509707028,156.41839417790356,116.8188007151432,84.14913610836584,71.27926823296878,69.29928855983076,40.58958329932955,86.12911578150374,44.54954264560536,20.789786567949363,17.819817058242165,17.929478505948204,18.80980689481117,71.27926823296872,71.27926823296872,73.2592479061068,{}
2,97,2,0,0.0666666666666666,65.65864168861549,206.93376954141337,21.886213896205163,37.803460366172544,59.72282598626775,61.67933007112356,29.8448371311888,155.193153082182,117.38969271600944,84.5603718717017,69.6379533061073,67.64829749736134,38.79828827054553,86.55002768044767,46.75691150552916,18.90173018308633,14.068991145914485,15.917246469967438,15.917246469967438,67.6482974973614,67.6482974973614,73.61726492359912,{}
3,97,3,0,0.0999999999999999,68.64226237875245,203.891804136421,19.60407493444552,37.24774237544659,56.885607397458,62.73303979022603,31.4277229189591,156.83259947556462,119.58485710011804,85.27772596483828,70.57466976400406,68.6142622705595,38.22794612216887,87.23813345828285,48.02998358939169,20.5842786811678,13.722852454111887,15.68325994755645,16.663463694278732,68.61426227055955,68.61426227055955,74.49548475089341,{}
4,97,4,0,0.1333333333333332,68.9245516795578,206.81116159712408,21.75133017852853,35.446912292343995,57.14285714285721,63.04749534479572,31.569846280021107,157.54183241041778,122.0949201180738,87.63264427829483,72.86309748981819,68.9245516795578,39.3854581026045,86.64800782572979,49.231822628255486,19.692729051302194,15.7541832410418,15.754183241041744,16.7388196936069,66.95527877442754,68.9245516795578,76.8016433000787,{}
5,97,5,0,0.1666666666666665,64.70760272174518,205.83068995674748,21.64820923372149,35.27886192227129,58.83075974793268,62.74859328987286,31.4201767035362,152.88763151089074,117.61253807995134,85.25724964548897,72.51766061800208,68.59778707108308,39.1987354691903,82.31734448529971,45.07854578956892,19.59936773459515,15.67949418767614,17.7479823300743,17.639430961135645,64.67791352416401,68.59778707108302,74.5033815699704,{}
6,97,6,0,0.1999999999999998,60.12337638087638,203.72679711215227,23.273565050661773,36.90081455369722,58.31306686465677,62.06284013509821,29.156533432328384,149.38907626338397,112.50561601764034,82.42720955442724,69.82069515198543,64.00230388931993,37.81954320732541,82.42720955442735,43.63793446999091,18.424905665107303,17.455173787996387,17.562591255936475,18.424905665107303,65.94176764354182,71.76015890620727,79.61256569718907,"{'others': (['m1', 'm3', 'm12', 'e1', 'e2'], 6.890881361682598, 233)}"
7,97,7,0,0.2333333333333331,51.87453919175709,203.8005489305084,23.13526555217812,34.63635387906412,57.76632016008919,61.510948000814736,30.740467669189343,140.30601165387597,105.68782234440349,79.73308801695987,71.08733148500039,63.40221456770303,36.504305357162366,73.00861071432473,36.504305357162366,17.291513063918956,17.397923379435703,15.370233834594671,16.330873449256842,65.32349379702731,71.08733148500033,75.02835239078276,"{'others': (['m1', 'm3', 'm12', 'e1', 'e2'], 6.890881361682598, 233)}"
8,97,8,0,0.2666666666666664,45.63983243081032,205.45846648004544,22.899014948993145,34.28265750684813,57.08147606749762,60.971847796083146,30.42655495387362,133.170499973172,98.90458709910833,76.06638738468394,66.55808896159851,60.85310990774724,33.27904448079926,69.41057848852404,33.27904448079914,12.360787950011172,17.22026084587683,17.220260845876748,18.065767003862447,62.754769592364255,70.36140833083266,76.16141101621747,"{'others': (['m1', 'm3', 'm12', 'e1', 'e2'], 6.890881361682598, 233)}"
9,97,9,0,0.2999999999999997,40.19095145074065,200.76371395909337,24.851951941746165,36.32208360716754,55.47192007258387,59.262346938010296,28.67532916355333,130.00888131545054,93.6922469302032,73.60001151978679,64.99741277072076,61.17403554891371,34.4103949962639,66.9091013816244,30.587017774456854,11.470131665421263,17.311076635922635,17.311076635922557,18.161041803583714,68.82078999252792,72.64416721433503,76.49143681117796,"{'others': (['m1', 'm3', 'm12', 'e1', 'e2'], 6.890881361682598, 233)}"
10,97,10,0,0.333333333333333,40.15417479293967,198.8955382263901,22.945242738822685,34.470937176163794,53.57303354933402,59.3060427698305,30.65335198231876,128.11093862509324,93.71258374653792,73.61598712038926,65.01152109333088,61.18731397019371,32.50576054666556,65.01152109333088,28.68155342352827,11.4726213694114,19.216402968466262,17.208932054116985,18.164983834901307,68.83572821646806,68.83572821646806,72.68509024267478,"{'others': (['m1', 'm3', 'm12', 'e1', 'e2'], 6.890881361682598, 233)}"
11,97,11,0,0.3666666666666663,28.539089649269727,194.1031120295279,24.733877696033687,36.19954750848422,53.27296734530319,55.17557332192132,30.50109411285845,119.86417652693262,83.73628070246713,69.44511814655618,62.785997228393285,58.98078527515736,30.441695625887743,58.980785275157245,20.928665742797648,7.610423906471965,19.120953421011933,19.026059766179745,19.97736275448869,70.39642113486514,70.39642113486514,74.22602146446647,"{'others': (['m1', 'm3', 'm12', 'e1', 'e2'], 6.890881361682598, 233)}"
12,97,12,0,0.3999999999999997,19.12874499450387,196.0575100143845,24.74395647304698,32.4134150000909,47.62258408939889,51.42652993505513,30.513522965705587,106.60634408184396,74.23186941914082,64.71496308335361,59.00481928188117,57.101438014723726,27.5990283737832,48.536222312515065,16.178740770838317,4.7584531678937765,19.033812671574537,19.128744994503894,19.98550330515326,70.42510688482594,72.32848815198338,74.32941462471663,"{'others': (['m1', 'm3', 'm12', 'e1', 'e2'], 6.890881361682598, 233)}"
13,97,13,0,0.433333333333333,17.127135356874305,192.2421987776837,22.915335584842165,30.50765189217469,49.51497394985418,51.41663501276012,34.30709151723486,104.6831258880958,74.21758654645544,65.65401886801828,60.89648126888653,57.09045118958113,24.739195515485108,45.67236095166493,15.224120317221605,3.806030079305401,19.030150396527063,19.12506445363208,19.03015039652701,68.50854142749739,72.31457150680279,76.14438555843849,"{'others': (['m1', 'm3', 'm12', 'e1', 'e2'], 6.890881361682598, 233)}"
14,97,14,0,0.4666666666666663,18.9267620508216,189.4189740873885,22.790839530526547,32.23111436193955,49.24596550075355,51.13729508506945,32.23111436193955,106.00676503233464,73.81437199820436,64.35099097279362,62.458314767711386,54.88760994738277,26.49746687115021,47.31690512705416,15.141409640657344,5.678028615246376,19.02116045213085,18.92676205082165,18.92676205082165,68.13634338295799,75.7070482032866,75.91967568825831,"{'others': (['m1', 'm3', 'm12', 'e1', 'e2'], 6.890881361682598, 233)}"
15,97,15,0,0.4999999999999996,20.70960898466558,186.5385555274621,22.670610479877897,32.06108480792091,50.86752931217713,52.71536832460333,33.940707767736924,109.21234899606723,77.19036076102611,66.83555626869338,64.01151867987528,56.480751776360535,26.357684162301663,48.94998487284579,15.061533807029493,5.648075177636088,18.920817677994226,18.826917258786864,18.826917258786864,67.77690213163271,75.30766903514746,75.40174486075311,"{'others': (['m1', 'm3', 'm12', 'e1', 'e2'], 6.890881361682598, 233)}"
16,97,16,0,0.533333333333333,18.837770674218632,184.76386633306325,22.683679722720257,33.96027404066343,49.01441684756683,52.77938604416931,35.84130307881555,111.15881004396525,77.23485976429629,67.81597442718692,65.93219735976504,58.39708909007766,26.372878943906017,48.97820375296829,15.070216539374885,5.651331202265624,20.806997785572733,18.83777067421857,19.779659207929512,65.9321973597651,73.46730562945254,73.68434393281309,"{'others': (['m1', 'm3', 'm12', 'e1', 'e2'], 6.890881361682598, 233)}"
17,97,17,0,0.5666666666666663,7.563849404642951,183.57923747610147,26.47347291625033,37.8664915725824,45.38309642785771,47.311862910432815,35.97801242550315,107.85118316337294,69.99115587347492,66.18368229062582,64.29271993946509,56.728870534822136,24.582510565089592,47.27405877901856,9.45481175580369,0.0,19.003936433387807,17.01866116044664,17.96414233602701,66.18368229062588,75.63849404642957,75.85092899321221,"{'others': (['m1', 'm3', 'm12', 'e1', 'e2'], 6.890881361682598, 233)}"
18,97,18,0,0.5999999999999996,3.794026620537352,184.1666793457669,26.62585062245502,36.09313977419826,45.56782341869284,47.463257858944544,36.09313977419826,102.59668140617048,66.50377827375338,64.49845254913475,64.49845254913475,56.91039930806005,24.66117303349268,41.73429282591076,5.691039930806028,0.0,19.06474781981095,20.86714641295538,20.86714641295538,66.39546585940349,77.77754572101549,74.20208241002972,"{'others': (['m1', 'm3', 'm12', 'e1', 'e2'], 6.890881361682598, 233)}"
19,97,19,0,0.633333333333333,5.977677692181054,185.49110489899527,24.646596520760617,37.85338144371113,47.4086749889884,51.07330059029557,35.91584558877469,104.1214681105244,66.26869773661953,63.32530669599737,66.160768189848,56.7092298770126,25.51915344465567,42.53192240775934,4.725769156417641,2.83546149385063,18.997356894450974,18.90307662567085,18.90307662567085,64.27046052728087,73.72199884011633,73.93978956228209,"{'others': (['m1', 'm3', 'm12', 'e1', 'e2'], 6.890881361682598, 233)}"
20,97,20,0,0.6666666666666663,20.89944384878774,185.6715689821845,22.784463935378326,34.11116047190726,49.23218924919024,53.11509012779661,35.9507880737508,113.67062686529437,79.56021431561598,69.06335603641594,70.00942940677783,60.54869570315918,29.328274481217704,48.24974188845499,12.298953814704191,8.514660333256757,20.8994438487878,18.921467407237287,19.86754077759912,64.33298918460662,75.68586962894898,73.89069234252663,"{'others': (['m1', 'm3', 'm12', 'e1', 'e2'], 6.890881361682598, 233)}"
21,97,21,0,0.6999999999999996,32.21236863349698,189.39384113286349,22.77758429882653,35.98967681772602,52.99787907238178,54.888290802364025,34.048357524091216,124.972882091014,88.9845008117048,72.82565359319494,71.87986588419244,62.42198879416708,33.102569815088486,57.69305024915445,19.86154188905323,12.29524021703287,19.010097678920616,17.02417876204555,17.96996647104811,66.2051396301772,73.77144130219745,75.7575364531453,"{'others': (['m1', 'm3', 'm12', 'e1', 'e2'], 6.890881361682598, 233)}"
22,97,22,0,0.733333333333333,38.23963292417235,196.83666479473908,22.9151536925084,34.42573400978214,55.41120238026095,57.31970199780687,34.37273053876265,129.90869004219354,95.49890110431453,76.38384564169473,70.65505721856766,63.01667265439824,32.463134397720296,63.01667265439812,26.73434597459311,11.457576846254256,21.09217877484059,19.095961410423683,20.050759480944865,66.83586493648284,72.56465335960996,74.5721132084438,"{'others': (['m1', 'm3', 'm12', 'e1', 'e2'], 6.890881361682598, 233)}"
23,97,23,0,0.7666666666666663,35.850448145008386,196.18914559649704,22.611092657157545,35.850448145008386,54.67595147198154,58.44237271585242,32.03238126430631,126.30150131067175,90.46399618395004,72.54392227504684,69.71753569290217,60.29624708575318,32.974510125021425,61.23837594646807,23.55322151787232,12.24767518929366,20.812306782614712,18.84257721429788,18.84257721429788,65.94902025004262,69.71753569290217,73.58261629060806,"{'others': (['m1', 'm3', 'm12', 'e1', 'e2'], 6.890881361682598, 233)}"
24,97,24,0,0.7999999999999996,32.17549548639681,200.846746674766,22.79083953052657,36.010620720238805,54.92023260104892,56.81182199835771,30.282819281314687,121.19040882374044,85.19145636868669,69.08268148549905,66.24366717787586,56.78028615246501,31.22915738385575,59.6193004600882,23.65845256352702,10.409719127951917,19.02116045213085,17.03408584573947,17.98042394828053,66.2436671778758,68.13634338295799,72.02124144047762,"{'others': (['m1', 'm3', 'm12', 'e1', 'e2'], 6.890881361682598, 233)}"
25,97,25,0,0.8333333333333329,30.282819281314573,204.54918034027847,20.905291973772503,34.12070552637179,55.01798450148069,58.7949436999413,30.282819281314687,115.51528679955636,81.40708170654331,66.24366717787586,62.4583147677115,54.88760994738288,28.390143076232448,56.78028615246501,22.71211446098596,9.463381025410854,19.30158580525338,18.92676205082165,18.92676205082165,66.24366717787575,71.92169579312224,72.02124144047762,"{'others': (['m1', 'm3', 'm12', 'e1', 'e2'], 6.890881361682598, 233)}"
26,97,26,0,0.8666666666666663,28.186845783415883,200.8397548376305,22.49953309558839,32.09416418148919,54.503025919053904,58.24463344892188,31.8743385520836,114.51085983517912,82.51959164256546,68.43607983241475,63.7486771041672,54.37387164767199,27.18693582383605,55.311352193321454,23.43701364123785,8.437324910845746,18.84312576199636,18.749610912990363,18.749610912990363,61.8737160128681,69.37356037806427,73.2195712782793,"{'others': (['m1', 'm3', 'm12', 'e1', 'e2'], 6.890881361682598, 233)}"
27,97,27,0,0.8999999999999996,28.49881999516392,203.6093963750189,22.5990604125908,32.07067760607674,56.62306217587203,58.41127324922172,30.132080550121145,113.13645802312804,81.06751241372274,66.85555372058127,62.147416134624905,52.73114096271195,27.30719799854728,55.55602351428581,23.54068792978217,8.474647654721593,13.316624055156248,13.182785240677958,14.124412757869266,64.03067116900746,73.4469463409203,75.42430534875218,"{'others': (['m1', 'm3', 'm12', 'e1', 'e2'], 6.890881361682598, 233)}"
28,97,28,0,0.9333333333333328,28.29397549172999,205.4580789491982,20.78833318068524,30.172153957735365,52.83270686472397,56.58795098345974,32.0507910141309,111.10692920662846,80.95163367754225,66.81409749902934,62.10887936529491,50.81635584433218,24.46713429541921,54.58053035131968,24.46713429541921,7.528349013975117,6.785962097368957,4.208475038397905,3.7641745069875583,63.99096661878866,75.28349013975134,73.42552824529395,"{'others': (['m1', 'm3', 'm12', 'e1', 'e2'], 6.890881361682598, 233)}"
29,97,29,0,0.9666666666666662,24.439790323312376,199.00936089433463,22.49335621530168,30.049660976770426,54.488063001159546,58.22864333363252,31.9206711380654,108.863222415133,78.81595556036703,66.54284547026748,63.73117594335474,52.48449783570391,26.24224891785184,50.610051484428936,20.61890986402659,5.623339053825362,5.927519821821486,4.191389461627636,4.68611587818782,65.60562229462994,74.97785405100564,73.12743511457784,"{'others': (['m1', 'm3', 'm12', 'e1', 'e2'], 6.890881361682598, 233)}"
30,97,30,0,0.9999999999999996,21.09217877484059,200.73479895577927,21.09217877484059,28.70752475128717,51.59444658076335,55.50982815224605,34.37273053876265,105.1839114028176,76.4792658483447,65.88106686596177,64.92626879544059,55.37828809022869,25.779547904072047,44.875509314495616,16.231567198860034,6.683586493648363,6.038673216762045,6.038673216762045,5.728788423127128,64.92626879544048,72.56465335960996,72.58977527601422,"{'others': (['m1', 'm3', 'm12', 'e1', 'e2'], 6.890881361682598, 233)}"
31,97,31,0,1.0333333333333328,13.252145935354749,191.29386449172324,24.68383475881756,30.34972298438909,51.115420036368505,53.04237946288939,35.97011039596305,104.19282335157835,73.85765183846911,67.20731152929932,66.26072967677396,60.58123856162194,27.450873723234963,40.7030196585896,10.41240037777868,4.732909262626777,8.4664854740574,7.805713922509648,8.519236672728084,66.2607296767739,70.04705708687527,73.85765183846922,"{'others': (['m1', 'm3', 'm12', 'e1', 'e2'], 6.890881361682598, 233)}"
32,97,32,0,1.066666666666666,4.207031619116707,188.22881951384383,24.458742577973453,31.98450952504232,47.073657214410446,50.833756466153226,35.74739299857674,95.97197230976631,63.99668132988568,62.08757731331741,63.96901905008463,58.324693839783095,25.39946344635712,34.80667213019308,2.8221626051507656,2.8221626051507656,13.303802104754832,13.17009215737039,13.17009215737039,65.85046078685184,71.49478599715343,75.28118381885427,"{'others': (['m1', 'm3', 'm12', 'e1', 'e2'], 6.890881361682598, 233)}"
33,97,33,0,1.0999999999999992,3.819192282084714,190.99780220862905,24.89808751129817,30.613154973379764,49.68620909885757,51.59444658076335,36.3325444570288,95.49890110431453,64.92626879544048,63.01667265439812,64.92626879544048,61.10707651335576,26.73434597459311,32.463134397720296,1.909596141042357,3.819192282084714,15.395656284239838,13.50288380658719,14.321971057817734,64.92626879544054,68.74546107752525,74.5721132084438,"{'others': (['m1', 'm3', 'm12', 'e1', 'e2'], 6.890881361682598, 233)}"
34,97,34,0,1.1333333333333324,9.693861476543503,190.1977960133845,20.912349120790964,28.5801402091688,47.56607343973666,51.470942732194274,36.17132524430498,95.2270796911199,66.6478396992968,61.78648603870056,66.53929265706222,60.83592471502823,27.56627838649717,31.368523681186502,2.851683971016996,8.555051913050875,17.215397766541024,17.21539776654105,17.110103826101692,64.63817000971761,70.34153795175149,72.34265048860996,"{'others': (['m1', 'm3', 'm12', 'e1', 'e2'], 6.890881361682598, 233)}"
35,97,35,0,1.1666666666666656,1.918095739127125,190.0464126027667,26.921756612416026,30.74941389629432,51.82409307507567,51.82409307507567,36.49426033958873,92.24824168888318,61.49882779258887,62.33811152163196,67.13335086944983,59.46096791294133,26.853340347779977,28.771436086906988,1.918095739127125,1.918095739127125,17.6839689402267,17.262861652144238,18.2219095217078,63.29715939119552,69.05144660857695,74.90403312437816,"{'others': (['m1', 'm3', 'm12', 'e1', 'e2'], 6.890881361682598, 233)}"
36,97,36,0,1.1999999999999988,1.893439415196326,189.4953561312111,24.61471239755224,30.35414295426394,53.05010426879426,53.15137722944722,37.91609474123924,90.96395102619448,60.61963905777149,61.53678099388071,66.27037953187153,58.69662187108622,24.61471239755224,28.401591227945005,3.786878830392652,1.893439415196326,19.30936905178361,18.93439415196332,18.93439415196332,64.37694011667526,71.95069777746056,73.94117289443018,"{'others': (['m1', 'm3', 'm12', 'e1', 'e2'], 6.890881361682598, 233)}"
37,97,37,0,1.233333333333332,2.660760420950825,188.29462885764204,22.577300841206352,30.161805537373503,48.95365335693709,50.833756466153226,37.6758414179256,92.36326895106858,62.20149956932361,61.14685644493386,65.85046078685184,58.324693839783095,24.458742577973567,30.103067788274984,1.1368683772161605e-13,3.76288347353443,18.81441736767192,16.932975630904707,17.873696499288314,63.96901905008463,73.37622773392059,67.96667585330806,"{'others': (['m1', 'm3', 'm12', 'e1', 'e2'], 6.890881361682598, 233)}"
38,97,38,0,1.2666666666666653,1.889611482674696,189.1972022611596,22.753935385800293,30.469069634937327,49.16622380297248,51.0544908454011,37.83944045223186,92.89895838779915,62.47159586655202,61.41237318693027,66.13640189361718,56.688344480243245,23.62014353343477,31.17858946413378,0.9448057413372908,2.8344172240122134,18.99036037312338,18.990360373123305,18.89611482674775,64.24679041094242,75.58445930699105,73.9125583365118,"{'others': (['m1', 'm3', 'm12', 'e1', 'e2'], 6.890881361682598, 233)}"
39,97,39,0,1.2999999999999985,3.7831508360101225,189.3088073519093,24.663126029361543,34.100860805122494,47.32720183797722,51.21246130529908,37.83150836010134,100.32485196554694,66.23215662360136,64.3135642121722,68.09671504818232,60.53041337616207,26.482055852070857,35.93993294209622,1.8915754180050044,3.7831508360101225,19.010097678920616,18.91575418005061,19.861541889053115,64.31356421217214,73.7714413021975,74.15844168262693,"{'others': (['m1', 'm3', 'm12', 'e1', 'e2'], 6.890881361682598, 233)}"
40,97,40,0,1.3333333333333317,28.3546149385063,189.18193042821207,24.646596520760617,34.07800601894057,51.07330059029557,52.96235928884276,35.91584558877457,122.92814761960314,88.8645675212749,74.66715267139978,73.72199884011627,66.16076818984789,34.02553792620745,52.92861455187847,18.903076625670906,11.341845975402409,18.997356894450974,18.90307662567085,18.90307662567085,68.05107585241507,77.50261416525046,75.82466790028279,"{'others': (['m1', 'm3', 'm12', 'e1', 'e2'], 6.890881361682598, 233)}"
41,97,41,0,1.366666666666665,47.56514941544936,194.1031120295281,22.83127171941578,34.299717028501874,51.37036136868551,57.078179298539226,34.29971702850176,138.89023629311237,104.66062370273816,80.86075400626407,76.10423906471908,72.29902711148316,39.95472550897762,64.68860320501119,30.44169562588752,17.123453789561836,19.120953421011933,19.12095342101188,19.97736275448875,66.59120918162921,74.20163308810106,72.39909501696846,"{'others': (['m1', 'm3', 'm12', 'e1', 'e2'], 6.890881361682598, 233)}"
42,97,42,0,1.399999999999998,47.106443035744746,197.9277981788099,22.689467563416432,33.96893915402023,54.67595147198154,58.44237271585242,33.96893915402023,137.56371893378088,103.63417467863836,80.08095316076606,75.3703088571915,69.71753569290217,38.62728328931064,65.00689138932773,29.20599468216176,17.900448353582988,18.93655573850602,18.93655573850608,18.84257721429788,65.94902025004262,69.71753569290217,73.58261629060806,"{'others': (['m1', 'm3', 'm12', 'e1', 'e2'], 6.890881361682598, 233)}"
43,97,43,0,1.4333333333333311,41.71129696516212,200.80105038518127,22.806929798068904,34.14479464691154,53.03234801399344,54.9263604430646,34.14479464691143,132.5808700349836,98.506856286215,77.6545095919189,73.86648473377659,70.07845987563417,37.88024858142387,60.60839773027829,26.51617400699672,15.152099432569573,17.15101200165887,17.151012001658813,17.9931180761763,66.2904350174918,68.18444744656301,77.67760387037525,"{'others': (['m1', 'm3', 'm12', 'e1', 'e2'], 6.890881361682598, 233)}"
44,97,44,0,1.4666666666666646,35.48922921561359,196.2047223332115,24.2821042001566,35.538349279558815,52.29991673879909,56.03562507728452,31.75352087712793,127.02781698787372,91.52485429289813,73.78023968509126,72.8463126004699,67.24275009274152,38.29101046947778,56.969552161906,21.480322946292404,14.008906269321187,18.77170207928243,15.05912174866965,15.876760438563965,63.50704175425585,65.37489592349868,72.87025551405003,{}
45,97,45,0,1.4999999999999978,37.16069761224708,195.129050395382,22.296418567348383,35.30266273163477,52.024976657146,55.74104641837084,33.49620016824225,128.2178700762054,92.92032252176055,74.32139522449427,72.46336034388185,68.74729058265723,37.16069761224719,57.59908129898304,22.29641856734827,14.864279044898808,16.825221444038064,16.825221444038036,16.722313925511173,65.03122082143244,65.03122082143244,74.34461703266105,{}
46,97,46,0,1.533333333333331,39.37418291727977,198.781249154115,24.374494186887432,33.74929964338253,52.49891055637295,56.24883273897103,35.673567693552435,133.13544077881556,99.39062457705762,79.685846380209,74.99844365196145,71.24852146936337,37.499221825980726,59.998754921569,26.24945527818648,13.124727639093294,20.624572004289348,18.749610912990363,19.687091458639884,65.62363819546619,67.49859928676523,75.02187700471325,{}
47,97,47,0,1.5666666666666642,22.086071412097112,189.60784756545323,23.92657736310537,33.18019289578164,49.69366067721853,51.56702233231563,38.65062497117003,117.80675893974608,84.66327374637251,73.62023804032401,68.0987201872997,64.41770828528342,27.607589265121533,51.53416662822679,18.405059510080942,5.5215178530243065,18.49685588756422,18.496855887564163,19.325312485585016,66.25821423629162,69.93922613830779,75.55047142373196,{}
48,97,48,0,1.5999999999999974,7.464908473055857,188.5258903151286,22.472350350082625,28.055545378219083,48.5219050748633,50.388132193127376,41.05699660180733,98.9804358799406,70.9411818641602,67.18417625750294,67.18417625750294,63.45172202097501,24.26095253743165,33.59208812875147,3.732454236527929,1.8662271182639645,20.613152261290555,18.75535041931576,19.59538474177168,67.18417625750288,72.78285761229478,74.74233783966034,{}
49,97,49,0,1.6333333333333306,1.880028087829487,189.96658203113628,26.320393229612364,32.015724686441565,48.880730283565526,50.79556177512143,39.48058984441843,95.89986235596992,63.92095498620131,64.86096903011605,65.8009830740308,60.16089881054245,23.500351097868247,32.90049153701534,0.9400140439146298,0.9400140439146298,22.87152881711438,20.68030896612396,21.620323010038646,65.80098307403074,71.44106733751909,75.29506624001567,{}
50,97,50,0,1.666666666666664,2.63192071826715,186.18862711299585,24.19363683661697,35.40887186527049,48.38727367323395,50.282774720017606,39.12631433525153,100.65161325505036,65.24297354521326,64.20619006640663,66.99776354755477,61.4146165852585,25.12416133033298,36.29045525492552,0.9305244937161206,2.7915734811481343,22.40999739792902,18.610489874320763,19.541014368036823,63.27566557269057,70.71986152241891,70.93990656712708,{}
51,97,51,0,1.699999999999997,16.781825709708457,185.4724624980276,22.315996327664607,37.11115461371389,48.21993432032741,50.07185837961747,38.918095092349176,115.0354735587122,77.9243898619294,69.496598379195,72.2764623143629,64.863491820582,29.65188197512328,46.33106558613008,9.266213117226016,9.266213117226016,22.545669578888106,20.3856688578972,21.31229016961981,63.010249197136886,74.12970493780807,74.33790236587714,{}
52,97,52,0,1.7333333333333305,26.1321003635552,184.65987621360705,22.34202073069548,33.56470889250088,46.583098340723424,52.26420072711061,39.14284058333175,121.14810666140806,87.58543905263303,74.47340243565168,74.47340243565168,63.30239207030388,29.78936097426072,52.13138170495608,18.61835060891281,9.309175304456517,20.56464040200113,20.4801856698042,20.4801856698042,63.30239207030388,76.33523749654296,74.6825651573927,{}
53,97,53,0,1.7666666666666635,9.301118375578769,180.91093666437004,22.400059321614982,37.25095006447386,46.542781481500406,50.36364507291987,40.92492085254662,109.81623715686202,72.57256843232089,67.89816414172515,72.54872332951447,59.52715760370416,25.11301961406275,43.71525636522017,8.371006538020879,4.65055918778944,20.797932954566573,20.46246042627331,20.46246042627331,63.24760495393565,78.12939435486169,71.07904682347174,{}
54,97,54,0,1.7999999999999967,2.619784490655722,182.1456860272507,22.306661143418413,33.39583059815223,46.45964549496068,48.3064391602524,40.79636213608844,98.45999173872777,65.07409676441995,63.91012456135343,72.24622776500826,57.42648873628866,24.082075921669457,33.344412814619204,0.0,5.557402135769848,20.71121492313994,20.37714116448956,20.37714116448956,61.13142349346856,77.80362990077816,72.62522697033934,{}
55,97,55,0,1.83333333333333,3.718718564432152,180.8268725105684,20.53729453273444,31.66374760992885,46.52115437805946,46.63249355855132,39.22322702763683,95.1185404268274,63.46383013593572,61.35885631312976,68.79629344199407,55.780778466481706,23.24199102770069,32.538787438781014,0.9296796411080096,4.648398205540161,20.5372945327345,20.452952104376607,20.452952104376607,59.4994970309138,76.23373057085831,74.7453180849918,{}
56,97,56,0,1.8666666666666631,7.658726106140452,178.79476120691672,20.516911875476342,35.341612679950465,44.61901558043609,48.43803694159303,40.90750075108886,104.28580121984422,68.95355892957033,65.01298730972019,70.58552907912474,57.58293161718075,23.218924039185826,39.93654934739948,6.501298730971939,4.643784807837278,20.51691187547637,18.575139231348658,20.43265315448349,61.29795946345047,78.01558477166424,70.97550734566246,{}
57,97,57,0,1.8999999999999964,13.038072210764652,179.28256368352362,24.28509477589216,35.438034555380106,42.8798519110464,48.57018955178452,37.29817036499098,110.0342925336968,74.59634072998186,67.98423367041562,72.6406880314031,59.60261582063845,28.87001703812166,43.77067099328144,8.381617849777285,6.51903610538227,20.572887790864662,18.718714865339653,19.55710831614698,59.60261582063839,74.503269775798,69.14168366314564,{}
58,97,58,0,1.9333333333333296,20.377141164489444,183.7307740119624,22.306661143418435,35.391339574676834,46.34871900442557,50.05091241705964,37.095630347585626,115.09175730927126,79.74221200427729,69.46752669712339,72.24622776500826,61.13142349346856,29.639478057439305,48.164151843338914,12.967271650129646,9.262336892949747,18.891534623448507,18.52467378589955,18.52467378589955,61.13142349346856,75.95116252218821,74.30680547892342,{}
59,97,59,0,1.9666666666666628,26.000618676904026,185.83858197984293,20.46117096908861,33.54961113793573,48.3064391602524,52.00123735380803,37.0493475717991,116.94044220939428,83.44332330242698,70.39376038641831,77.8036299007781,62.98389087205851,33.344412814619204,46.31168446474896,12.96727165012976,14.819739028719596,20.46117096908855,20.37714116448956,21.303374853784533,61.13142349346856,74.09869514359826,68.76622401792653,{}
60,97,60,0,1.999999999999996,33.31483023263849,196.59007210461604,22.17569144070569,31.469868122945385,51.87511025478452,55.715735197862,35.305499175135026,122.19009449358146,90.72029323255326,73.91897146901897,79.46289432919536,62.83112574866618,36.03549859114685,50.81929288495053,21.25170429734294,17.555755723892048,20.411543147362018,20.327717153980245,20.327717153980245,60.983151461940736,72.07099718229358,72.28391048864013,{}
61,97,61,0,2.033333333333329,33.025438237779554,198.69551436026003,22.09327433590481,29.58439948038807,53.33403464017484,57.14285714285725,33.025438237779554,117.55271523195546,88.08694517084149,71.55511618185574,77.05935588815225,62.38138333802806,36.6949313753106,47.70341078790375,20.182212256420826,18.347465687655244,18.710817113265666,18.3474656876553,19.264838972038035,62.381383338028,73.3898627506212,69.93730473595828,{}
62,97,62,0,2.0666666666666624,35.197485157204085,199.82172792993805,18.515092629258007,31.373588875260587,55.392302444757824,59.21276794740497,35.004090917959616,119.97737023222535,88.60393679522971,70.92934212323405,77.3774641344371,58.95425838814253,33.161770343330204,51.58497608962489,22.107846895553507,16.580885171665045,18.515092629258007,18.42320574629457,18.42320574629457,60.79657896277206,73.69282298517828,75.89376940300176,{}
63,97,63,0,2.099999999999996,35.03582084360254,198.072731682416,20.33939014732535,31.520407379692823,55.51878500087024,57.351380835647205,34.98739535972106,121.75816331479584,90.3057808052004,72.73695351099911,79.18200002463198,58.9261395532144,34.06667442920207,52.48109303958165,23.01802326297445,17.493697679860475,16.977255103359486,14.84617891219452,14.7315348883036,60.76758141425245,79.18200002463198,74.02504666782721,{}
64,97,64,0,2.133333333333329,33.25667335204589,201.17253759916755,22.1118909596722,31.27093608488348,55.363536557825405,59.019026776131135,33.053266713951984,119.5848103664921,88.31402921128746,71.61541121356265,75.28799640400177,55.0887778565866,32.13512041634226,54.170631558976766,24.789950035463903,13.772194464146764,5.806867051395399,5.806867051395399,5.508877785658683,60.597655642245286,77.12428899922128,71.82697862046695,{}
65,97,65,0,2.166666666666662,33.409459972497594,200.26143663088905,20.375695851485627,33.25632184021563,53.78262518949656,57.45375274801607,33.25632184021563,120.26160593210663,87.01568464639915,70.09969535188861,73.78915300198798,53.49713592644128,30.438025613320065,56.26422916401589,24.90383913817095,13.835466187872726,4.124939052864541,2.6088405232858896,2.7670932375745565,60.87605122664013,79.3233394771371,70.31781074784173,{}
66,97,66,0,2.199999999999996,29.266429790482093,199.8249525577887,21.98301142249326,33.062836258803,55.04084923175371,56.8576690890886,32.911286937240135,117.19376094200877,84.1555284844926,69.37240982402534,71.1979995562366,52.94210223412461,29.209435715379072,54.76769196633586,23.73266651874553,10.95353839326708,4.082142740249955,1.8255897322111991,1.8255897322111991,62.0700508951806,82.15153794950373,69.75568572323135,{}
67,97,67,0,2.2333333333333285,27.536280818395788,195.38993772390515,21.835783862580683,32.80418264853491,54.86172797715386,60.29602896386906,32.95523877813243,114.99833992859791,82.20704609227502,68.23682457056486,70.96629755338734,54.58945965645182,30.02420281104844,51.85998667362924,19.10631087975821,11.827716258897908,4.068858088227088,1.819648655215076,1.819648655215076,63.68770293252709,81.88418948467768,73.14897063620494,{}
68,97,68,0,2.2666666666666617,27.43177801777968,201.54853860634907,20.15485386063496,31.234427372884007,53.19970217638324,56.831040216812426,33.04735152195177,111.84596880316698,80.61941544253972,66.60281766874391,67.51518503406908,49.26783772756392,25.54628622910718,52.91730718886504,23.721551498456733,9.12367365325258,4.0802308986394,2.5805646038192007,2.7371020959757857,60.216246111467,78.46359341797216,73.19438401354792,{}
69,97,69,0,2.299999999999995,27.65038627421742,199.8413526522074,20.181961665384488,31.276436943607983,55.08906523156646,56.90747663022267,32.94011735368469,111.99639900252788,80.72784666153807,66.69239689316396,67.60599137115264,51.16129076735877,26.494239861667893,52.07488524534722,21.0126729937366,10.049539257874017,5.168070805122362,4.085718713301593,4.5679723899427245,63.95161345919837,78.56912510701511,73.17886065849103,{}
70,97,70,0,2.333333333333328,27.45693063174501,196.2772468621264,20.17333415230088,33.07765314056616,53.24848179143587,56.73635399174011,34.70174929522807,115.29538657254206,82.26948723029594,68.49029466163427,71.22990644809965,52.965827871663805,27.39611786465366,52.965827871663805,21.916894291723,10.958447145861442,8.16794424866163,7.305631430574294,8.218835359396053,60.27145930223816,78.53553787867395,73.26149705610531,{}
71,97,71,0,2.3666666666666614,37.23413349402583,196.91998347745576,20.46117096908861,35.24559562163572,55.69738226722071,59.39462248069824,35.196880193209154,128.0348478032865,92.7899412131968,74.09869514359832,72.24622776500837,57.42648873628866,29.639478057439305,62.98389087205862,27.78701067884936,11.114804271539697,11.26811915908673,9.445767311724248,10.188570582244722,66.68882562923841,79.65609727936811,76.04147309216715,{}
72,97,72,0,2.3999999999999946,35.52449234330959,193.31392204172784,22.514291285028683,37.58070837407608,50.79283579033939,56.21581285139075,37.39420246664167,132.86786866551634,95.37354501981048,77.59297011828153,76.65811505661543,59.83072394662668,30.850217034979323,64.50499925495694,27.11079678831527,12.153115801658489,13.6116951589578,11.21826073999256,12.1531158016586,65.43985431662293,80.39753530327965,73.13411239834969,{}
73,97,73,0,2.433333333333328,22.12757053457665,184.72803649378187,24.04235184171732,35.228886790074256,47.978517237269536,50.09341834047329,38.72324843550916,119.98526487793109,84.84239443764916,73.75856844858902,71.91460423737419,60.850818970085925,27.659463168220896,53.474962125226966,18.439642112147222,5.531892633644134,16.697806113491104,16.595677900932515,16.595677900932515,64.53874739251529,77.44649687101838,73.96572351904184,{}
74,97,74,0,2.466666666666661,7.409869514359912,187.3283307064221,20.377141164489444,31.546382720283223,48.199763051045664,50.050912417059415,40.79636213608855,100.10182483411906,68.56632178098614,64.83635825064857,68.54129300782847,59.27895611487861,23.155842232374425,36.123113882504185,4.6311684464749305,4.6311684464749305,16.774805568967878,14.935069476507165,16.672206407309602,62.983890872058566,75.95116252218827,74.30680547892342,{}
75,97,75,0,2.4999999999999942,1.869710123332084,187.2045802098258,22.514291285028683,29.97373346681478,44.911978362488384,46.78013234004205,39.30840428990217,93.65362890317613,63.68003216501202,62.63528913162486,67.30956443995512,57.96101382329471,23.37137654165099,30.85021703497944,0.9348550616660988,2.8045651849980686,20.903994669950272,18.79035418703811,18.697101233320893,67.30956443995507,78.52782517994757,73.13411239834969,{}
76,97,76,0,2.5333333333333274,4.208475038398058,186.47866393502227,22.66333166848478,34.086049887930926,47.08980803774974,48.97044920102408,41.57666636137062,101.9111579959103,67.85962097369034,65.87305387228253,69.63722837927003,62.10887936529491,24.46713429541921,35.75965781638183,1.8820872534937507,3.764174506987615,19.193599263698104,18.82087253493779,18.82087253493779,65.87305387228241,77.16557739324514,73.49785680813932,{}
77,97,77,0,2.5666666666666607,13.128045187880955,183.8309028301511,22.505220322081755,35.63326550996271,45.04949526378342,48.76131069784356,39.42876349361336,110.66655895946116,75.04084034962627,68.45337847966516,69.39109599308517,65.6402259394049,28.131525402602165,43.13500561732326,7.501740107360547,7.501740107360547,18.847888755236937,16.878915241561288,17.816632754981356,69.39109599308523,76.89283610044578,75.04084034962617,{}
78,97,78,0,2.599999999999994,16.575611632648588,178.6862285821907,23.942550136048,38.67642714284682,44.20163102039624,47.92050515698621,36.83469251699694,116.02928142854034,77.35285428569352,69.06504846936923,71.827650408144,68.14418115644435,33.15122326529729,46.04336564624612,7.366938503399297,9.208673129249291,16.677616359313735,16.67761635931382,16.575611632648588,68.14418115644429,73.66938503399382,73.69240312080272,{}
79,97,79,0,2.633333333333327,20.27111734494088,175.07843953685727,20.27111734494088,36.8565769908015,44.22789238896166,46.10756308464417,40.584095552545456,117.9554425923299,81.1054079131995,70.94891070729295,73.71315398160311,71.87032513206304,32.2495048669515,45.14930681373176,8.292729822930255,11.97838752201062,16.687524976256118,16.687524976256086,17.506874070630715,73.71315398160306,75.55598283114313,71.87032513206304,{}
80,97,80,0,2.6666666666666603,14.999549299160122,173.0232558139537,24.186046511627865,37.20930232558146,42.83112347245154,46.511627906976855,42.83112347245154,119.12789278944844,81.94498807644744,74.41860465116281,74.41860465116281,74.41860465116281,31.62790697674416,44.65116279069776,7.441860465116292,7.441860465116292,16.74418604651163,16.847228163976567,17.67441860465118,74.41860465116281,74.41860465116281,76.2790697674418,{}
81,97,81,0,2.699999999999993,16.760432807996335,168.44026507651665,22.21056207194352,37.063846573646536,42.57024397122496,46.27200431654887,44.575097306240686,120.53479659782448,83.47449058944368,74.96064699280919,75.88608707914022,77.73696725180218,32.39040302158435,43.49568405755588,4.627200431654842,10.179840949640834,16.65792155395758,14.922273013215998,16.65792155395758,75.88608707914022,74.03520690647827,77.7589984176837,{}
82,97,82,0,2.7333333333333267,18.846969009132067,173.43308171621968,26.38575661278503,39.62348324508898,47.11742252283034,49.03835020091051,43.71521858199716,128.3809268332609,88.7610206207417,79.15726983835498,75.38787603652861,79.15726983835498,33.924544216437766,50.88681632465682,9.42348450456609,9.423484504565977,16.96227210821894,17.376046866491482,17.90462055867556,81.04196673926822,77.27257293744174,79.15726983835498,{}
83,97,83,0,2.76666666666666,22.375008641608247,179.2426890890725,26.170684313017404,39.20063484257089,48.51502952472672,52.341368626034814,39.2006348425709,126.91504724459014,87.7147586292081,76.44794619216157,68.98960997829215,78.31253024562886,34.49480498914602,53.14064552381967,12.119796347537772,8.390628240603064,16.781256481206242,15.03275723242114,15.848964454472592,87.63545051296569,80.17711429909627,80.19879257833496,{}
84,97,84,0,2.799999999999993,29.90197183578698,190.771592435154,22.504213872063207,35.5577384180406,52.36181281401615,54.32605886995932,35.508591554997,123.40225334996492,87.85692164827195,72.88605634973067,61.67281691131052,69.14830987025732,29.90197183578698,57.93507043183706,18.68873239736672,7.475492958946802,16.819859157630162,15.411123536649262,15.885422537761826,87.8370422676241,78.49267606894068,80.4484266846517,{}
85,97,85,0,2.8333333333333264,28.359031842943548,196.5133563439514,22.715441477695737,34.0078253161251,52.85328789553456,56.874700448332746,34.00782531612521,119.08343226736658,85.07709552883043,70.7405526601799,54.706027390539134,66.02451581616788,26.409806326467105,58.47885686574864,22.6369768512576,3.772829475209619,15.091317900838362,17.08221197926987,16.034525269640767,88.66149266742536,77.34300424179656,81.20352653582253,{}
86,97,86,0,2.86666666666666,31.9604774931006,195.8480403038849,20.765588952528585,30.13914302089742,52.67434769085139,56.5260388880116,33.89268834990798,116.69811532021232,86.56299379861255,70.5010532936044,50.76075837139524,62.040926898371936,22.560337053953504,60.160898810542335,24.440365141782763,1.880028087829487,17.024378405811703,17.024378405811703,16.920252790465042,88.36132012798413,78.96117968883686,77.28722069421805,{}
87,97,87,0,2.899999999999993,33.89268834990798,193.78885963122065,20.680308966124016,30.13914302089742,54.55321919451941,58.40203690490335,33.892688349907964,118.5759812131784,88.44128513994023,71.44106733751914,52.64078645922461,60.16089881054245,22.560337053953504,62.04092689837182,28.200421317441737,1.880028087829487,18.894048446899745,17.024378405811703,17.860266834379786,86.4812920401547,77.08115160100743,75.41233008032255,{}
88,97,88,0,2.933333333333326,34.01300668814599,196.74657987549,22.753935385800176,30.292776527619427,52.94285382403605,58.699739786607054,32.1233952054713,119.10549596818852,88.83183966100545,71.80523634164149,52.909121514893855,62.35717892826767,25.509755016109462,61.41237318693027,27.399366498784275,4.724028706686909,18.896114826747805,17.11115973706699,17.006503344072996,86.92212820303979,79.36368227234067,79.45361281934798,{}
89,97,89,0,2.9666666666666592,37.70087243037644,197.8260223912292,18.82691725878692,32.00575933993764,54.59806005048199,56.606125408489454,33.940707767736924,122.43287745378176,90.44761431275724,71.54228558339014,54.59806005048188,62.12882695399662,24.47499243642301,64.01151867987528,28.24037588818021,5.648075177636088,16.944225532908206,15.178745954623004,16.00287966996882,86.60381939041957,79.07305248690483,77.21331700265215,{}
90,97,90,0,2.9999999999999925,33.304524570088944,192.20979273691307,20.40522900815358,33.304524570088944,53.57467631122722,55.54510257669487,33.253247365589345,120.2090001092214,86.90650099939253,70.20129999402195,55.4220789426488,60.96428683691374,24.939935524191924,61.88798815262464,24.93993552419204,6.465909209975621,18.474026314216303,16.728942332731382,16.626623682794616,81.28571578255173,75.74350788828684,75.83357154422636,{}
91,97,91,0,3.0333333333333257,34.12070552637179,195.092597716174,20.905291973772368,34.12070552637168,51.13729508506968,53.12995290059999,32.17549548639681,121.2642828987651,87.14535685073851,70.02901958804,54.88760994738277,62.458314767711386,26.49746687115021,62.4583147677115,26.497466871150323,5.67802861524649,19.02116045213085,17.138911978807368,17.03408584573947,83.27775302361528,77.59972440836879,73.83863309072424,{}
92,97,92,0,3.066666666666659,32.079567508398554,192.292951337634,18.931725225509577,33.960274040663535,47.09442668554652,51.001328974181895,33.907987213593515,118.81243456012352,84.8536501550852,68.75786296089791,54.62953495523402,62.164643224921406,24.489101876484145,60.28086615749953,24.489101876484145,5.65133120226551,16.953993606796757,17.05832685989597,16.953993606796757,82.8861909665618,77.23485976429623,73.4914526492104,{}
93,97,93,0,3.099999999999992,26.56924397444664,189.932077673308,20.96192083224937,36.25747809997759,45.58679580468227,49.48865120646554,34.16045653857441,117.8014579893306,81.6275995598582,68.3209130771487,55.036291089925385,62.62750365405293,24.67144083341475,58.83189737198904,18.97803141031909,3.7956062820637726,17.080228269287147,17.496880429933725,17.080228269287204,83.50333820540385,77.80992878230813,70.32122534752804,{}
94,97,94,0,3.1333333333333253,20.977982523207057,184.31604674070385,22.79108757846552,36.13583455647313,47.481432455136655,49.4172004346726,36.13583455647314,115.99471971712546,79.85919613609273,69.32289138449948,56.97771894616403,62.67549084078041,23.740716227568328,56.028090297061226,16.14368703474645,2.8488859473081902,18.99257298205464,17.198506311668822,18.99257298205464,81.66806382283505,75.97029192821867,76.06519551541227,{}
95,97,95,0,3.1666666666666585,19.31240484242283,186.44025975604748,23.05987326072261,40.4005060149366,44.23984582524079,46.15976366261502,40.354778206264655,123.04602782321903,82.65355433563126,73.02293199228836,61.492995361927,65.33630757204753,23.05987326072261,59.57133925686685,15.37324884048178,0.0,17.294904945541987,17.401336134373306,17.294904945541987,84.55286862264967,78.78790030746899,73.12400184272477,{}
96,97,96,0,3.199999999999992,19.039849265918065,177.0808343552684,22.92701457015004,40.02899076300126,43.833024745790304,47.75169902561843,41.88766838501954,123.81759052054296,83.79697016917837,74.25541213708016,64.73548750412112,66.63947243071289,23.79981158239741,58.07154026105002,14.279886949438604,0.9519924632958237,19.039849265918008,17.241316807497018,17.13586433932619,81.87135184344743,76.15939706367197,74.27981818938655,{}
97,97,97,0,3.233333333333325,17.40917299044484,173.03761903882128,24.99278003346558,40.37295236175203,44.21799544382384,46.18055214812672,44.25976965762205,126.94466656876808,86.59887259479831,77.86212241195051,69.2107754772893,71.13329701832515,25.954040803983503,56.714385460556514,14.418911557768638,2.883782311553773,19.3211023663356,17.409172990444763,18.26395463984022,82.66842626454007,78.82338318246843,75.00298376255779,{}
98,97,98,0,3.266666666666658,13.460138510688466,173.05892370885226,26.988863825585284,42.30329246216388,44.22616939226236,46.189088886355954,44.22616939226225,126.92444380001297,84.62843297760978,77.87651566898353,73.06932334373755,73.06932334373755,28.8431539514753,53.84055404275409,9.614384650491845,3.845753860196624,21.15164623108194,19.32467398221127,20.19020776603276,80.76083106413103,78.83795413403266,76.93910941111469,{}
99,97,99,0,3.2999999999999914,9.523701545946096,175.24645998917094,28.57110463783817,41.90428680216269,43.80902711135195,47.65658731016972,43.80902711135184,123.8081200972988,81.90383329513611,77.14198252216306,70.47539144000086,68.5706511308116,25.713994174054392,54.28509881189257,10.476071700540617,0.9523701545946324,19.04740309189208,17.24815708784323,18.095032937297503,81.90383329513611,81.90383329513611,72.40518978412773,{}
100,97,100,0,3.3333333333333246,9.805806756909112,175.0,26.92307692307702,42.30769230769238,44.23076923076928,46.19389288255509,46.19389288255498,125.059157599147,82.78170480781101,77.88461538461536,71.15384615384608,71.15384615384608,25.0,53.846153846153925,9.615384615384642,1.9230769230770195,19.230769230769223,19.326683886770937,20.19230769230768,78.84615384615387,80.76923076923077,76.94711162977904,{}
101,97,101,0,3.366666666666658,11.428053161268394,179.0496304927089,24.760781849414684,41.90286159131711,43.80753711819534,45.71221264507335,43.80753711819523,121.8992337201954,79.9963721288783,74.28234554824417,70.47299449448803,68.56831896760991,25.7131196128538,52.37857698914638,8.571039870951154,0.952337763439118,19.14175214371734,19.14175214371734,19.999093032219605,79.99637212887825,81.90104765575632,72.37767002136593,{}
102,97,102,0,3.399999999999991,11.314588556764877,175.4166720229147,26.4007066324516,41.48682470813833,45.258354227059954,45.258354227059954,43.37258946759914,122.57470936495396,81.08788465681562,75.43059037843318,73.54482561897237,69.77329610005074,28.28647139191241,50.91564850544239,7.54305903784325,1.8857647594608125,18.85764759460829,17.0763261768449,18.85764759460829,77.31635513789399,79.2021198973548,69.77329610005063,{}
103,97,103,0,3.433333333333324,13.459049961940195,178.85443641964005,24.995378500746146,42.34354697501308,46.14531415522379,48.06803557835815,42.29987130895506,123.06919142500158,80.7542997716414,74.02477479067136,73.06341407910418,69.21797123283557,28.840821347014867,51.91347842462653,7.690885692537222,3.8454428462687247,21.237152253998644,19.227214231343225,20.188574942910407,76.90885692537285,80.75429977164151,75.0107817265693,{}
104,97,104,0,3.466666666666657,17.05223007687175,178.1111475568069,24.703764295824826,37.89384461527061,47.36730576908826,49.2619979998517,37.94118235342157,117.47091830733892,79.57707369206832,71.0509586536325,68.20892030748712,66.31422807672357,29.36772957683479,50.209344115233534,10.420807269199372,6.631422807672379,20.927559705243105,20.8416145383988,20.8416145383988,73.89299699977767,79.57707369206827,73.91728393453377,"{'others': (['m1', 'm3', 'm12', 'e1', 'e2'], 2.9513363848245637, 216)}"
105,97,105,0,3.4999999999999907,20.74894700560173,182.97771000334689,22.63521491520192,33.95282237280276,49.04296564960396,52.84917409031155,37.72535819200312,115.06234248560952,81.10952011280676,70.73504661000584,67.90564474560563,66.01937683600545,29.237152598802368,48.09983169480404,10.374473502800925,8.488205593200632,20.74894700560173,18.95675787959326,20.74894700560168,75.45071638400628,79.22325220320658,75.45071638400623,"{'others': (['m1', 'm3', 'm12', 'e1', 'e2'], 2.9513363848245637, 216)}"
106,97,106,0,3.533333333333324,22.607095336901423,185.8737726174682,20.651587883874413,31.916090365987884,50.69026116951022,52.56767824986241,35.72029607215727,110.76760774078129,78.85151737479339,67.58701489268003,63.83218073197565,61.95476365162335,27.222547665107182,47.87413554898183,14.080628102641754,6.570959781232773,18.774170803522225,18.86780814650781,19.712879343698376,75.09668321408901,78.85151737479345,76.97410029444131,"{'others': (['m1', 'm3', 'm12', 'e1', 'e2'], 2.9513363848245637, 216)}"
107,97,107,0,3.566666666666657,24.751804045693348,190.43656855050327,20.943834192509826,32.42369494983179,51.44283991482982,53.311577944570445,36.22578382104843,114.23909559550792,81.89348821044462,69.4954498206007,64.73548750412112,60.92751765093749,26.655788972285222,51.40759301797857,17.13586433932619,7.615939706367271,20.943834192509826,19.134811696736595,20.94383419250977,74.25541213708021,78.06338199026379,76.15939706367203,"{'others': (['m1', 'm3', 'm12', 'e1', 'e2'], 2.9513363848245637, 216)}"
108,97,108,0,3.5999999999999903,24.64012256523165,191.47232726815145,20.849334478272908,36.06233112238656,53.10486875367228,54.96642726090136,37.90788086958719,119.42486660166897,83.39733791309175,71.07727663047592,66.33879152177758,62.54800343481884,26.535516608710964,54.96642726090147,17.05854639131428,7.5815761739173695,17.058546391314223,19.048474389980942,18.953940434793594,75.81576173917432,79.60654982613306,75.83945046393278,"{'others': (['m1', 'm3', 'm12', 'e1', 'e2'], 2.9513363848245637, 216)}"
109,97,109,0,3.633333333333324,32.43361702736792,192.37075299698915,22.93403053845942,36.18678384988709,51.42332441826056,55.232459560353846,34.33508017497365,125.71588740329685,89.53493490380555,73.32585148529745,68.56443255768068,66.65986498663392,33.32993249331696,58.08931091692398,21.902527067036885,10.475121640756695,19.045675710466867,19.045675710466867,19.997959495990187,76.18270284186747,79.9918379839608,74.30254879170043,"{'others': (['m1', 'm3', 'm12', 'e1', 'e2'], 2.9513363848245637, 216)}"
110,97,110,0,3.6666666666666567,38.09480618378427,188.5789102649153,22.85688371027049,34.285325565405856,51.42798834810856,55.237468966487086,34.285325565405856,129.52234102486648,95.23701545946062,76.18961236756843,70.47539144000086,68.5706511308116,35.237695720000374,59.99931973946025,23.809253864865127,14.28555231891903,17.248157087843285,17.248157087843285,18.095032937297503,74.28487205837928,79.9990929859469,74.30928779348667,"{'others': (['m1', 'm3', 'm12', 'e1', 'e2'], 2.9513363848245637, 216)}"
111,97,111,0,3.69999999999999,30.235477205001068,182.9456131658037,22.63244698958397,37.72074498263987,49.036968477431856,52.84271147957868,35.884305968641016,126.4207827751214,88.72397131449833,73.5554527161479,71.66941546701582,71.66941546701582,35.83470773350791,54.69508022482785,15.088297993056017,13.202260743923944,5.9641734591756,4.217307497155819,5.658111747395992,75.4414899652798,79.21356446354383,75.44148996527974,"{'others': (['m1', 'm3', 'm12', 'e1', 'e2'], 2.9513363848245637, 216)}"
112,97,112,0,3.733333333333323,17.159670582478586,183.8217227282896,22.739623312377148,34.109434968565665,47.4120994586731,49.26918384348369,39.83943354857338,113.76126464593315,79.67886709714678,71.06132285117849,68.21886993713144,66.32390132776663,27.477044835789115,46.42673092943653,10.422327351506055,4.737421523411967,1.894968609364696,2.6798903076350378,1.8949686093648097,75.79874437459046,81.48365020268471,75.82242778225299,"{'others': (['m1', 'm3', 'm12', 'e1', 'e2'], 2.9513363848245637, 216)}"
113,97,113,0,3.766666666666656,1.88603724913196,181.0693987608896,24.518484238715928,35.83470773350791,47.15093122829967,47.15093122829967,37.72074498263999,99.95997420399578,64.12526647048787,63.18224784592189,66.01130371961983,64.12526647048787,27.347540112413867,34.89168910894193,0.9430186245659796,2.829055873697939,2.667259456863261,3.7720744982641454,0.9430186245660366,77.32752721441182,81.09960171267579,77.32752721441193,"{'others': (['m1', 'm3', 'm12', 'e1', 'e2'], 2.9513363848245637, 216)}"
114,97,114,0,3.7999999999999896,2.6917876023810225,178.92796319480723,24.817055469741163,36.16424407599175,45.681150411778845,47.5845316789364,36.21429841700736,98.99412594335504,62.84041430879381,61.85989118261728,66.61834435051094,64.7149630833535,29.502409640940527,33.30917217525564,2.8550719007361067,4.758453167893549,4.25608990046378,2.6917876023810225,2.8550719007362204,76.13525068629832,79.9420132206132,74.25626773349533,"{'others': (['m1', 'm3', 'm12', 'e1', 'e2'], 2.9513363848245637, 216)}"
115,97,115,0,3.833333333333323,9.656316083281808,191.28282299730128,21.33149944718385,34.81634277036016,48.320190242984175,50.24996958537076,36.74478868557532,102.37516832585808,67.59421258297277,62.76605454133187,71.4567390162855,65.66294936631641,31.865843074829968,33.79710629148633,0.9656316083281808,12.553210908266353,8.636871669777058,6.963268554072032,5.793789649969085,69.52547579962908,75.31926544959816,75.34402116610867,"{'others': (['m1', 'm3', 'm12', 'e1', 'e2'], 2.9513363848245637, 216)}"
116,97,116,0,3.866666666666656,20.777613449308888,183.25971486021027,20.86329469301655,28.583849616768475,45.33297479849216,47.2596111285131,34.05215939693339,103.9567308807734,75.5549579974869,65.16615127283251,71.77721009761251,67.99946219773813,35.8886050488062,33.99973109886912,3.777747899874385,15.11099159949731,9.63140512944669,11.489571687134218,11.33324369962304,69.88833614767537,75.5549579974869,79.35518930603061,"{'others': (['m1', 'm3', 'm12', 'e1', 'e2'], 2.9513363848245637, 216)}"
117,97,117,0,3.899999999999989,26.47347291625033,181.5717764867045,22.69154821392885,30.314432596890025,45.42247439312106,47.31186291043281,34.037322320893395,113.47349799508244,83.20234345107258,69.96560699294741,77.52945639759037,73.74753169526889,41.60117172553623,37.81924702321476,7.563849404642951,18.90962351160738,10.183143905087176,9.642053928037871,8.50933058022332,68.07464464178662,73.74753169526883,81.39928532136565,"{'others': (['m1', 'm3', 'm12', 'e1', 'e2'], 2.9513363848245637, 216)}"
118,97,118,0,3.9333333333333225,28.72455097760103,174.0442075884575,22.92874450523675,34.44615166485172,43.98827827062481,46.01644092212875,40.125302884164284,126.16598236265338,91.7348792858054,77.38451270517396,87.89352060340741,80.25060576832857,43.94676030170365,42.03603159293402,7.642914835078955,21.01801579646689,6.889230332970393,5.732186126309159,4.776821771924347,64.96477609817072,70.69696222447988,78.43302795698288,"{'others': (['m1', 'm3', 'm12', 'e1', 'e2'], 2.9513363848245637, 216)}"
119,97,119,0,3.966666666666656,19.112302953732183,179.81823209497657,26.825395517394178,36.363636363636346,45.909327119949815,49.72872852589139,42.04706649821094,124.28876237301904,87.93736537566544,78.3604421103023,89.82782388254157,82.18290270104865,43.95829679358417,38.22460590746448,3.8224605907464593,19.112302953732183,4.273640861111594,4.273640861111594,3.8224605907464593,64.98183004268964,70.71552092880933,76.54471367829187,"{'others': (['m1', 'm3', 'm12', 'e1', 'e2'], 2.9513363848245637, 216)}"
120,97,120,0,3.999999999999989,11.674840053198588,178.66289252881433,24.95131446207222,30.76923076923068,44.18633818516741,46.10393390159641,44.14463327905082,111.3874133339986,80.63478498303189,74.85394338621666,88.28926655810164,80.61193903131027,40.30596951565508,26.87064634377009,3.8386637633956298,17.273986935280732,6.92024951409446,6.069460331942119,5.757995645093615,65.25728397772735,71.01527962282091,76.86918195773497,"{'others': (['m1', 'm3', 'm12', 'e1', 'e2'], 2.9513363848245637, 216)}"
121,97,121,0,4.033333333333323,11.51566524880279,176.1049330614876,26.57181883842137,32.23941618725683,45.43592892121637,47.32909262626709,39.80148760839957,109.8687570056215,77.64279583678004,71.94022079192598,85.19236672728073,81.40603931717942,43.542765216165776,26.50429187070949,5.679491115152132,17.03847334545617,9.653278674479022,9.653278674479033,9.465818525253384,62.47440226667254,68.15389338182462,71.96512652948786,"{'others': (['m1', 'm3', 'm12', 'e1', 'e2'], 2.9513363848245637, 216)}"
122,97,122,0,4.066666666666656,20.920051050131125,174.29031279431493,26.58373124771624,34.09222372328156,45.49573977870612,47.35031072677998,37.92756933514118,119.33781392945151,85.25160129329367,74.81349094831216,85.23055930820374,81.44253445006132,45.45629829770871,35.98623615235272,1.8940124290711533,20.834136719783142,11.520827835473352,11.36407457442715,11.36407457442715,64.39642258842065,68.18444744656301,75.85513867028236,"{'others': (['m1', 'm3', 'm12', 'e1', 'e2'], 2.9513363848245637, 216)}"
123,97,123,0,4.099999999999989,26.510528000083923,179.932729611391,26.57807085604914,36.02837107209295,47.37808561766968,51.1274468573049,36.028371072092966,124.99254812955144,88.9996297145675,75.74436571452554,85.21241142884128,81.42519314311505,47.34022857157845,41.659401142989054,5.680827428589396,22.723309714357697,13.389838658353709,11.361654857178848,12.308459428610432,62.48910171448358,68.16992914307298,73.94780097170361,"{'others': (['m1', 'm3', 'm12', 'e1', 'e2'], 2.9513363848245637, 216)}"
124,97,124,0,4.133333333333322,30.454100274519305,182.7345148223108,24.81705546974103,34.31369377746925,53.32865360020125,55.23086391643445,36.21429841700747,125.63758235997284,91.36230082355792,76.13525068629826,87.55553828924303,85.65215702208559,50.43960357967262,39.01931597672785,2.8550719007361067,25.69564710662576,13.45893801190484,15.3455503691065,14.275359503680932,64.71496308335355,72.32848815198338,78.24726077889507,"{'others': (['m1', 'm3', 'm12', 'e1', 'e2'], 2.9513363848245637, 216)}"
125,97,125,0,4.166666666666655,26.38575661278503,180.970162746889,24.57344113902281,33.97685657475336,52.77151322556984,54.688695246811136,33.97685657475325,118.75086172739182,84.81136054109459,71.61848223470213,82.92666364018135,79.15726983835498,47.11742252283034,37.69393801826436,1.8846969009132408,22.61636281095855,15.194912192581814,15.077575207305756,15.077575207305756,65.96439153196252,73.50317913561537,71.84132334024177,"{'others': (['m1', 'm3', 'm12', 'e1', 'e2'], 2.9513363848245637, 216)}"
126,97,126,0,4.199999999999989,22.923638807012896,181.0121765241568,22.844455016666416,26.719767134853264,47.6306734922843,49.53291537724283,34.26668252499951,106.67542452740402,79.97825249716288,68.53336504999913,83.76300172777667,76.1481833888879,45.68891003333283,26.651864186110743,1.903704584722164,22.844455016666416,13.461224212329904,13.461224212329846,14.27778438541651,62.82225129583259,74.2444788041658,76.24330920160344,"{'others': (['m1', 'm3', 'm12', 'e1', 'e2'], 2.9513363848245637, 216)}"
127,97,127,0,4.233333333333322,20.93531148005581,180.1521935815249,22.744728521752336,26.535516608710964,49.3166815458888,51.1756391739425,32.22169873914913,102.3688267883654,75.83945046393278,65.39109450003787,81.50194386961243,75.81576173917438,46.43715406524427,23.692425543491936,2.843091065219028,23.692425543491936,15.281155313120369,15.281155313120369,16.11084936957451,62.54800343481878,73.92036769569495,74.13874444234442,"{'others': (['m1', 'm3', 'm12', 'e1', 'e2'], 2.9513363848245637, 216)}"
128,97,128,0,4.266666666666655,17.07025688685536,179.1732509583037,22.62113422206108,26.391323259071328,47.16504978429384,49.01245748113229,32.04660681458654,98.04303919556423,71.65839128562354,63.150666369920486,79.17396977721387,73.51868622169854,44.29972118486967,21.678586962808595,2.8276417777576626,21.678586962808595,13.329631172125437,15.198117888092812,15.080756148040791,60.32302459216294,75.40378074020367,71.85647982188613,"{'others': (['m1', 'm3', 'm12', 'e1', 'e2'], 2.9513363848245637, 216)}"
129,97,129,0,4.299999999999988,17.151012001658813,180.02087478416408,22.728149148854413,22.80692979806889,47.38817583537155,49.24432315585091,34.09222372328145,96.66888034546282,73.89076295455831,65.34342880295617,79.54852202099016,73.86648473377659,42.61527965410187,19.88713050524757,2.8410186436067306,21.781142934318723,15.270016381653004,15.152099432569573,16.099105647105205,60.60839773027823,73.86648473377659,75.97327476221587,"{'others': (['m1', 'm3', 'm12', 'e1', 'e2'], 2.9513363848245637, 216)}"
130,97,130,0,4.3333333333333215,20.82548139744856,177.27245796013105,22.625405940151268,24.51085643516388,49.02171287032775,49.05795813433331,33.93810891022679,101.8317831091595,77.32646017566665,66.93349257294733,79.18892079052921,75.418019800504,43.365361385289816,24.51085643516388,0.0,20.73995544513855,13.332148306149422,13.19815346508824,14.140878712594542,62.219866335415816,75.41801980050406,75.51223347846242,"{'others': (['m1', 'm3', 'm12', 'e1', 'e2'], 2.9513363848245637, 216)}"
131,97,131,0,4.366666666666655,30.53531006688336,179.0861108678726,24.76162401945976,30.47584494702744,47.65658731016972,49.52324803891952,32.38058525621659,118.1092589797942,87.63875547620535,72.38013174919001,81.90383329513611,78.0943526767577,47.618507729730254,38.09480618378439,7.618961236756945,24.76162401945965,15.356507316257272,13.333182164324512,14.285552318919088,64.76117051243324,74.28487205837928,74.38248691265693,"{'others': (['m1', 'm3', 'm12', 'e1', 'e2'], 2.9513363848245637, 216)}"
132,97,132,0,4.399999999999988,41.492819480903904,177.32762533007184,22.71089591454819,37.72074498263987,47.150931228299896,52.809042975696,33.94867048437595,135.8077787868313,98.09207025204287,77.32752721441182,82.98563896180781,79.21356446354389,47.150931228299896,54.69508022482785,16.974335242187976,24.518484238715928,13.33629728431653,11.47231670976678,12.259242119357964,60.3531919722239,69.78337821788386,73.65210906890518,"{'others': (['m1', 'm3', 'm12', 'e1', 'e2'], 2.9513363848245637, 216)}"
133,97,133,0,4.433333333333321,49.28411834133476,178.1911256244015,22.74651615753908,37.910860262565166,47.42647103624416,51.17966135446295,34.172387643407255,144.07373913574963,106.16733187737616,81.50834956451513,85.29943559077162,83.40389257764343,50.231889847898856,59.70960491354015,19.90320163784668,27.48537369035978,15.164344105026087,15.282356344826493,16.112115611590184,64.4484624463608,70.13509148574559,77.80967411018764,"{'others': (['m1', 'm3', 'm12', 'e1', 'e2'], 2.9513363848245637, 216)}"
134,97,134,0,4.466666666666654,48.82575298679774,178.44132040247328,22.53496291698366,35.72974255400588,50.738430822740085,54.49186191724672,31.924530799060108,138.97829268074864,103.2852467028415,78.87237020944258,82.62819736227323,78.87237020944258,48.82575298679774,58.215320868874414,20.657049340568392,26.29079006981408,15.023308611322364,15.02330861132242,15.96226539953011,65.72697517453548,71.3607159037814,75.21038012387513,"{'others': (['m1', 'm3', 'm12', 'e1', 'e2'], 2.9513363848245637, 216)}"
135,97,135,0,4.499999999999988,44.66623811195114,180.4078785321465,20.454278051289748,35.33011663404591,48.34647539395769,52.06543503964667,35.33011663404591,135.75476263338314,100.42912636350924,78.0981525594699,83.67659202800348,79.95763238231439,46.48699557111297,53.92491486249117,16.735318405600765,26.032717519823223,14.991605609533114,16.838305952452675,16.735318405600708,65.08179379955823,70.66023326809176,74.4721088687012,{}
136,97,136,0,4.533333333333321,39.05325714475385,176.55749949094792,24.21980192396829,33.48789172765929,46.47648691276403,50.15449830375496,35.342755934314205,131.9400704512763,98.46894532000742,78.94689547813289,83.59083050625838,78.01810847250783,45.51056327562958,51.08328530938002,15.789379095626488,21.36210112937715,18.66838777009102,14.86059209000149,15.7893790956266,68.73023841625684,72.44538643875717,78.10651428950769,{}
137,97,137,0,4.566666666666654,27.96876080201025,179.087450182314,24.311201692133807,33.614267060945274,46.65187811300213,50.378286944721246,39.20063484257089,124.94104561382925,91.3646186199004,77.38023821889533,78.31253024562898,72.71877808522686,36.35938904261343,49.41147741688496,13.984380401005184,13.984380401005184,16.884526726576375,16.88452672657632,16.781256481206242,70.8541940317595,72.71877808522686,78.40126968514178,{}
138,97,138,0,4.599999999999987,5.624883273897126,176.33607851320474,24.44650171211609,35.624260734681684,45.038110941421536,48.78503199302346,43.16484587901579,108.74774329534398,73.1234825606623,70.31104092371368,73.1234825606623,67.49859928676517,27.18693582383593,38.436702371630304,0.9374805456495778,4.687402728247548,18.84312576199641,18.84312576199641,18.749610912990303,71.24852146936331,73.12348256066235,78.83759913892057,{}
139,97,139,0,4.63333333333332,0.0,179.14794041089235,26.120073506121457,33.58295165072775,44.77726886763685,48.50870793994,42.95208930210592,102.63153417351585,69.05683066128347,69.03162283760685,70.89734237375842,67.16590330145539,26.12007350612157,33.58295165072764,1.8657195361515733,1.8657195361515733,20.60754583361289,18.75024928221828,19.59005512959112,72.76306190990994,74.62878144606145,74.72200919189963,{}
140,97,140,0,4.666666666666654,3.713066617221898,178.31420138951887,26.057686724235666,39.03137762472574,44.55679940666187,46.450448541048566,42.74060646236016,111.40746855332624,72.40479903582559,70.5482657272147,72.40479903582559,66.8351991099928,26.91973297485822,41.77199944374547,2.784799962916395,2.784799962916395,20.42186639472004,18.65792883800775,19.493599740414595,76.11786565304732,77.97439896165827,76.20837444322811,{}
141,97,141,0,4.699999999999987,14.921374499089438,175.36583038073394,24.318865130848383,39.16860806010982,46.62929530965448,48.49446712204076,41.07614826774994,119.37099599271562,80.2023879326058,72.74170068306103,72.74170068306114,69.0113570582887,29.84274899817899,48.494467122040646,7.460687249544662,7.460687249544776,20.516889936247992,20.601496026886824,20.516889936247992,74.60687249544725,78.33721612021958,82.08875214295529,{}
142,97,142,0,4.73333333333332,20.234430227931966,180.30791517313585,23.91341754210123,38.67313946641856,44.18615393582564,47.826835084202685,36.78987314169433,119.58123682453868,80.93772091172752,70.82050579776148,69.90075896921917,66.22177165504979,31.27139217044009,51.50582239837206,12.8764555995931,9.197468285423495,20.23443022793191,18.486682459542195,19.31468339938948,77.25873359755803,82.77721456881221,77.28062922888837,{}
143,97,143,0,4.766666666666653,22.19844546954664,179.5232324323943,22.27539005197577,38.89129916608032,48.132193136023766,49.980747426928616,36.99740911591118,120.29848525205794,81.4153185963632,70.29507732023114,72.1449477760267,66.59533640864004,32.372732976422185,50.87143753437772,10.174287506875544,12.024157962671095,18.49870455795553,16.751289432890545,18.49870455795553,81.39430005500446,86.94391142239112,77.71657829055908,{}
144,97,144,0,4.7999999999999865,22.10081551019812,182.3689309238065,20.25908088434824,36.88070714145493,47.885100272096,51.56856952379553,36.88070714145493,116.08773447075107,79.21600153567707,68.14418115644423,69.98591578229411,66.30244653059447,31.30948863944741,47.88510027209588,9.208673129249178,11.050407755099172,18.41734625849847,18.41734625849841,20.259080884348293,79.1945889115434,86.56152741494276,77.37477659144359,{}
145,97,145,0,4.83333333333332,20.35641328043414,181.4420923510096,22.283970527393823,31.5142933433626,48.15073364638313,51.849360308335065,33.31049445889221,107.39760972825457,75.89646877558101,65.69569740503755,68.47157194327849,62.919822866796494,32.38520294614534,41.63811807361526,10.178206640217011,12.0287896657112,16.757742025947845,16.655247229446104,16.655247229446104,79.57507009624254,90.67856824920663,79.5750700962426,{}
146,97,146,0,4.866666666666653,20.1800894888886,177.9895200480914,20.18008948888871,33.07288517983632,47.73366017645168,49.53294692727218,34.9047625470286,108.30083220652554,75.23906646432573,65.1266524414134,66.04392923636294,62.374822056564994,29.35285743838358,44.02928615757514,9.172767949494755,11.007321539393844,18.437035398765463,16.510982309090707,16.510982309090707,78.88580436565564,88.05857231515046,78.90713350065816,{}
147,97,147,0,4.899999999999986,21.812549139162343,178.21926481170829,19.99483671089888,32.76927682076161,47.29546622512278,49.07823556311541,34.58433759398414,109.12331928876064,76.36555835479399,65.43764741748726,67.25535984575072,61.8022225609601,29.992255066348207,44.53395449245659,9.997418355449554,11.815130783712902,19.99483671089888,18.177124282635305,19.08598049676704,78.16163441533189,90.88562141317658,74.61482577269977,{}
148,97,148,0,4.933333333333319,25.28308163332246,178.4786569885202,19.81479479075483,34.22555463857668,48.769564912779714,52.27005289356064,32.47420846857443,111.74148161457084,77.54157240561149,64.84841931519793,64.84841931519793,57.64303939128706,28.82151969564348,50.43765946737619,14.410759847821735,12.609414866844077,19.81479479075489,16.311872569404052,17.112777319288284,79.25917916301972,90.06724904888603,79.27964634971678,{}
149,97,149,0,4.966666666666653,25.1636932678297,175.8445066811954,19.72122803346838,34.063939330536186,50.23149431795822,51.99232845187089,34.11108667397318,113.0057526526358,78.96636276180111,66.33503974893904,64.54220083680548,57.37084518827157,26.89258368200228,51.99232845187112,17.92838912133493,10.757033472800911,19.72122803346832,17.928389121334817,18.8248085774016,77.0920732217399,87.84910669454081,80.757393465248,{}
150,97,150,0,4.999999999999986,28.87775686071996,182.07846796538945,18.01344980977717,32.47420846857443,52.36308776912519,54.07036351075103,36.0719051331912,115.41266635307552,82.9401514939928,68.45110927715336,63.04707433422027,55.8416944103094,23.41748475271038,55.84169441030929,21.616139771732605,9.006724904888642,21.69106595747605,18.10329300955644,18.914122300266,75.65648920106423,86.46455908693059,81.08053661785958,{}
151,97,151,0,5.033333333333319,28.62004872637036,182.2374654533591,19.63796548151629,32.13485260611753,48.33434019476118,51.80358945325531,32.18440522245387,112.52864507418477,80.41643768615016,66.05497480146369,58.91389644454864,51.77281808763371,23.208504659973755,57.12862685531991,23.20850465997364,7.141078356915045,21.423235070744965,17.852695892287443,18.745330686901863,76.76659233683608,85.6929402829798,75.00257294578034,{}
152,97,152,0,5.066666666666652,33.96334967763901,180.4338134309532,17.850740279970978,32.13133250394776,50.01393894768095,53.5819638140691,35.74607955367043,119.65323380266824,87.54145721575927,70.51042410588525,62.47759097989831,55.33729486790992,23.20596236396227,60.692516951901325,26.776110419956467,7.140296111988391,19.63581430796808,19.63581430796808,19.63581430796808,76.75818320387515,85.68355334386064,76.77893707290474,{}
153,97,153,0,5.099999999999985,41.63377822525253,184.68397925231537,18.084557622403167,34.408217511531184,50.66904490440362,54.253672867209616,34.55049882494871,128.6039673486318,94.19607060763374,73.24245837073295,65.10440744065147,56.06212862944994,26.222608552484644,67.81709108401196,33.45643160144584,9.946506692321805,19.97504677755688,16.376263432369985,17.180329741283003,77.76359777633371,86.8058765875353,81.38050930081454,{}
154,97,154,0,5.133333333333319,43.79864688223688,184.7614596427472,16.424492580838773,34.72192040166888,49.30726141308987,54.77871588567501,38.49722783981855,133.33333333333326,98.61452282617974,76.64763204391443,67.52291394344843,54.74830860279599,22.811795251164995,72.08527299368143,35.58640059181744,8.212246290419444,10.94966172055922,9.305423130061865,9.124718100465998,76.64763204391443,85.77235014438043,76.66935448506017,{}
155,97,155,0,5.166666666666652,41.981131578857344,186.6150990965833,16.528491955712006,32.905461415124044,47.59712938469857,53.05846225108461,38.50404090559002,129.79942882409355,96.89398081924664,75.74856350098173,63.88433066347864,51.10746453078286,19.16529919904349,72.09803032021159,39.24323169327977,6.3884330663478295,4.081420173160255,4.081420173160357,3.65053318077014,78.48646338655936,85.78752974809976,76.68292308165961,{}
156,97,156,0,5.199999999999985,37.37297802238618,191.05050281204527,16.817840110073803,33.68754714412546,48.72840164262523,52.35552732795945,39.41919175308147,127.19172575142936,93.50716113752262,74.74595604477236,63.534062638056525,50.453520330221295,17.752164560633446,70.07433379197403,34.570004670707135,4.671622252798215,4.178425968983058,4.178425968983007,2.802973351678929,67.27136044029504,71.00865824253367,82.24178355448379,{}
157,97,157,0,5.233333333333318,31.32011418207356,182.98814731039448,16.683276264065597,35.004833497611685,46.09582391028318,48.04286204870479,38.733393680260775,121.6515536825824,86.6692667401546,70.93084682410768,66.32494767968512,51.58607041753282,20.265956235459385,62.64022836414711,27.63539486653542,5.527078973307084,2.6054900147860267,1.842359657769066,1.842359657769066,70.0096669952232,81.06382494183742,79.24288517503284,{}
158,97,158,0,5.266666666666652,29.461821023967104,184.4675291211132,16.57227432598154,33.14454865196308,49.75091062197527,51.59105781013154,38.712457263928286,117.861668872742,84.72274790382897,69.97182493192201,64.44773348992817,53.39955060594048,20.2550019539774,58.92364204793432,25.779093395971245,5.524091441993846,5.822903653248169,4.117414659407726,3.682727627995917,75.49591637391592,84.70273544390562,77.42491452785657,{}
159,97,159,0,5.299999999999985,23.9324049872298,182.4867644264904,16.568588068082136,34.97813036595119,46.060660113404815,49.73984426598395,38.66003882552502,114.13916224678816,79.16103188083696,67.19482938722206,62.59244381275482,53.38767266382024,19.330019412762454,56.14910400850067,21.170973642549484,4.602385574467235,5.821608434247634,5.821608434247634,5.522862689360693,71.79721496168935,81.00198611062387,79.24661139975355,{}
160,97,160,0,5.333333333333318,25.99146632055283,184.0310590326996,18.565333086109035,33.417599554996286,44.55679940666187,50.16076779682184,35.274132863607406,113.24853182526556,79.83093227026927,66.83519910999291,63.122132492771016,53.83946594971644,23.206666357636323,54.76773260402183,21.350133049025544,4.641333271527287,9.466499568241993,9.466499568242048,9.282666543054576,74.26133234443643,83.543998887491,78.06275524945147,{}
161,97,161,0,5.366666666666651,20.61831421815779,183.0883768756997,18.666944598799773,37.33388919759955,46.66736149699932,48.53405595687923,37.33388919759943,113.88366179907648,76.55723403710046,66.26765332573916,63.467611635919184,56.000833796399206,22.40033351855982,54.1341393365193,16.80025013891975,3.7333889197600456,11.354659116073178,9.333472299399888,10.266819529339898,72.80108393531907,84.00125069459892,74.69110843119887,{}
162,97,162,0,5.399999999999984,20.234430227931966,182.34198343067865,20.234430227931853,34.950379484609584,46.02411659607126,49.70038176465124,36.83583177690462,112.22418988614336,77.28062922888836,67.14151848359211,66.22177165504979,57.02430336962618,24.83316437064365,50.58607556982975,15.63569608522016,6.438227799796437,13.007184388742496,12.876455599592989,12.876455599592989,71.74025262630391,80.93772091172752,69.9975074708428,{}
163,97,163,0,5.433333333333318,24.239592695075544,184.7444333091804,18.738837822472323,37.29168106934719,46.65187811300213,50.378286944721246,35.42709701587978,115.61924730532576,78.33472452983402,66.19273389809109,67.12502592482474,59.666689710955325,27.96876080201025,52.20835349708602,14.916672427738831,9.322920267336713,15.032757232421083,14.916672427738888,15.848964454472537,68.98960997829215,78.31253024562892,72.81433499647063,{}
164,97,164,0,5.466666666666651,30.24492260107332,189.2669072185558,20.87913056660894,37.85338144371113,51.03830688931134,52.928614551878354,35.91584558877457,124.81757463569338,86.97469687352394,71.83169117754926,73.72199884011638,64.27046052728087,33.08038409492406,55.76407604572898,17.957922794387287,12.286999806686026,17.117463914117266,17.01276896310378,17.01276896310378,68.05107585241507,77.50261416525046,75.70676288742226,{}
165,97,165,0,5.499999999999984,32.21236863349698,189.3938411328633,22.77758429882651,35.98967681772602,52.99787907238178,56.873227761829526,32.21236863349698,123.01059072170304,87.03302740199368,70.93407817518982,73.77144130219745,64.31356421217208,36.88572065109872,53.90989941314422,17.96996647104811,16.078391053043106,17.439463660620014,18.91575418005061,18.91575418005061,66.2051396301772,75.6630167202025,77.64680928390885,{}
166,97,166,0,5.533333333333317,33.89268834990798,192.09434811864924,22.56033705395339,35.76997387742985,52.67434769085162,58.40203690490334,31.9604774931006,124.1388112722229,88.38131816380151,71.44106733751903,73.32109542534852,62.04092689837182,35.72053366875957,56.40084263488348,20.680308966123903,15.040224702635667,19.17259981188978,15.040224702635612,15.980238746550356,65.80098307403074,73.32109542534852,71.46580026792516,{}
167,97,167,0,5.56666666666665,34.27297592973458,194.0635604047559,22.813471768135628,34.27297592973469,53.36705583367298,57.06535600118757,34.27297592973458,125.60364983899444,91.33306616515898,74.14378324644076,74.14378324644076,66.53929265706222,36.12133029954805,55.13255677299446,19.011226473446413,17.11010382610175,17.21539776654108,15.208981178757083,17.110103826101692,66.53929265706222,76.04490589378537,72.26767104145836,{}
168,97,168,0,5.599999999999984,32.13523026364044,193.14467721795668,22.68369195080504,34.23492782823456,54.85150404330379,58.63001844543254,32.19077953632611,121.11252973103625,86.97469687352394,70.88653734626575,73.72199884011638,62.38015286471386,35.91584558877469,52.928614551878354,18.903076625670792,15.12246130053677,15.240147599199624,13.232153637969589,14.17730746925315,66.160768189848,75.6123065026834,73.74622957169595,{}
169,97,169,0,5.633333333333317,33.878845665757126,193.8919403640349,22.629289844284465,32.00264860465894,50.87904034566682,54.62799719443217,31.947423975755555,120.40471794818824,88.4051633438923,71.41188888698287,75.17040935471891,63.894847951511,37.58520467735946,50.74002631443523,20.67186257254764,16.913342104811818,17.01742519246068,15.034081870943794,15.973711987877778,62.015587717643086,71.41188888698298,75.19389643835868,{}
170,97,170,0,5.66666666666665,29.82165413278624,193.9009927764052,22.40005932161487,29.99520547654077,52.21896697284821,52.218966972848,33.53565922230964,115.70830513810692,85.75207436619239,70.6884996543987,78.12939435486169,65.10782862905148,38.13458533987296,43.71525636522029,15.81190123848387,17.672124913599646,11.765087541469718,11.161342050694545,11.161342050694545,61.38738127881993,68.82827597928292,74.50190012894772,{}
171,97,171,0,5.699999999999983,30.37196139870421,194.7489020320075,22.603069026251774,28.31655297770533,49.11799398696751,52.7741191951947,33.95688514875117,115.1456973127586,86.82916656616175,71.57638524979734,79.11074159188126,62.15843982219246,36.72998716765915,44.26434350974307,17.894096312449392,16.010507226928326,10.143437654450256,11.301534513125889,11.301534513125889,58.3912616511505,65.92561799323443,77.31898030634517,{}
172,97,172,0,5.7333333333333165,28.605865053424115,197.32895674460065,22.76257268029918,28.605865053424115,51.17870961667089,56.83574533224533,34.078386555564606,113.98541418590546,85.40019193097535,70.88732891029065,79.39380837952558,62.38084944105583,36.86141103335103,42.53239734617455,16.067794552999317,16.06779455299909,11.9554888854411,11.34197262564652,12.28713701111701,60.49052067011473,68.05183575387906,79.48377306377583,{}
173,97,173,0,5.76666666666665,30.126833385464867,198.21519031319767,24.502555673267608,26.57675309964513,52.92044867621429,56.65899483027488,32.00264860465892,113.1464492214226,86.6296163648421,71.41188888698298,78.92892982245485,60.136327483775176,37.58520467735946,43.22298537896336,18.792602338679785,16.913342104811704,11.885485310406953,11.27556140320786,11.27556140320786,60.13632748377512,71.41188888698292,80.89555028730048,{}
174,97,174,0,5.799999999999983,28.251476067827657,200.47399961760524,24.717809199064767,28.74715381083509,52.92044867621407,54.78938010789934,31.94742397575544,113.31798966054998,84.75442820348283,70.47225877004894,80.80819005632281,58.257067249907095,37.58520467735946,43.22298537896336,18.792602338679785,16.913342104811704,13.681221013113808,13.154821637075829,14.09445175400981,58.257067249907095,71.41188888698292,81.00461808698408,{}
175,97,175,0,5.833333333333316,29.929299837804106,195.24463162953973,22.71228625318789,28.558666451252783,52.57346352058673,56.28749703253039,31.73795330501457,112.57499406506088,84.19871620186665,69.07672189914945,78.41141404768314,57.87509132090895,36.40529937928147,43.87305309810836,17.735915082214092,17.735915082213978,10.886028174258051,11.356143126593969,10.268161363387094,57.87509132090895,72.81059875856289,80.62494168735303,{}
176,97,176,0,5.866666666666649,28.5152589484738,199.1437698021702,24.56880533525228,28.82487995697215,53.06353423364036,56.81218861568871,32.033802966906364,113.62437723137742,84.98358602257153,70.66280066229353,79.14233674176876,56.53024052983483,35.80248566889543,45.22419242386786,18.84341350994498,15.074730807955916,13.718212104155231,11.46200096412086,12.248218781464177,60.29892323182378,77.25799539077423,79.50044869169359,{}
177,97,177,0,5.899999999999983,31.93493210605234,189.5457776104621,20.60687336965734,32.20626180864113,50.51079154648328,52.53742471300924,31.716197120135803,116.21121714021358,84.14099846504106,68.09654087558567,76.49200481915113,55.96975962376905,34.51468510132429,49.4399543343294,19.58941586831918,15.8580985600679,15.384615384615309,13.19219885711606,13.992439905942264,59.70107693202044,76.49200481915119,76.85517364935468,{}
178,97,178,0,5.933333333333316,37.457697156620746,185.9479147823293,22.52438224816169,41.19454942986,50.64316914279511,54.37474612442043,33.72178601949043,134.8871440779615,93.69560469999632,74.82192528830603,80.43356968492901,63.59863649506019,38.3462367102569,62.66336242895613,21.51130352038785,17.770207255972764,15.424935053787904,15.080841172456523,14.964385057661218,63.59863649506013,76.69247342051369,77.05659403577782,{}
179,97,179,0,5.966666666666649,45.07588047931255,182.02451255597165,22.460088745405983,41.219345463981504,46.94134666720332,50.84618845659927,35.75828274823606,144.4224263549542,103.21395787389145,80.48198467103816,82.35365873315538,69.25194029833517,40.24099233551908,68.31610326727662,27.13927390069898,19.652577652230207,18.810091527555624,16.845066559054487,17.7809035901131,63.63691811198368,78.61031060892105,75.07723054186752,{}
180,97,180,0,5.999999999999982,33.550537751683464,182.7243063637557,26.121067296791704,42.84456519582898,46.56343078905749,48.53022014026856,37.267476930728925,139.77704498579686,96.93546587352007,80.02510645957932,81.88615544701145,70.71986152241902,39.08202873607354,63.27566557269063,20.47153886175284,14.888391899456565,18.97905020533648,18.610489874320763,19.541014368036823,65.1367145601227,78.16405747214725,74.65103390977087,"{'neutral': (['m1', 'm3', 'm12', 'e1', 'e2'], 2.14906472204457, 80)}"
181,97,181,0,6.033333333333316,29.96031720216584,181.4347726594095,26.16422535631364,41.28475925650402,48.626630821598646,50.49417437614777,35.5577384180406,132.9004104607395,91.65103754361066,76.6238028292039,80.36154930867735,72.88605634973055,41.11521127420701,56.0661971921005,14.95098591789349,16.81985915763005,20.89463802690741,20.642379628252,21.492042256971843,67.27943663052059,82.23042254841408,76.82864924417551,"{'neutral': (['m1', 'm3', 'm12', 'e1', 'e2'], 2.14906472204457, 80)}"
182,97,182,0,6.066666666666649,26.00519492388809,187.9396567688372,26.07145030496109,37.33556778401129,50.187262542273785,53.99585621666429,35.34161267995045,124.67502827652622,87.38216178304381,74.30055692539463,78.0155847716643,66.87050123285508,37.1502784626972,52.0103898477762,13.002597461944106,13.002597461943992,20.76763700640937,20.5169118754764,20.43265315448349,65.01298730972019,81.73061261793396,76.36167217355434,"{'neutral': (['m1', 'm3', 'm12', 'e1', 'e2'], 2.14906472204457, 80)}"
183,97,183,0,6.099999999999982,31.255460394158465,185.81845047417485,25.95624706482455,36.75353258108501,51.52167933073842,55.18373821009013,31.201525133274345,125.02184157663378,88.2703234328916,72.49766133907872,80.75688858023966,67.90920176065606,43.13152003717357,50.4730553626498,13.765378735268088,19.271530229375458,20.27247702257989,18.445379222275587,19.271530229375344,62.40305026654892,82.5922724116088,73.78151688910252,"{'neutral': (['m1', 'm3', 'm12', 'e1', 'e2'], 2.14906472204457, 80)}"
184,97,184,0,6.133333333333315,38.91790830128535,186.9170687699365,24.05436771350905,37.08174537924285,51.78841192232566,57.45864128498413,33.259151503222206,133.2922001121376,96.21747085403608,76.56276014025627,83.01986039304893,68.26077410095138,42.43237308978064,57.19145938187819,20.293743651634145,20.29374365163426,20.37742954750473,18.540872689621413,19.371300758378084,62.72611674141473,83.01986039304893,77.68261788348859,"{'neutral': (['m1', 'm3', 'm12', 'e1', 'e2'], 2.14906472204457, 80)}"
185,97,185,0,6.166666666666648,54.71856226687413,179.10193380046366,23.937209130463312,36.57978470641736,52.9028192867095,56.68084676792262,32.808935746239335,147.96234043040195,111.38695943482551,83.71596624334757,89.17570317226148,72.79649238551963,48.22767620540674,66.42679930178667,30.0285531090268,26.38872848975086,20.34723818719597,20.10158847957469,20.01903540601785,61.87701852769163,83.71596624334751,74.97066854889242,"{'neutral': (['m1', 'm3', 'm12', 'e1', 'e2'], 2.14906472204457, 80)}"
186,97,186,0,6.1999999999999815,58.58413459553977,179.66016013798458,23.82362927313126,38.54459325217846,54.93734622898696,58.49858945193272,32.94011735368458,153.8749146487185,115.34469485488268,85.87788093092354,91.35944779885472,76.74193615103798,51.16129076735877,69.43318032712966,31.062212251610617,29.2350232956336,18.63374428309689,20.181961665384545,21.0126729937366,62.12442450322124,84.0506919749464,78.90833499558413,"{'neutral': (['m1', 'm3', 'm12', 'e1', 'e2'], 2.14906472204457, 80)}"
187,97,187,0,6.233333333333315,56.47964968444975,178.77083083732137,23.705700782226657,38.22429396207082,51.03774132162657,54.57462159974403,32.777061662832544,151.17954198610167,112.9592993688995,84.5437077926772,87.27092417308609,72.72577014423848,47.27175059375486,70.90762589063252,32.72659656490737,27.27216380408936,18.27212360999557,16.363298282453627,17.27237040925661,61.81690462260264,83.63463566587416,78.51773368294904,"{'neutral': (['m1', 'm3', 'm12', 'e1', 'e2'], 2.14906472204457, 80)}"
188,97,188,0,6.266666666666648,41.53076246172088,179.17627946622883,21.94637659251589,32.67148626005812,52.59463341685185,56.18467030119026,32.521730760003464,128.53918776234374,95.88290767459574,74.86521330175572,81.1791469537111,66.74729860638467,41.49156399856349,54.11943130247391,21.64777252098952,23.451753564405408,18.12978510918871,18.039810434158028,18.941800955865915,63.13933651955301,84.78710904054265,74.31438545591988,"{'neutral': (['m1', 'm3', 'm12', 'e1', 'e2'], 2.14906472204457, 80)}"
189,97,189,0,6.299999999999981,25.35620785723961,184.9845287575511,21.75380299915525,30.923240658937868,50.71241571447943,52.5145374593463,34.51418497971339,112.52967198930877,81.6155088200717,68.64909033092601,77.68186537446888,61.42287029609167,35.227822669817215,42.45404270465167,11.742607556605776,15.355717574022831,16.65561421733391,16.25899507837721,17.162272582731475,61.42287029609173,84.90808540930323,74.42041908061692,{}
190,97,190,0,6.333333333333314,21.97271584033525,188.6638057236184,21.97271584033525,31.234427372884007,51.22274482831679,53.19970217638347,34.86150807973475,110.03014250746328,78.80234769000685,67.51518503406908,76.63885868732166,60.21624611146706,33.75759251703448,41.056531439636615,11.860775749228424,13.685510479878872,18.338357084577225,18.338357084577225,19.159714671830443,65.69045030341863,87.5872670712248,75.36839234278001,{}
191,97,191,0,6.366666666666648,23.71574738817244,188.062068086107,23.715747388172424,30.97500277852973,51.22110563524214,52.873822594693394,32.941947970090986,111.32590685953964,80.36228219750683,68.20930474153761,76.39442131052226,60.02418817255318,35.468838465599674,42.74449763803034,11.822946155199816,15.460775741415205,18.279867436149004,18.27986743614893,20.008062724184413,65.48093255187621,85.48899527606062,80.36228219750672,{}
192,97,192,0,6.399999999999981,26.770050760906145,184.27627909511264,21.36860745944012,32.25016173515101,48.375242602726495,51.76346376913528,30.739946488556264,110.92024953053352,78.67466127469217,64.99618102246359,74.79012610804034,56.98295322517356,35.61434576573356,44.51793220716684,12.465021018006723,16.026455594580057,19.668665318673057,17.807172882866723,18.697531527010085,64.10582237832023,85.47442983776034,76.90142601667209,{}
193,97,193,0,6.433333333333314,32.309506367544735,185.4654858719592,19.79559489530304,34.24010395498955,48.6874269306132,52.09751361108784,32.45828462040883,118.77356937181833,84.53832719887048,68.10394018366594,75.27277599247282,57.35068647045557,34.05197009183303,51.97405961385016,17.922089522017245,16.12988056981567,18.011477056686836,17.922089522017302,18.818193998118204,64.51952227926245,84.2338207534815,77.39770094373954,{}
194,97,194,0,6.466666666666647,31.804279509555727,181.0883088709929,21.27634665137014,35.514339254488895,49.59937057035704,53.27150888173321,32.00000000000004,120.47386114635908,84.9768978648415,68.90927227070426,75.97688993949441,58.30784576751898,35.33808834395086,53.0071325159264,19.435948589172995,15.902139754777863,21.27634665137014,19.435948589172995,20.31940079777172,63.60855901911162,84.81141202548218,72.7870264505442,{}
195,97,195,0,6.4999999999999805,36.13110017417159,188.7482586686124,21.75380299915527,32.718102754174744,50.87305094640587,52.66967675585769,34.37205320919022,124.861575572968,92.20512352180651,74.06875535705183,77.68186537446888,59.616315287383145,34.32454516546295,56.00320526996597,23.485215113211552,16.25899507837721,21.75380299915533,19.87210509579438,20.775382600148703,65.0359803135089,84.90808540930323,76.06862357171903,{}
196,97,196,0,6.533333333333314,35.88895629952437,187.249387518066,20.037505235033706,34.24010395498957,52.09751361108783,55.67398383320272,34.09910086884162,124.12906999290983,89.89674369927823,71.68835808806932,75.27277599247282,57.35068647045546,32.25976113963122,57.35068647045546,23.298716378622544,14.337671617613864,19.795594895303086,19.71429847421905,20.61040295031995,62.7273133270607,82.44161180127975,75.46455407652098,{}
197,97,197,0,6.566666666666647,38.0178853000743,190.7334354367072,20.217703720923964,32.75018391997658,52.72132109004861,56.17466330764552,32.60006769536473,123.44394141022262,90.70519050495876,71.42889259291951,74.1413821850557,56.05811823748115,32.549875105634214,57.86644463223854,25.31656952660433,16.274937552817164,19.97361786700481,18.08326394757455,19.891590342331995,63.29142381651093,83.18301415884298,79.89447146801906,{}
198,97,198,0,6.59999999999998,34.11641058248574,189.3911762259316,19.833056394428613,34.30490047316202,52.1961037757635,55.77934216710021,34.304900473162,122.43046656603424,88.14917514126633,70.92622200043093,73.61962283589037,55.66361726616094,30.525209468539856,57.45921782313394,23.3428072406482,12.569203898810429,18.045562262793407,16.16040501275637,17.956005569729314,61.05041893707977,80.80202506378203,75.50067976406751,{}
199,97,199,0,6.633333333333313,30.67082396143596,188.3543048246326,21.687547607710208,34.40906539044746,52.509261124122816,54.301069818898966,32.46894106382876,119.2101051241466,84.82174744327648,69.34053272042524,73.84316471525801,54.03158393799367,31.518423963829605,54.93211033696025,20.71210717623103,13.507895984498305,21.68754760771019,18.010527979331187,19.81158077726428,63.03684792765927,82.8484287049236,72.40142642519847,{}
200,97,200,0,6.666666666666647,80.64875668081712,187.01902524120723,25.84168185528507,33.91609600402735,51.68336371057016,55.88200562321359,29.731407201573344,169.88749559052812,136.0763285416858,95.28827444804472,110.02357462042278,80.55297427566666,65.8176741032886,73.67650086189019,44.20590051713418,42.2411938274837,14.167701421563365,13.892574232943746,14.73530017237806,41.25884048265851,82.51768096531708,75.30236597125291,{}
201,97,201,0,6.69999999999998,81.08979999750301,187.7634005778717,23.99682225286292,34.05108925056352,53.83949942072826,58.04727314823256,29.849744500233907,168.82108669037035,134.8406282955987,93.69501532678636,110.46149175368488,80.873592176805,66.07964238836507,71.99722230374107,42.409322726861205,44.3818493653198,15.02231532377358,15.903018174638632,16.766476426898635,41.4230594076318,82.84611881526365,75.11157661886801,{}
202,97,202,0,6.733333333333313,77.30836662159352,186.4881702748901,26.038419962865376,36.125485505158174,54.03432269583002,57.95380920501842,31.921129473028955,171.1808844872415,135.1401927607299,96.0137239328916,110.86120701529752,81.16624085048568,64.33909335709234,74.23741541202958,42.56278483623032,42.56278483623032,13.279992586815045,12.041828501719372,13.857650876912205,41.57295263073655,81.16624085048568,74.94016947623442,{}
203,97,203,0,6.766666666666646,79.79790943002617,189.3658043333066,23.955072676535377,34.05236672445786,54.0432766637428,58.23765812397614,34.05236672445786,171.82363615975433,137.7838611434594,97.47866476235048,111.40418829982912,81.56378071951781,62.664855918653984,74.60101895077833,42.77125086511285,40.7818903597589,13.34503596517517,12.100807541222991,12.930843284801654,45.7552916231441,81.56378071951775,74.91203709907029,{}
204,97,204,0,6.799999999999979,73.47699981018492,190.1377700249774,23.878120939921743,33.942979089085895,51.899291858882215,57.81301372876256,32.280413064026575,163.3755502222418,129.44101611444586,92.20810553295678,105.09741060745614,79.31880045845753,60.480585349573744,70.395435406881,38.667915223498085,38.66791522349797,10.678620319325285,11.897820068768624,12.889305074499362,47.59128027507444,83.28474048138031,74.32831858201357,{}
205,97,205,0,6.833333333333313,49.43984244352887,186.41674252530345,25.99039997275132,33.82390311444272,49.55816692654955,53.49853614306808,35.568243337412355,144.5869494394804,110.8154300880467,85.95658806541326,96.82466241851148,81.01655426855041,53.35236500611859,55.32837852486364,23.712162224941608,29.64020278117698,12.497406813036914,11.856081112470749,10.868074353098166,49.40033796862826,79.04054074980525,74.40943842310386,{}
206,97,206,0,6.866666666666646,22.020609925391305,185.9874845396392,23.716922720370704,27.854113132138743,47.43384544074142,49.3968960542944,37.62883473534395,111.1550134841853,83.30661874299713,71.88978782080494,84.69207880259216,66.96582975088677,38.40687294536156,34.46770648942697,8.86312452585264,16.741457437721806,16.24159937470804,13.787082595770812,14.771874209754458,53.178747155116014,76.81374589072311,73.29919820344246,{}
207,97,207,0,6.899999999999979,10.072904974938766,178.18598121748812,21.73005112629096,23.787678712656728,45.4784859348553,47.45215819194272,37.58567448948166,93.03552953628822,69.25386314838774,64.20242378222338,82.9692861185656,71.11653095877045,39.50918386598357,15.803673546393384,5.926377579897576,17.779132739692614,12.493900951088536,13.968605915391551,12.840484756444653,49.38647983247944,71.11653095877045,73.75635565834315,"{'neutral': (['m1', 'm3', 'm12', 'e1', 'e2'], 1.8086082853182301, 80)}"
208,97,208,0,6.933333333333312,6.104913953275186,177.7043873671696,25.09706291519956,27.096466471198514,44.444444444444464,46.373241438859104,36.73109135927636,94.77375071627756,67.67924239321907,64.67320058916812,79.152275347937,73.36064544442945,39.57613767396856,18.340161361107448,8.687444855261333,16.40961805993811,15.91966789109846,15.564537688277277,16.409618059938225,57.916299035075895,71.43010214326029,73.58890729561425,"{'neutral': (['m1', 'm3', 'm12', 'e1', 'e2'], 1.8086082853182301, 80)}"
209,97,209,0,6.9666666666666455,19.415416986885702,178.6323878247561,25.24004208295139,29.12312548032856,44.65545906983698,44.69764657010067,35.00164074036545,108.74366893856744,79.62688346374988,69.89550115278848,77.66166794754281,75.72012624885417,41.74314652180419,32.035438028361455,0.970770849344376,16.5031044388528,15.53233358950854,15.653209603896654,15.53233358950854,62.12933435803421,69.89550115278848,75.81962711470813,"{'neutral': (['m1', 'm3', 'm12', 'e1', 'e2'], 1.8086082853182301, 80)}"
210,97,210,0,6.999999999999979,29.037652503472792,179.64508426822383,27.04178277449876,34.768006424355576,46.35734189914092,50.2204537240691,30.96519689013261,121.7493262787982,87.00582063860487,72.4333467174074,77.26223649856797,79.19379241103218,47.32311985537285,43.46000803044444,6.760445693624661,20.281337080874096,15.57270162153637,15.928018097752378,15.452447299713585,65.67290102378274,69.5360128487111,75.33068058610365,"{'neutral': (['m1', 'm3', 'm12', 'e1', 'e2'], 1.8086082853182301, 80)}"
211,97,211,0,7.033333333333312,36.35409302765084,179.69994639921663,24.91285438780264,32.53853742210743,47.76821771924324,49.82570877560551,32.48238804908544,126.23830451382804,93.7036632017819,75.47378399640422,76.42914835078909,82.16133447709831,46.812853364858256,46.81285336485837,12.419736607003188,21.97338015085188,13.375100961388055,13.910314968446714,13.375100961388055,68.7862335157102,68.7862335157102,78.33987705955883,"{'neutral': (['m1', 'm3', 'm12', 'e1', 'e2'], 1.8086082853182301, 80)}"
212,97,212,0,7.066666666666645,40.26566191448694,182.31557966404097,25.00000000000009,32.65235781055075,46.05782810133093,49.88958396534581,30.738460292871945,128.59535258275218,95.94728945072484,75.73779264867778,72.86167394050017,80.53132382897388,46.01789933084228,51.77013674719751,17.2567122490658,19.174124721184285,15.339299776947428,15.458673560021085,15.339299776947428,76.69649888473708,72.86167394050022,74.87735069471161,"{'neutral': (['m1', 'm3', 'm12', 'e1', 'e2'], 1.8086082853182301, 80)}"
213,97,213,0,7.099999999999978,38.032597757706135,178.78256844976585,24.69034487667102,34.397012623337616,43.724186566898645,49.52657098623895,32.34318633944636,129.37274535778542,95.03880483837084,75.97029192821856,70.27252003360218,79.76880652462955,42.73328920962297,54.12883299885573,18.042944332951947,18.042944332951947,15.31230186846955,15.31230186846958,15.194058385643755,77.86954922642406,74.07103463001312,76.06519551541227,"{'neutral': (['m1', 'm3', 'm12', 'e1', 'e2'], 1.8086082853182301, 80)}"
214,97,214,0,7.133333333333312,39.755206793202014,176.11347686523808,22.69154821392885,36.12678499299631,45.42247439312106,51.37017711443511,34.08980858540992,132.5832984353691,96.5132068070824,76.58397522200994,69.9656069929473,79.42041874875099,40.65569054995581,57.67435171040268,17.96414233602718,17.964142336026953,3.781924702321476,4.228320360088238,2.836443526741107,77.52945639759031,75.63849404642957,79.51041358640381,"{'neutral': (['m1', 'm3', 'm12', 'e1', 'e2'], 1.8086082853182301, 80)}"
215,97,215,0,7.166666666666645,33.75982860438219,176.38811502844428,20.684187594352224,35.77708763999659,45.099585394321856,49.01215952008163,37.499954337871735,127.68454278319442,91.93207736864792,74.90633420552354,65.54304242983312,76.77899256066166,33.707850392485625,56.1797506541426,16.853925196242812,11.235950130828542,1.872658355138072,4.187391380721644,2.8089875327070786,80.5243092709378,74.90633420552354,78.74077462814995,"{'neutral': (['m1', 'm3', 'm12', 'e1', 'e2'], 1.8086082853182301, 80)}"
216,97,216,0,7.199999999999978,18.927088020234965,171.1104742632181,22.271444111692404,40.87313987169251,44.69728344620514,48.57495622688182,39.15138568526567,120.99337668356767,80.15055800386871,70.52623968702574,64.95837865910266,76.09410071494892,31.551212491564115,50.11074925130788,5.567861027923186,7.423814703897392,3.711907351948753,5.249429719398207,2.783930513961536,76.09410071494898,74.2381470389746,74.2381470389746,{}
217,97,217,0,7.233333333333311,13.246195059520115,172.5974641584952,24.35283331391656,37.51270054408143,45.1149147093985,48.8495536964874,39.38376927904319,114.40909751060924,76.8964156238675,70.24855763629785,65.56532046054474,74.93179481205107,30.90936535997116,44.02242945207991,2.809942305451841,4.68323717575322,5.619884610903796,5.298478023807995,4.683237175753163,82.42497429325613,78.6783845526536,74.95520734029371,{}
218,97,218,0,7.266666666666644,12.89214238094894,169.59966080101765,25.78428476189777,36.88070714145493,46.19046942565256,48.2028080712854,38.85143449429063,114.32114293823832,77.44050627334478,70.90678309521911,66.30244653059447,73.66938503399388,31.30948863944741,44.20163102039624,3.683469251699648,5.525203877549643,9.391040796067903,9.391040796067903,9.208673129249236,79.1945889115434,77.35285428569352,73.76141428290985,{}
219,97,219,0,7.299999999999978,20.333576943274466,175.763759325878,24.03059093296065,37.016323724859255,46.24963023473797,51.89006408424818,35.17024418189623,116.5146086590277,79.50729214022053,69.31901230661742,66.54625181435267,73.94027979372527,35.12163290201943,46.21267487107832,7.394027979372595,9.242534974215689,12.93954896390187,9.95451481437114,10.166788471637233,81.33430777309775,79.48580077825466,75.78878678856836,{}
220,97,220,0,7.333333333333311,29.179971574475644,175.23174255955257,21.96083672003247,34.69917642853534,49.27496357311159,53.014325017906735,34.65121624468975,120.42263516109192,85.73556588162168,71.12618071278439,67.47868426597483,74.77367715959372,36.47496446809453,49.24120203192763,12.7662375638331,12.766237563832988,14.589985787237822,12.895847359464014,13.678111675535432,76.5974253829985,76.5974253829985,80.26564356593896,{}
221,97,221,0,7.366666666666644,29.477754524304487,176.9049054748339,22.108315893228337,35.00483349761157,49.77781683902602,53.55533863907253,37.03097081989922,123.49308063542126,88.50999526940831,73.69438631076116,70.00966699522314,73.69438631076127,35.00483349761157,51.58607041753282,14.7388772621523,12.896517604383234,12.896517604383178,11.2066362936105,11.975337775498645,75.53674596853028,79.22146528406836,77.40103537185107,{}
222,97,222,0,7.399999999999977,33.15719870703833,176.87676532839552,22.104799138025555,33.20832780249295,47.92914273227185,51.61074821924049,35.047707214748726,123.47343667267272,90.2800577880881,73.68266379341844,68.15646400891205,71.84059719858294,34.99926530187372,53.41993125022839,18.420665948354667,12.894466163848165,14.736532758683666,13.025377806053656,12.894466163848222,79.20886357792477,79.20886357792477,77.36679698308944,{}
223,97,223,0,7.4333333333333105,35.05328311733559,176.9049054748339,20.34952754356057,31.3742544371448,47.93676800228793,51.71750010931448,33.16247383984262,119.76754891387408,88.43326357291357,70.93084682410779,66.32494767968512,70.00966699522326,35.00483349761157,51.58607041753294,16.581236919921253,14.738877262152188,14.7388772621523,14.853578426001034,14.7388772621523,79.2214652840683,81.06382494183737,73.69438631076127,{}
224,97,224,0,7.466666666666644,31.61935773831874,178.59511811977458,22.39691098391972,33.47931995822,46.53623987411984,50.356566441565406,31.61935773831885,119.05211214172306,85.57847670808161,69.74858324629156,66.95863991643989,70.67856435624208,37.19924439802219,50.21897993732989,13.019735539307703,14.879697759208852,14.995494818940289,14.995494818940289,14.879697759208852,78.11841323584656,79.97837545574765,76.28113010968575,{}
225,97,225,0,7.499999999999977,29.473065517367445,176.87676532839552,22.10479913802544,35.047707214748726,40.52546508638011,44.247958021468406,31.315132112202832,117.906652336483,82.89299676759572,68.15646400891194,66.31439741407655,69.99853060374744,36.84133189670911,49.7357980605575,12.894466163848278,14.736532758683666,14.851215677094087,14.851215677094174,15.657566056101471,79.20886357792477,82.89299676759572,75.54719127511122,{}
226,97,226,0,7.53333333333331,31.454189338092533,177.6622000576118,22.20295717983004,33.35579190783689,44.44444444444444,48.2485239497865,33.304435769745055,120.28024988020168,86.96158228766762,71.2344876186213,66.60887153949011,70.30936440279504,35.15468220139746,51.80690008627016,14.801971453220062,12.951725021567428,16.652217884872528,16.754694039077865,16.652217884872528,81.41084299271017,81.41084299271017,72.183328044894,{}
227,97,227,0,7.566666666666643,35.36678993433771,176.62866405323695,22.3060465229604,35.31790699468729,44.65080202764664,48.36550112561488,31.60023257419391,124.55596423354362,89.24354687889628,71.56523259449784,66.91813956888109,70.63581398937458,37.176744204933925,55.76511630740095,16.729534892220272,13.01186047172689,18.58837210246702,18.6810827628907,18.58837210246702,81.78883725085473,83.64767446110142,70.63581398937458,{}
228,97,228,0,7.599999999999976,29.90360381678613,179.50920973673715,24.296678101138696,41.117455248081,46.761745528647005,50.49693023230366,31.82750144560269,127.1040579434142,85.99317352191292,71.02105906486702,67.28310858776877,72.8900343034162,38.313992390257226,57.0037447757486,14.01731428911853,14.01731428911853,20.558727624040444,18.7829686863735,19.62424000476585,80.36593525761276,82.23491049616189,72.89003430341609,{}
229,97,229,0,7.63333333333331,31.74763710234288,175.55569136780636,22.410096778124284,39.21766936171764,48.55520968593624,50.56086244185153,33.6151451671866,126.9905484093714,87.77287904765376,71.89906049648232,69.0977983992168,70.96530646406052,36.416407264452005,56.9589959777328,15.87381855117144,14.00631048632772,18.675080648437017,16.91100477573742,17.741326616015158,82.17035485312272,82.17035485312272,74.70032259374784,{}
230,97,230,0,7.666666666666643,26.224589559681355,179.4076870446481,22.42109571925232,35.54920328818718,46.74796963918995,52.44917911936271,33.63164357887854,117.71075252607488,82.23191366110393,69.13171180102802,63.526437871214966,67.26328715775708,31.763218935607483,52.31589001158886,13.07897250289716,9.342123216355162,18.777435272310992,16.91930474640619,17.750034111074797,82.21068430392535,82.21068430392535,74.76033739075525,{}
231,97,231,0,7.699999999999976,24.29667810113881,181.3002317762863,20.64350624195884,33.64155429388438,50.462331440826574,52.36467060159156,35.510529532433566,114.0228079915464,80.38766459024124,68.21759620704336,65.4141333492197,67.28310858776888,30.83809143606072,47.65886858300291,10.27936381202028,12.148339050569348,18.68975238549132,15.068160098370855,15.886289527667657,82.23491049616189,82.23491049616189,78.51920657187505,{}
232,97,232,0,7.733333333333309,24.185000130797107,180.4573086682553,22.324615505351176,33.53856079565087,50.23038488704015,53.98322020562958,33.48692325802676,113.49871018211977,79.99653889417505,67.90403882877649,65.1134618906076,65.1134618906076,31.626538632580832,48.37000026159421,13.02269237812152,11.162307752675588,16.84649928848243,16.84649928848243,17.673653941736347,81.85692351962098,81.85692351962098,74.43863619322666,{}
233,97,233,0,7.766666666666643,26.04397637231739,180.45713941777663,20.4631242925351,33.48511247869385,48.36738469144666,52.12116151609565,33.48511247869385,113.4773256222402,79.99221314354634,66.97022495738759,65.10994093079353,66.9702249573877,32.554970465396764,47.43724267814957,12.091846172861665,12.091846172861665,18.602840265940983,14.998089307444326,16.742556239346925,81.85249717014045,81.85249717014045,74.41136106376416,{}
234,97,234,0,7.799999999999976,20.852846378907884,183.884190795824,20.852846378907884,32.22712622194854,49.28854598650969,53.113813836427255,32.22712622194854,106.15994520171284,73.9328189797643,63.50639579031031,66.34996575107061,66.34996575107061,34.122839529122075,39.80997945064223,5.68713992152027,13.26999315021419,18.957133071734404,17.166414107947706,18.009276418147692,83.41138551563154,83.41138551563154,73.9328189797643,{}
235,97,235,0,7.833333333333309,20.836595236929096,181.0998426970907,20.75102364237489,32.069763810943186,50.9343307585566,52.82078745331796,32.12519991767975,105.64157490663628,73.57181109569308,63.19629927450558,66.02598431664762,66.02598431664762,33.95622050570444,39.61559058998864,5.659370084284092,13.205196863329547,20.751023642375003,18.95865514698252,19.80779529499432,81.11763787473859,83.00409456949996,73.59599246400269,{}
236,97,236,0,7.866666666666642,28.3647101478734,181.141902249162,22.641509433962256,32.07547169811323,49.0928748349348,52.83018867924534,32.13091767155927,115.09433962264154,83.01886792452831,68.86792452830196,71.69811320754718,69.81132075471703,38.67924528301887,44.33962264150944,10.377358490566053,17.924528301886767,18.8679245283019,19.241583070161493,19.811320754716974,79.2452830188679,83.01886792452831,73.58490566037722,{}
237,97,237,0,7.899999999999975,39.25062233534379,181.31012780706664,18.783993929609323,35.5124678272158,50.46508585972788,54.23545626393512,33.69526938665574,127.09725327635137,91.58478544913557,71.9594742814636,72.8940129084956,71.0249356544316,38.316083708311794,55.13777899488775,17.756233913607957,19.62531116767184,20.64463304014981,18.783993929609267,20.559849794703894,76.63216741662364,80.37032192475158,74.78644997883445,{}
238,97,238,0,7.933333333333309,52.60640811048259,178.37230592125297,20.65363542246098,35.67446118425062,50.69528694604037,54.48285623831173,31.91925474380309,140.83275831530273,105.16254331076648,78.85933524939605,75.10412880894864,75.10412880894864,43.18487406514555,65.71611270783,28.164048303355685,22.53123864268457,20.653635422460862,20.7388054144043,21.59243703257272,76.98173202917235,84.49214491006722,73.32274971116775,{}
239,97,239,0,7.966666666666642,54.70724414807955,179.22331444675692,20.75102364237489,37.77626587349784,50.9343307585566,56.59370084284069,33.95622050570455,147.15571436564272,109.414488296159,82.06086622211922,79.23118117997717,77.3447244852158,44.33173232689194,68.85566935878978,29.24007876880114,23.58070868451705,18.95865514698252,18.95865514698252,20.751023642375003,73.57181109569314,81.11763787473859,71.78457293201656,{}
240,97,240,0,7.999999999999975,56.62513305900643,182.9960231370773,22.637480337136253,35.842677200465914,52.85446344491449,58.51057634722088,33.95622050570455,149.0420180072472,113.2031210665902,84.89055126426126,79.23118117997717,77.3447244852158,44.33173232689194,70.74212605355115,31.126535463562504,23.58070868451705,20.836595236929096,18.95865514698252,20.751023642375003,71.68535440093177,81.11763787473859,75.48184481580407,{}
241,97,241,0,8.033333333333308,56.35379400831898,183.9964522837637,20.651587883874413,35.72029607215727,50.72501623781634,54.4450953302146,33.79350744634007,146.48666325719307,110.78351691253164,82.60635153549788,76.9741002944412,75.09668321408901,42.24188430792504,70.40314051320843,30.97738182581168,23.46771350440281,20.73674943232398,18.86780814650778,19.712879343698376,73.21926613373677,80.72893445514569,71.44059214431454,{}
242,97,242,0,8.066666666666642,52.34924410487935,186.87982908386635,18.684246432710324,33.63164357887854,52.34924410487936,56.08387106354035,35.50006822214948,140.14430385605758,106.51659309536257,80.34225966065424,74.73698573084118,71.00013644429907,37.36849286542065,67.26328715775708,31.763218935607483,18.684246432710324,20.637424718337844,20.63742471833788,20.55267107598138,72.86856108757019,80.34225966065429,72.96431482281768,{}
243,97,243,0,8.099999999999975,43.18059284810113,187.7792526227464,20.73674943232404,35.670924526692374,50.72501623781634,56.32251241056679,33.845617743209125,133.296612705008,97.6256881783156,76.0353917542651,71.34184905338452,67.58701489268003,35.67092452669226,63.83218073197577,26.283839124931205,16.896753723169923,20.73674943232398,18.86780814650778,19.712879343698376,73.21926613373677,78.85151737479345,73.2433316285967,{}
244,97,244,0,8.133333333333308,38.99854255619164,187.6471416154108,22.36212564883037,33.4273221910214,53.8871391921591,55.74314628316411,31.570248735964697,126.29464915754878,92.8722416306857,73.3544014747414,72.42586474721304,66.8546443820428,38.07000582866328,56.64074037923069,21.35634473315247,17.64219782303917,18.570734550567465,18.66335724260548,19.49927127809576,70.56879129215628,77.99708511238327,74.28293820226986,{}
245,97,245,0,8.166666666666641,37.72535819200312,190.5970819805456,22.6352149152018,35.83909028240305,52.84917409031156,56.61946635862435,32.06655446320269,128.26621785281066,92.4271275704076,73.56444847440605,71.67818056480587,66.01937683600545,36.78222423720297,59.417439152405,23.578348870001943,16.033277231601346,20.83451003666884,20.83451003666888,21.692080960401768,69.7919126552058,79.22325220320658,75.54497090718148,{}
246,97,246,0,8.199999999999974,39.54835572203399,188.47610362500976,20.80123174219092,35.781845653268874,52.76475980002101,56.49765103147729,33.950862956210266,129.94459737239742,94.16275171912856,74.3885738581115,73.44694634092025,65.91392620339002,35.781845653268874,60.26416110024229,24.482315446973416,16.949295309443187,22.59906041259086,20.7158053782083,21.657432895399552,71.56369130653769,79.09671144406798,77.23641951990606,{}
247,97,247,0,8.233333333333308,41.212487146628064,193.0948154544973,22.479538443615297,35.64186567699764,52.58589290698112,56.23005902236324,33.7713035446746,133.00393579139063,97.4293440412979,76.80508968235233,74.93179481205107,67.43861533084589,37.46589740602542,61.81873071994221,24.35283331391668,16.859653832711388,20.691218134122565,20.606243573314032,20.606243573314032,69.31191020114721,78.6783845526536,78.7675385580864,{}
248,97,248,0,8.26666666666664,37.29168106934719,192.2783088272244,22.452565229935047,37.338266572918776,52.24163903027116,55.96858937737069,31.91653790570504,128.65629968924748,91.3836430071175,72.71877808522675,72.71877808522675,63.39585781789003,36.35938904261343,60.59898173768909,23.30730066834201,13.984380401005184,20.59500401743731,18.64584053467354,18.64584053467354,70.85419403175945,76.44794619216151,76.53884746825906,{}
249,97,249,0,8.299999999999974,38.12031412316571,196.6524257636793,20.96617276774112,38.16793477149306,49.59304896279968,55.40574890697862,32.402267004690884,129.6230820824924,91.48875389559772,72.4285968340148,72.4285968340148,60.99250259706514,34.308282710849085,62.898518303223454,24.77820418005774,13.342109943107973,17.259706298602207,17.154141355424542,18.1071492085037,72.4285968340148,80.05265965864794,74.5542130556467,{}
250,97,250,0,8.333333333333307,34.239347869895056,190.3904792362836,20.977982523207057,36.13583455647301,49.52657098623896,53.314692988067925,30.44741071405227,121.61180439260636,85.48767867346675,68.37326273539679,70.27252003360218,56.97771894616392,33.23700271859559,57.92734759526672,23.740716227568328,14.244429736540951,15.1940583856437,15.194058385643755,16.143687034746506,66.4740054371913,74.07103463001312,81.7563536473455,{}
251,97,251,0,8.36666666666664,30.70144616400993,190.06860471568507,21.06613953616136,36.43733089970453,49.8295087542854,51.84946250615965,32.6130390363463,120.666724712002,84.26455814464532,68.94372939107348,70.85883298526994,57.45310782589456,31.59920930424198,56.49555602879639,20.10858773906307,12.448173362277087,17.342000624880413,17.342000624880413,18.1934841448666,70.85883298526994,82.34945455044891,82.54962907696788,{}
252,97,252,0,8.399999999999974,30.513177514605275,190.8017251314671,19.12852843327582,34.31330530370019,51.53150913594198,53.429853413800586,32.58027037775263,116.12054309021752,81.84446789592425,66.61759014784536,68.52094986635518,55.19743183678611,29.50207563690288,54.24575197753131,19.985277044353666,12.37183817031405,17.235655307523682,15.345376638355528,17.130237466588824,70.42430958486511,81.84446789592431,82.04341490411908,{}
253,97,253,0,8.433333333333307,28.31655297770533,186.9408790352547,18.929836030786777,35.8377264792278,49.00952570444315,54.7538320797206,30.37196139870424,113.03104061708304,77.22715250636031,63.10023436495294,67.80920707875543,54.62408348010854,31.07921991109629,51.798699851827,17.894096312449392,14.126918141407373,17.056624611384564,16.952301769688802,16.95230176968886,69.69279616427644,82.87791976292328,75.43768408641954,{}
254,97,254,0,8.46666666666664,39.1904172525689,183.02367422657963,16.776882470450232,30.057677931040224,50.3651559155154,52.32772592236666,29.82556883635584,115.70929757937937,85.76876994654357,66.17548085566466,67.10752988180082,55.92294156816729,31.68966688862816,54.05884351589509,24.23327467953925,16.77688247045012,18.73395357090979,16.880125798577026,18.640980522722487,70.83572598634532,82.02031429997879,78.31430669473073,{}
255,97,255,0,8.499999999999973,39.05199386447279,184.12826360668103,16.820503973438758,29.778213503876344,46.47498350859917,50.290281321653126,31.57773669329265,117.15598159341836,87.3821617830437,67.79925819442246,68.72801515598985,59.44044554031552,32.50649365486004,52.93914680934358,23.218924039185826,17.646382269781157,18.6677838920057,16.71762530821377,16.71762530821377,70.5855290791248,83.58812654106885,72.65705541238921,{}
256,97,256,0,8.533333333333307,41.67673797165195,183.8106988090936,17.136801901384324,30.3381721854991,49.23990252545465,53.12341174359735,32.22714619016651,121.17548832319356,90.85698373991195,70.02039788245145,71.91284106846354,62.45062513840264,35.01019894122567,53.93463080134768,23.65553982515246,19.870653453128057,9.649604733841937,7.569772744048805,7.569772744048805,70.02039788245133,81.37505699852454,79.57267912618082,{}
257,97,257,0,8.56666666666664,43.44834299928059,183.30875992985133,17.090005783443875,32.13914229406762,50.99137388850334,56.64970843659599,30.255326582693005,122.73095852911013,90.60887711235868,68.88555280421872,71.71646593315916,62.28008883669088,36.80187067622637,55.674624869163154,23.590942741170807,21.703667321877106,4.22007612980493,3.774550838587288,2.8309131289404945,67.94191509457187,75.49101677174656,79.35538697921828,{}
258,97,258,0,8.599999999999973,45.25232004798852,183.0502337283196,17.074049434533126,30.40298899461508,49.16817228297448,50.94376500155998,32.10913508548975,124.50100378892785,94.27566676664289,71.64950674264867,71.64950674264855,64.10745340131712,35.82475337132428,56.56540005998568,24.51167335932712,20.7406466886614,4.216135990286529,1.88551333533286,1.88551333533286,71.64950674264855,82.96258675464566,77.51271707754456,{}
259,97,259,0,8.633333333333306,45.22971335342834,182.9587873512349,16.96114250753567,30.21197769104897,47.114284743154485,50.91831503272032,32.093094329818,124.4388068416308,94.2474133160118,71.61371280959486,71.61371280959497,64.07542725069027,35.806856404797486,56.53714169178545,24.499428066440373,18.845713897261817,5.33037283722226,2.6651864186111505,1.8845713897262044,71.61371280959492,82.92114114795197,75.4770253391789,{}
260,97,260,0,8.66666666666664,47.036043419179805,188.22881951384383,15.168668220223632,30.16180553737352,50.83375646615322,56.443252103015766,30.161805537373503,122.30818466234474,92.19064510159252,68.6726233920026,69.61334426038616,63.96901905008463,36.68811386696029,55.502531234632215,23.518021709589902,21.636579972822688,4.207031619116656,4.207031619116758,4.7036043419179805,73.37622773392059,84.66487815452376,77.34533525013488,{}
261,97,261,0,8.699999999999973,45.74437694779874,184.9719257715764,15.248125649266283,32.45827787969352,51.497708557265874,55.2744554785902,30.49625129853257,123.90568169211546,91.4887538955976,68.61656542169828,70.52258112785648,64.80453400938165,37.16730627008644,56.22746333166947,23.825196326978585,21.91918062082016,6.027350887514387,6.027350887514387,5.7180471184748285,72.4285968340148,81.95867536480625,78.16988459061001,{}
262,97,262,0,8.733333333333306,41.57145261884512,185.2204847872524,17.006503344073053,32.178924019959794,51.0544908454011,54.79873299756855,30.23378372279637,120.94989657996712,88.81173968571454,68.02601337629198,69.9156248589668,66.13640189361718,37.79222965349561,52.90912151489374,20.78572630942256,22.67533779209737,5.975476178060089,5.975476178060089,6.613640189361661,71.80523634164155,79.36368227234061,75.67888090446394,{}
