,video_id,frame_seq,time_seconds,m1,m3,m4,m5,m6,m7,m8,m9,m10,m11,m12,m13,m14,m15,m16,m17,e1,e2,e3,b1,b2,b3,label_measures
0,235,0,0.0,13.10771072830471,147.6073150730924,19.66156609245695,19.66156609245695,39.459434611582665,39.3231321849139,49.15391523114238,101.584758144361,81.92319205190404,75.36933668775168,88.47704741605628,81.92319205190404,36.04620450283778,16.38463841038083,3.2769276820761206,19.66156609245695,16.38463841038083,16.38463841038083,16.38463841038083,42.60005986699014,62.26162595944709,53.34451784291096,"{'others': ['m1', 'm3', 'm12', 'e1', 'e2']}"
1,235,1,0.0333666666666666,9.753196981883434,149.69030433195124,16.577247243512545,16.25532830313898,39.01278792753328,42.26385358816151,48.8742336217686,91.02983849757857,74.77451019443959,69.89791170349781,84.52770717632302,78.02557585506736,32.51065660627808,9.75319698188332,6.502131321255661,16.255328303139095,16.577247243512637,16.577247243512545,16.25532830313898,42.26385358816151,61.77024755192832,52.92351463550036,"{'others': ['m1', 'm3', 'm12', 'e1', 'e2']}"
2,235,2,0.0667333333333332,9.750942763674402,149.65570699834356,16.251571272790784,13.40138898799397,39.13896650705855,42.37891301195991,48.75471381837235,87.8186552502956,74.75722785483754,69.88175647300034,84.50817061851205,78.00754210939579,32.50314254558157,6.500628509116268,6.500628509116382,16.251571272790784,16.251571272790898,16.57341580930087,16.251571272790784,42.25408530925597,61.75597083660495,52.40974256643308,"{'others': ['m1', 'm3', 'm12', 'e1', 'e2']}"
3,235,3,0.1000999999999998,7.440910793459629,146.4555742919783,16.967887254115194,16.638382348687628,39.93211763685031,39.93211763685031,49.91514704606288,90.09342203374472,73.51077591330038,69.88120586448804,83.19191174343814,79.86423527370061,31.612926462506493,8.319191174343814,8.319191174343814,14.974544113818864,16.967887254115194,16.638382348687628,18.30222058355639,46.58747057632536,66.55352939475051,54.1706482527196,"{'others': ['m1', 'm3', 'm12', 'e1', 'e2']}"
4,235,4,0.1334666666666664,4.556648086655752,145.1347852567161,19.598884484429146,19.332220569329024,38.79846040060799,38.66444113865828,45.108514661767686,87.23333545400126,67.96893994539569,66.05175361187412,77.3288822773161,70.88480875420646,28.998330853993597,12.888147046219387,6.444073523109637,12.888147046219387,19.59888448442918,19.332220569329134,19.332220569329134,45.108514661767686,64.44073523109677,49.28768496204419,"{'others': ['m1', 'm3', 'm12', 'e1', 'e2']}"
5,235,5,0.166833333333333,6.394886135819547,147.22133475060878,19.44928688624301,16.303824596873625,35.171873747006885,35.31691301696562,44.878252060293285,86.8622353115707,70.63382603393147,67.14630442610428,76.73863362983343,70.343747494014,28.776987611187565,12.789772271638869,6.3948861358194335,9.592329203729264,19.1846584074583,22.609336757768794,20.78337994141316,51.159089086555696,67.14630442610428,55.19642531371187,"{'others': ['m1', 'm3', 'm12', 'e1', 'e2']}"
6,235,6,0.2001999999999996,4.523168130068623,140.7643060579752,22.615840650343227,19.454881746185745,38.51338884249171,35.32707242193977,44.777080001057925,89.61125542391972,70.36398285880523,68.76480143019603,76.76070857324214,73.56234571602363,30.384447143575017,14.392632857482797,4.797544285827712,11.19427000026451,25.586902857747305,22.615840650343227,23.987721429138105,54.37216857271312,70.36398285880523,52.06557515388764,"{'others': ['m1', 'm3', 'm12', 'e1', 'e2']}"
7,235,7,0.2335666666666662,6.603456782615126,132.06913565230343,23.346745351297592,29.71555552176835,33.18195966736446,36.31901230438325,59.52275506257371,118.86222208707328,89.14666656530494,85.84493817399732,92.44839495661256,92.44839495661256,33.01728391307597,26.41382713046073,3.30172839130762,13.206913565230366,23.11209873915311,26.619385305596957,26.41382713046073,59.43111104353659,75.93975300007457,56.99666911539717,"{'others': ['m1', 'm3', 'm12', 'e1', 'e2']}"
8,235,8,0.2669333333333328,32.24862788786493,119.49411294672348,19.61607453698356,29.02376509907856,32.24862788786504,35.47349067665118,58.13704070652762,138.6690999178195,109.64533481874092,93.5210208748084,96.745883663595,103.19560924116796,41.923216254224485,38.698353465438,6.449725577572963,22.574039521505483,22.574039521505483,25.79890231029208,25.79890231029208,58.047530198157006,74.17184414208953,59.46353169977319,"{'others': ['m1', 'm3', 'm12', 'e1', 'e2']}"
9,235,9,0.3002999999999994,26.197844906556497,115.03583775427708,22.92311429323695,36.022036746515255,29.65394692725757,36.1705818581498,59.307893854515285,144.23692157085142,108.2643968470932,94.96718778626736,94.96718778626746,104.7913796262261,40.93413266649464,44.20886327981407,4.912095919979265,18.011018373257684,26.19784490655661,26.197844906556497,26.197844906556497,62.21988165307175,85.14299594630864,60.3830489503154,"{'others': ['m1', 'm3', 'm12', 'e1', 'e2']}"
10,235,10,0.333666666666666,26.867051052490865,117.97435005948668,20.15028828936829,36.94219519717512,30.411436850788338,36.9421951971749,64.16178620461393,147.92135571916256,111.02993729572094,97.39306006527976,100.75144144684111,110.82658559152514,41.97976726951708,41.9797672695172,1.6791906907807288,18.47109759858745,27.076136315234688,26.86705105249098,26.86705105249098,67.16762763122733,83.95953453903417,61.92549290369928,"{'others': ['m1', 'm3', 'm12', 'e1', 'e2']}"
11,235,11,0.3670333333333326,20.78893648733606,116.65258659795848,20.788936487336173,37.594481162407874,34.34725997479732,37.59448116240765,65.29468673805961,143.7052189544204,106.16834979903824,95.69504295885632,102.53040317020316,112.78344348722352,42.72100132091805,35.88564110957111,5.126520158510175,22.21492068687735,27.341440845387524,23.923760739714,23.923760739714,64.9359220077954,82.02432253616257,56.36582428105489,"{'others': ['m1', 'm3', 'm12', 'e1', 'e2']}"
12,235,12,0.4003999999999992,13.408030463079854,113.86382330558745,19.511550293215578,26.015400390954028,35.7711755375617,35.7711755375617,58.53465087964662,117.11445867582673,91.11195295304952,84.55005127060076,94.30582641720844,97.55775146607778,37.39713806199654,21.13751281765008,8.129812622173176,21.13751281765019,22.763475342084803,22.76347534208469,21.13751281765008,52.03080078190817,65.03850097738518,49.74488784277629,"{'others': ['m1', 'm3', 'm12', 'e1', 'e2']}"
13,235,13,0.4337666666666658,15.625,121.91505751956974,12.5,25.0,37.5,37.5,56.33673867912484,109.41963375007248,84.43285053816435,76.5625,81.25,84.375,26.5625,26.5625,1.5625,14.0625,15.625,18.75,17.1875,46.875,59.375,41.10295761864345,"{'others': ['m1', 'm3', 'm12', 'e1', 'e2']}"
14,235,14,0.4671333333333324,19.46234907568771,140.81833534837017,12.798361914505676,25.596723829011463,38.39508574351703,41.59467622214356,57.68143765586984,115.36287531173956,89.8167848119855,79.9897619656607,83.18935244428712,86.38894292291354,27.19651906832462,30.39610954695104,1.5997952393131527,14.398157153818945,15.997952393132095,15.997952393132095,15.997952393132095,47.99385717939646,57.592628615275714,42.08404218879911,"{'others': ['m1', 'm3', 'm12', 'e1', 'e2']}"
15,235,15,0.5004999999999991,16.2408512378031,149.41583138778947,16.562483475783228,26.18758574618868,42.226213218288194,45.59024195544708,55.31434612801704,114.10281629788328,87.94087274175908,79.58017106523573,87.70059668413728,87.70059668413728,32.48170247560631,25.98536198048521,0.0,16.2408512378031,16.562483475783182,16.240851237803213,16.240851237803213,45.47438346584897,55.218894208530855,42.72300928755988,"{'others': ['m1', 'm3', 'm12', 'e1', 'e2']}"
16,235,16,0.5338666666666656,19.03802810086404,149.13122012343592,15.865023417386851,25.58158159475292,38.07605620172808,41.37091952848967,50.86713468824343,111.2363307043288,85.72986566302053,76.15211240345661,82.49812177041133,82.49812177041133,31.73004683477359,28.557042151296173,3.173004683477302,15.865023417386736,15.865023417386736,15.865023417386851,15.865023417386851,41.24906088520572,47.59507025216044,38.20803599504353,"{'others': ['m1', 'm3', 'm12', 'e1', 'e2']}"
17,235,17,0.5672333333333321,25.380352230484306,157.40226263443742,12.592181010754985,28.33240727419866,40.92458828495364,47.325497296199806,50.76070446096863,116.85991751700465,88.64975920999498,75.55308606452991,81.8491765699074,81.8491765699074,31.48045252688746,34.62849777957615,6.296090505377492,18.88827151613248,16.05194417313309,15.740226263443788,14.16620363709933,40.92458828495364,47.220678790331135,38.29762341347681,"{'others': ['m1', 'm3', 'm12', 'e1', 'e2']}"
18,235,18,0.6005999999999987,18.70733895084746,150.8233884065174,18.452805472184423,30.908066642698643,39.98107852306612,46.13201368046089,46.540269547185865,114.45533472168118,83.54863021487965,73.81122188873758,76.88668946743496,83.03762462482973,33.83014336567135,33.83014336567135,3.075467578697385,15.377337893486924,15.377337893487038,15.377337893487038,13.839604104138289,39.98107852306612,46.13201368046089,33.9696497033675,"{'others': ['m1', 'm3', 'm12', 'e1', 'e2']}"
19,235,19,0.6339666666666652,22.2683186165582,148.04664203952106,18.89529491926919,25.19372655902555,44.08902147829463,44.08902147829463,50.3874531180511,116.56353453732596,91.38153946998294,80.305003406894,85.02882713671124,88.17804295658937,36.21598192859915,29.917550288842904,1.574607909939118,17.32068700932996,18.89529491926908,18.89529491926919,18.89529491926919,40.9398056584165,47.23823729817286,31.49215819878168,"{'others': ['m1', 'm3', 'm12', 'e1', 'e2']}"
20,235,20,0.6673333333333318,21.70542635658921,148.8695055399418,18.604651162790677,21.7054263565891,37.20930232558135,40.42916220280705,55.90001977463555,117.87024997673316,96.17403050710598,85.27131782945742,86.82170542635663,89.92248062015506,32.55813953488371,29.45736434108528,4.65116279069764,17.05426356589146,18.604651162790677,18.604651162790788,18.604651162790788,43.4108527131782,49.61240310077517,31.16240502673144,"{'others': ['m1', 'm3', 'm12', 'e1', 'e2']}"
21,235,21,0.7006999999999983,9.448818897637809,141.8721969077822,18.8976377952755,22.04724409448818,37.79527559055123,37.92628213792853,59.842519685039406,110.23622047244088,88.18897637795271,83.46456692913387,81.88976377952758,88.18897637795271,25.196850393700743,25.196850393700743,0.0,9.448818897637809,18.89763779527561,18.89763779527561,18.89763779527561,40.94488188976379,50.393700787401485,34.78853863681012,"{'others': ['m1', 'm3', 'm12', 'e1', 'e2']}"
22,235,22,0.7340666666666649,3.0768320477357065,141.5342741958416,21.537824334149832,18.460992286414125,33.984720756492194,33.845152525092544,55.382976859242376,98.45862552754204,79.99763324112791,78.45921721726006,83.07446528886351,83.07446528886351,27.69148842962113,15.384160238678533,6.153664095471299,6.153664095471299,18.460992286414125,18.460992286414125,19.99940831028198,43.07564866829955,52.30614481150667,37.04996410586845,"{'others': ['m1', 'm3', 'm12', 'e1', 'e2']}"
23,235,23,0.7674333333333314,0.0,152.4092176642316,19.047019188735703,22.221522386858283,38.094038377471634,38.226080500872335,54.0598414806991,95.28798964169904,73.08255191283409,73.01357355682023,79.3625799530655,82.53708315118809,26.98327718404232,14.285264391551664,7.936257995306619,7.936257995306619,19.047019188735703,19.30974910585213,17.459767589674357,41.26854157559399,50.79205116996184,44.894254765817614,"{'others': ['m1', 'm3', 'm12', 'e1', 'e2']}"
24,235,24,0.800799999999998,9.523509594367852,152.40921766423182,22.2215223868584,22.221522386858283,41.2685415755941,44.443044773716565,53.96655436808442,107.93310873616896,85.71158634931066,80.94983155212674,85.71158634931066,82.53708315118797,30.1577803821649,23.80877398591963,1.5872515990613465,11.110761193429198,12.698012792490545,12.698012792490433,12.698012792490433,41.26854157559399,53.96655436808447,41.75407053205833,"{'others': ['m1', 'm3', 'm12', 'e1', 'e2']}"
25,235,25,0.8341666666666645,9.753196981883434,139.833621386166,19.506393963766868,26.21092931262384,35.76172226690551,39.14801463431365,58.51918189130038,113.8337324426661,87.77877283695068,82.9021743460089,91.02983849757844,87.77877283695068,30.88512377596419,24.38299245470853,1.6255328303138867,14.629795472825094,9.753196981883434,13.004262642511208,11.37872981219732,42.26385358816151,55.26811623067272,45.977011494252885,"{'others': ['m1', 'm3', 'm12', 'e1', 'e2']}"
26,235,26,0.867533333333331,9.952219639153176,122.77990083288414,15.735840916991492,22.03017728378802,37.89692333575658,37.7660182007794,56.73638128875697,104.04711268954948,82.06810556314967,77.10562049325824,84.97354095175388,81.82637276835567,26.75092955888556,20.45659319208892,4.720752275097425,14.162256825292276,9.95221963915314,12.976106841734504,11.015088641894067,40.91318638417784,53.501859117771005,41.98846065620679,"{'others': ['m1', 'm3', 'm12', 'e1', 'e2']}"
27,235,27,0.9008999999999976,7.037281994703019,129.07226991289826,18.883009100389813,22.03017728378813,34.61885001738119,37.7660182007794,53.594342953640265,100.90588816656428,78.93057648604848,75.53203640155914,84.97354095175399,81.82637276835567,29.89809774228388,17.309425008690596,7.867920458495746,14.162256825292388,12.976106841734504,12.588672733593173,12.588672733593173,37.76601820077957,53.50185911777106,45.0605909059332,"{'others': ['m1', 'm3', 'm12', 'e1', 'e2']}"
28,235,28,0.934266666666664,7.149700054031603,140.72382487759108,19.1846584074583,25.579544543277848,38.5023131125391,41.68955707763158,51.25891179432769,102.51782358865526,77.00462622507753,73.54119056192371,86.33096283356258,83.13351976565286,33.573152213052026,17.585936873503556,7.993607669774292,17.585936873503442,13.183395500890745,12.78977227163898,12.78977227163898,35.171873747007,54.35653215446536,45.21867351553804,"{'others': ['m1', 'm3', 'm12', 'e1', 'e2']}"
29,235,29,0.9676333333333308,12.692018733909435,139.64825828950455,15.865023417386736,22.21103278434157,41.24906088520538,41.24906088520538,50.86713468824343,101.5857159713091,79.38855181685294,72.9791077199792,85.67112645388863,82.49812177041133,33.31654917651224,17.451525759125502,4.759507025216067,17.451525759125502,16.179212797772283,15.865023417386736,14.278521075648086,38.07605620172825,53.94107961911504,39.24790038166983,"{'others': ['m1', 'm3', 'm12', 'e1', 'e2']}"
30,235,30,1.0009999999999972,22.03017728378802,135.47453272007849,15.735840916991492,25.373281071801543,41.03405278157483,44.17261042993852,50.35469093437269,113.3417568429618,88.1207091351522,77.10562049325824,91.26787731855052,84.97354095175399,37.76601820077951,25.177345467186345,0.0,22.03017728378802,15.735840916991492,16.047471979706263,15.735840916991492,37.76601820077957,53.501859117771005,47.625296582616166,"{'others': ['m1', 'm3', 'm12', 'e1', 'e2']}"
31,235,31,1.0343666666666638,28.557042151296287,139.61220607300356,19.038028100864157,28.557042151296173,41.24906088520584,44.42206556868314,50.76807493563763,126.92018733909424,98.36314518779808,84.08462411214987,98.36314518779808,98.36314518779808,47.59507025216044,28.557042151296173,0.0,28.557042151296287,16.179212797772283,15.865023417386736,15.865023417386736,41.24906088520567,57.11408430259246,45.43051329096676,"{'others': ['m1', 'm3', 'm12', 'e1', 'e2']}"
32,235,32,1.0677333333333303,25.80561247421588,138.70516704891045,19.354209355661965,25.80561247421599,38.84259040899149,42.05800272740905,51.61122494843187,122.5766592525257,96.77104677830972,83.86824054120177,96.77104677830972,96.77104677830972,45.15982182987784,25.80561247421599,0.0,29.03131403349289,16.12850779638495,19.354209355661965,19.354209355661965,41.934120270600886,58.06262806698584,49.34374558733981,"{'others': ['m1', 'm3', 'm12', 'e1', 'e2']}"
33,235,33,1.1010999999999969,25.396025584980865,120.79808509857185,15.872515990613124,22.2215223868584,34.91953517934894,34.91953517934894,50.79205116996184,114.28211513241422,92.06059274555582,79.36257995306539,88.88608954743324,95.23509594367852,41.26854157559399,22.2215223868584,3.1745031981225798,25.396025584980865,19.047019188735703,19.047019188735703,17.459767589674357,38.094038377471406,53.96655436808453,48.56056125956978,"{'others': ['m1', 'm3', 'm12', 'e1', 'e2']}"
34,235,34,1.1344666666666634,22.27038934966093,116.7019401699459,18.89705199457194,25.19606932609588,34.644595323381964,34.644595323381736,44.54077869932191,110.63699908830657,85.56004189312827,74.01345364540668,81.8872253098117,88.18624264133564,40.94361265490591,25.196069326095767,3.149508665762028,25.196069326095994,16.059406144949953,18.89705199457194,18.89705199457194,37.79410398914382,56.69115598371576,42.83794923436834,"{'others': ['m1', 'm3', 'm12', 'e1', 'e2']}"
35,235,35,1.16783333333333,19.78068783860019,130.44233049992823,19.78068783860008,32.51925048869259,39.15836303910299,39.02310058643116,43.386091563731306,114.23471622039312,81.88138052008983,71.54235107512363,78.0462011728622,87.80197631946987,40.64906311086565,30.89328796425798,1.6259625244346123,21.13751281765019,16.259625244346353,19.78068783860012,17.885587768780965,42.27502563530038,58.53465087964668,40.22409138923953,"{'others': ['m1', 'm3', 'm12', 'e1', 'e2']}"
36,235,36,1.2011999999999965,23.76745599368615,135.1196073476742,16.806129304688284,33.77990183691851,36.97348447031391,40.33471033125216,44.844346280284086,118.8372799684306,85.0994417358854,72.26635601015971,77.30819480156629,90.75309824531688,40.33471033125204,33.61225860937657,1.1368683772161605e-13,23.52858102656376,16.806129304688284,16.806129304688284,18.48674223515718,43.695936192189606,57.14083963594027,38.32387124848824,"{'others': ['m1', 'm3', 'm12', 'e1', 'e2']}"
37,235,37,1.234566666666663,24.594088660410705,136.04777627475542,20.868776242655485,34.78129373775903,41.88222381159829,45.215681859086544,42.31327006066752,121.78420550845732,87.02276912907618,74.7797815361821,79.99697559684603,90.43136371817376,43.476617172198985,36.52035842464693,1.739064686888014,22.6078409295435,13.912517495103655,17.735049547683662,17.39064686887957,45.215681859086885,62.606328727966456,43.02208436292451,"{'others': ['m1', 'm3', 'm12', 'e1', 'e2']}"
