,frame_seq,m1,m3,m4,m5,m6,m7,m8,m9,m10,m11,m12,m13,m14,m15,m16,m17,e1,e2,e3,b1,b2,b3
0,0,1.0,60.13318551349163,8.0,11.0,15.033296378372908,16.0312195418814,17.11724276862369,36.124783736376884,25.179356624028344,25.0,21.0,25.0,6.0,13.0,1.0,2.0,11.045361017187261,10.0,10.0,32.0,29.0,41.012193308819754
1,1,1.0,62.12889826803627,9.0,10.0,15.033296378372908,16.0312195418814,17.11724276862369,36.124783736376884,26.1725046566048,26.0,21.0,25.0,6.0,13.0,1.0,3.0,11.045361017187261,11.045361017187261,10.5,32.0,29.0,41.012193308819754
2,2,1.0,60.07495318350236,8.0,11.0,15.033296378372908,16.0,18.110770276274835,37.12142238654117,26.1725046566048,26.0,22.0,25.0,5.5,13.5,1.5,2.5,11.0,10.04987562112089,10.5,32.0,29.0,40.01249804748511
3,3,1.4142135623730951,60.07495318350236,9.0,11.0,15.132745950421556,15.033296378372908,17.029386365926403,36.05551275463989,25.079872407968907,25.5,22.0,25.0,6.5,12.5,0.5,2.5,11.045361017187261,10.04987562112089,10.0,32.0,29.0,40.049968789001575
4,4,1.0,59.033888572581766,9.0,11.0,14.035668847618199,15.033296378372908,17.029386365926403,37.05401462729781,26.076809620810597,26.0,23.0,25.0,7.0,13.0,1.0,2.0,11.045361017187261,10.04987562112089,10.5,33.0,30.0,40.01249804748511
5,5,1.0,60.07495318350236,9.0,11.0,15.033296378372908,16.0312195418814,17.029386365926403,37.05401462729781,26.076809620810597,26.0,22.0,25.0,6.5,13.5,0.5,2.5,11.045361017187261,10.04987562112089,10.0,32.0,30.0,40.01249804748511
6,6,1.4142135623730951,61.1310068623117,9.0,11.0,15.033296378372908,16.0312195418814,17.029386365926403,36.05551275463989,25.079872407968907,25.5,21.0,25.0,6.0,13.0,1.0,3.0,11.045361017187261,11.0,11.0,33.0,30.0,41.012193308819754
7,7,1.4142135623730951,61.07372593840988,9.0,11.0,15.033296378372908,16.0312195418814,18.027756377319946,37.05401462729781,26.076809620810597,26.5,22.0,25.0,5.5,13.5,1.5,2.5,10.04987562112089,10.0,10.0,32.0,30.0,41.048751503547585
8,8,0.0,61.07372593840988,8.0,11.045361017187261,15.033296378372908,16.0312195418814,18.110770276274835,37.12142238654117,26.076809620810597,26.0,22.0,25.0,5.5,13.5,1.5,2.5,11.045361017187261,11.0,11.0,33.0,30.0,41.012193308819754
9,9,0.0,62.12889826803627,9.0,11.0,15.033296378372908,17.029386365926403,17.11724276862369,37.05401462729781,26.076809620810597,26.0,21.0,25.0,6.0,14.0,2.0,3.0,11.045361017187261,10.04987562112089,10.5,32.0,29.0,40.01249804748511
10,10,0.0,61.1310068623117,9.0,11.045361017187261,15.033296378372908,16.0312195418814,17.11724276862369,37.12142238654117,26.076809620810597,26.0,21.0,25.0,6.0,14.0,2.0,3.0,11.0,10.0,10.5,32.0,29.0,40.01249804748511
11,11,0.0,62.12889826803627,9.055385138137417,11.0,16.0312195418814,17.029386365926403,17.029386365926403,37.05401462729781,26.076809620810597,26.0,21.0,25.0,6.0,14.0,2.0,3.0,11.045361017187261,10.04987562112089,10.5,32.0,30.0,40.01249804748511
12,12,1.0,62.12889826803627,9.0,12.0,15.033296378372908,16.0312195418814,17.029386365926403,38.05259518088089,26.076809620810597,26.0,21.0,25.0,6.0,15.0,2.0,3.0,11.045361017187261,10.0,10.5,33.0,31.0,40.0
13,13,1.0,60.03332407921454,10.0,12.041594578792296,16.0312195418814,17.0,17.029386365926403,40.049968789001575,28.0178514522438,27.5,23.0,25.0,7.0,16.0,2.0,3.0,11.045361017187261,10.04987562112089,10.5,33.0,31.0,40.01249804748511
14,14,1.0,64.07027391856539,9.0,13.038404810405298,16.0312195418814,17.029386365926403,17.029386365926403,40.049968789001575,27.018512172212592,26.5,21.0,24.0,5.5,17.5,3.5,3.5,11.045361017187261,11.0,11.0,32.0,30.0,41.012193308819754
15,15,2.0,62.07253821135398,10.0,13.0,15.0,16.0312195418814,17.11724276862369,42.04759208325728,29.068883707497267,28.0,23.0,26.0,7.5,17.5,2.5,1.5,11.0,10.0,10.0,33.0,30.0,41.012193308819754
16,16,11.0,67.06713054842886,8.0,12.0,18.027756377319946,19.026297590440446,17.0,48.0,36.0,30.5,24.0,27.0,8.5,22.5,9.5,0.5,11.045361017187261,10.0,10.5,32.0,29.0,42.01190307520001
17,17,21.0,70.178344238091,9.0,12.0,20.024984394500787,22.02271554554524,15.0,57.0,45.0,34.5,30.0,35.0,17.5,24.5,10.5,7.5,11.045361017187261,10.04987562112089,10.5,32.0,28.0,43.01162633521314
18,18,20.0,73.10950690573696,9.055385138137417,13.0,21.0,23.021728866442675,15.0,57.0087712549569,44.01136216933077,34.0,32.0,36.0,19.0,23.0,9.0,10.0,10.0,9.0,9.5,30.0,27.0,43.0
19,19,21.0,73.06161783043132,10.0,11.0,20.024984394500787,21.02379604162864,13.0,55.0,44.0,33.5,33.0,36.0,21.5,20.5,8.5,10.5,10.0,10.0,10.0,28.0,26.0,41.012193308819754
20,20,20.0,71.11258679024411,9.055385138137417,11.045361017187261,19.026297590440446,21.02379604162864,13.0,53.03772242470448,42.01190307520001,32.0,31.0,35.0,20.0,20.0,9.0,10.0,9.055385138137417,8.06225774829855,8.0,27.0,24.0,41.012193308819754
21,21,17.029386365926403,72.11102550927978,10.0,11.045361017187261,19.026297590440446,20.024984394500787,12.0,50.039984012787215,39.01281840626232,30.5,31.0,35.0,21.0,17.0,5.0,11.0,9.0,8.06225774829855,8.0,25.0,22.0,40.01249804748511
22,22,22.02271554554524,72.17340230306452,9.0,9.055385138137417,20.024984394500787,21.02379604162864,13.0,53.03772242470448,44.01136216933077,33.0,32.0,37.0,21.5,18.5,8.5,12.5,9.0,9.055385138137417,8.5,26.0,23.0,37.013511046643494
23,23,19.026297590440446,70.11419257183242,9.0,10.04987562112089,19.026297590440446,20.09975124224178,12.041594578792296,50.08991914547278,40.049968789001575,30.5,31.0,35.0,21.0,17.0,6.0,11.0,8.0,8.0,8.0,26.0,22.0,38.01315561749642
24,24,17.029386365926403,69.18092222571191,9.055385138137417,11.045361017187261,19.026297590440446,20.024984394500787,12.041594578792296,49.16299421312742,38.118237105091836,29.5,30.0,35.0,20.5,16.5,4.5,10.5,9.0,8.06225774829855,8.0,26.0,21.0,38.01315561749642
25,25,18.027756377319946,69.18092222571191,9.0,9.055385138137417,18.027756377319946,20.09975124224178,11.180339887498949,47.16990566028302,38.118237105091836,29.0,29.0,34.0,20.5,15.5,5.5,10.5,8.0,7.0710678118654755,7.0,26.0,21.0,38.05259518088089
26,26,17.029386365926403,68.18357573492314,10.0,11.045361017187261,18.027756377319946,19.1049731745428,11.045361017187261,49.09175083453431,38.05259518088089,29.5,31.0,36.0,22.5,15.5,3.5,11.5,8.0,8.0,7.5,25.0,21.0,37.013511046643494
27,27,16.0,67.1863081289633,10.04987562112089,11.045361017187261,18.027756377319946,20.09975124224178,11.045361017187261,48.093658625644196,37.05401462729781,29.0,29.0,34.0,20.5,16.5,4.5,10.5,9.0,8.0,8.0,26.0,22.0,37.013511046643494
28,28,18.027756377319946,66.18912297349165,9.0,10.04987562112089,17.029386365926403,19.1049731745428,12.041594578792296,49.09175083453431,39.05124837953327,30.0,30.0,35.0,20.5,16.5,5.5,10.5,8.0,8.06225774829855,8.5,26.0,21.0,37.0
29,29,15.033296378372908,65.19202405202648,10.0,10.0,17.029386365926403,18.027756377319946,12.041594578792296,47.042533945356304,37.05401462729781,29.5,30.0,35.0,20.5,14.5,3.5,10.5,9.0,8.06225774829855,8.0,26.0,22.0,36.013886210738214
30,30,15.0,63.12685640834652,9.055385138137417,10.04987562112089,17.0,18.027756377319946,13.038404810405298,47.095647357266465,37.05401462729781,29.5,30.0,34.0,19.0,15.0,4.0,10.0,8.0,8.0,7.5,26.0,22.0,37.013511046643494
31,31,14.0,63.12685640834652,10.04987562112089,10.04987562112089,16.0312195418814,18.027756377319946,12.041594578792296,46.09772228646444,36.05551275463989,29.0,29.0,33.0,19.0,15.0,4.0,9.0,8.0,8.06225774829855,8.0,26.0,23.0,36.013886210738214
32,32,14.0,62.07253821135398,10.04987562112089,11.045361017187261,16.0312195418814,18.027756377319946,12.041594578792296,47.095647357266465,36.05551275463989,29.0,30.0,33.0,19.5,15.5,4.5,9.5,9.055385138137417,8.06225774829855,8.0,27.0,23.0,38.01315561749642
33,33,14.035668847618199,62.07253821135398,9.0,11.0,16.0,17.029386365926403,13.152946437965905,47.095647357266465,36.124783736376884,29.0,30.0,33.0,18.5,15.5,4.5,9.5,8.06225774829855,8.06225774829855,8.5,27.0,23.0,37.013511046643494
34,34,14.0,62.07253821135398,9.0,11.045361017187261,16.0312195418814,18.0,13.152946437965905,47.095647357266465,36.05551275463989,29.0,29.0,32.0,17.5,16.5,4.5,8.5,8.06225774829855,8.0,8.0,27.0,23.0,37.013511046643494
35,35,14.035668847618199,62.07253821135398,9.0,11.045361017187261,15.033296378372908,17.029386365926403,13.038404810405298,47.095647357266465,36.05551275463989,29.0,28.0,31.0,16.5,17.5,6.5,6.5,8.0,8.06225774829855,8.0,27.0,22.0,38.01315561749642
36,36,13.0,61.07372593840988,10.04987562112089,12.041594578792296,15.033296378372908,17.0,14.035668847618199,49.09175083453431,37.05401462729781,30.5,30.0,33.0,17.5,17.5,5.5,7.5,9.0,8.0,8.0,28.0,24.0,39.01281840626232
37,37,15.033296378372908,62.12889826803627,9.0,12.041594578792296,16.0,17.029386365926403,14.035668847618199,50.08991914547278,38.05259518088089,30.5,29.0,33.0,17.0,19.0,6.0,8.0,8.0,8.06225774829855,8.0,29.0,24.0,39.0
38,38,16.0,61.07372593840988,9.0,11.045361017187261,16.0,17.029386365926403,14.142135623730951,50.08991914547278,39.05124837953327,31.0,29.0,32.0,16.5,19.5,7.5,7.5,8.0,8.06225774829855,8.0,29.0,25.0,39.01281840626232
39,39,16.0312195418814,61.032778078668514,9.0,11.0,16.0312195418814,17.029386365926403,15.033296378372908,51.03920062069938,40.049968789001575,32.0,30.0,32.0,16.0,20.0,8.0,7.0,8.0,8.06225774829855,7.5,29.0,25.0,38.01315561749642
40,40,15.0,61.00819617067857,8.0,12.041594578792296,16.0,17.0,16.1245154965971,51.088159097779204,39.05124837953327,31.5,30.0,31.0,14.5,20.5,7.5,6.5,8.06225774829855,7.0710678118654755,7.5,30.0,25.0,40.01249804748511
41,41,15.033296378372908,61.032778078668514,8.0,11.0,16.0,17.029386365926403,16.1245154965971,50.08991914547278,39.11521443121589,31.5,29.0,31.0,14.0,20.0,8.0,6.0,9.0,8.0,8.0,30.0,26.0,40.01249804748511
42,42,13.038404810405298,62.07253821135398,9.0,12.041594578792296,16.0312195418814,18.0,17.11724276862369,51.15662224971465,39.11521443121589,32.5,30.0,33.0,14.5,19.5,6.5,5.5,7.0,7.0710678118654755,6.5,32.0,27.0,42.01190307520001
43,43,13.038404810405298,63.071388124885914,9.0,13.038404810405298,16.0,18.027756377319946,17.11724276862369,52.15361924162119,39.11521443121589,32.5,29.0,32.0,13.5,21.5,7.5,4.5,5.0,5.0,5.0,34.0,30.0,42.04759208325728
44,44,12.041594578792296,66.12110101926616,9.0,15.033296378372908,18.027756377319946,20.09975124224178,17.11724276862369,53.150729063673246,38.118237105091836,32.0,28.0,32.0,13.0,23.0,7.0,4.0,5.0990195135927845,6.082762530298219,5.5,35.0,30.0,43.04648650006177
45,45,16.0,70.178344238091,9.055385138137417,13.038404810405298,18.027756377319946,20.09975124224178,16.0,54.037024344425184,41.012193308819754,33.0,27.0,32.0,13.5,24.5,9.5,4.5,6.0,6.082762530298219,6.0,36.0,30.0,45.09988913511872
46,46,17.0,72.24956747275377,8.06225774829855,14.035668847618199,20.024984394500787,20.223748416156685,16.0,55.036351623268054,41.012193308819754,32.5,25.0,31.0,12.0,27.0,10.0,4.0,8.06225774829855,8.0,8.0,37.0,30.0,44.10215414239989
47,47,17.0,74.24284477308234,7.0710678118654755,13.0,21.02379604162864,23.08679276123039,17.029386365926403,54.037024344425184,41.048751503547585,32.5,24.0,30.0,10.0,27.0,12.0,3.0,8.06225774829855,7.0710678118654755,7.5,36.0,30.0,44.01136216933077
48,48,18.027756377319946,75.23961722390672,8.0,14.035668847618199,21.02379604162864,22.02271554554524,15.033296378372908,55.08175741568164,41.048751503547585,32.0,23.0,29.0,11.0,29.0,13.0,3.0,9.0,8.06225774829855,8.5,39.0,30.0,46.09772228646444
49,49,18.0,76.32168761236873,8.06225774829855,15.033296378372908,22.02271554554524,23.08679276123039,16.0312195418814,57.07889277132134,42.04759208325728,33.0,23.0,30.0,10.5,30.5,12.5,2.5,9.055385138137417,8.06225774829855,8.5,39.0,29.0,45.044422518220834
50,50,23.021728866442675,76.23647421018367,8.0,14.0,21.02379604162864,23.08679276123039,16.1245154965971,61.07372593840988,47.095647357266465,35.5,24.0,30.0,11.0,34.0,18.0,3.0,10.04987562112089,8.0,8.5,39.0,30.0,45.044422518220834
51,51,22.02271554554524,78.40918313565064,8.0,14.035668847618199,22.090722034374522,24.08318915758459,16.1245154965971,60.13318551349163,46.09772228646444,35.0,23.0,31.0,11.0,33.0,16.0,3.0,10.04987562112089,9.0,9.5,39.0,29.0,46.09772228646444
52,52,23.021728866442675,81.39410298049853,7.0710678118654755,14.035668847618199,22.090722034374522,24.08318915758459,17.029386365926403,61.1310068623117,47.095647357266465,35.5,23.0,31.0,10.0,34.0,17.0,2.0,9.055385138137417,9.0,9.5,40.0,30.0,47.095647357266465
53,53,21.02379604162864,79.51100552753688,8.06225774829855,13.038404810405298,22.090722034374522,24.186773244895647,17.029386365926403,59.135437767890075,46.09772228646444,35.5,22.0,31.0,9.5,32.5,16.5,1.5,9.055385138137417,8.0,9.0,40.0,30.0,47.095647357266465
54,54,17.0,79.30952023559341,8.06225774829855,14.035668847618199,22.090722034374522,23.08679276123039,17.029386365926403,56.08029957123981,42.04759208325728,33.5,22.0,29.0,8.5,30.5,13.5,0.5,10.198039027185569,8.0,8.5,40.0,30.0,46.09772228646444
55,55,16.0312195418814,80.30566605165541,8.0,14.035668847618199,22.090722034374522,23.08679276123039,17.11724276862369,55.14526271584895,41.10960958218893,33.0,22.0,29.0,8.5,29.5,13.5,0.5,10.04987562112089,9.055385138137417,9.0,40.0,30.0,45.044422518220834
56,56,16.0312195418814,80.22468448052632,8.06225774829855,14.0,21.095023109728988,23.08679276123039,17.029386365926403,55.08175741568164,41.10960958218893,33.0,23.0,29.0,9.0,29.0,13.0,1.0,10.0,9.0,9.0,40.0,30.0,45.09988913511872
57,57,18.027756377319946,79.30952023559341,7.0710678118654755,13.038404810405298,22.090722034374522,23.08679276123039,17.029386365926403,55.14526271584895,42.1070065428546,33.0,23.0,30.0,9.5,28.5,12.5,1.5,9.219544457292887,9.055385138137417,8.5,40.0,30.0,46.17358552246078
58,58,17.029386365926403,79.30952023559341,8.0,13.038404810405298,22.090722034374522,23.08679276123039,16.1245154965971,54.147945482723536,41.10960958218893,32.5,22.0,29.0,9.5,28.5,13.5,1.5,10.04987562112089,9.0,9.0,40.0,30.0,45.09988913511872
59,59,17.11724276862369,79.40403012442127,8.0,13.038404810405298,21.095023109728988,22.090722034374522,16.1245154965971,54.230987451824994,41.19465984809196,32.5,22.0,30.0,10.0,28.0,12.0,1.0,10.04987562112089,10.0,10.0,39.0,29.0,45.09988913511872
60,60,14.035668847618199,74.43117626371358,8.0,14.035668847618199,20.09975124224178,21.095023109728988,17.26267650163207,53.23532661682466,39.20459156782532,32.0,24.0,32.0,11.0,25.0,9.0,3.0,11.045361017187261,9.0,9.0,38.0,28.0,44.04543109109048
61,61,14.0,71.56814934033156,8.06225774829855,13.152946437965905,18.110770276274835,20.09975124224178,17.11724276862369,52.23983154643591,39.11521443121589,32.0,25.0,34.0,12.5,22.5,7.5,3.5,10.04987562112089,9.055385138137417,9.5,37.0,27.0,44.10215414239989
62,62,7.0710678118654755,67.36467917239716,10.0,13.038404810405298,17.029386365926403,17.11724276862369,16.1245154965971,46.17358552246078,33.13608305156178,29.5,27.0,34.0,14.5,15.5,0.5,4.5,10.04987562112089,9.055385138137417,9.0,35.0,26.0,41.10960958218893
63,63,1.4142135623730951,63.28506932918696,10.0,11.045361017187261,16.1245154965971,17.029386365926403,16.1245154965971,38.2099463490856,27.16615541441225,26.5,27.0,33.0,14.0,8.0,4.0,3.0,9.0,9.219544457292887,9.0,34.0,24.0,41.10960958218893
64,64,2.0,63.198101237299845,10.04987562112089,9.219544457292887,16.0312195418814,17.029386365926403,14.142135623730951,35.35533905932738,26.1725046566048,25.0,27.0,32.0,15.5,5.5,4.5,4.5,9.055385138137417,8.06225774829855,8.0,31.0,23.0,38.05259518088089
65,65,2.23606797749979,63.12685640834652,11.0,9.055385138137417,14.035668847618199,16.0312195418814,13.152946437965905,35.22782990761707,26.1725046566048,25.0,28.0,32.0,17.0,5.0,5.0,6.0,9.0,9.219544457292887,9.0,29.0,23.0,38.01315561749642
66,66,1.4142135623730951,62.12889826803627,12.0,10.04987562112089,14.035668847618199,15.033296378372908,12.165525060596439,35.22782990761707,25.179356624028344,24.5,28.0,32.0,18.0,5.0,5.0,6.0,8.06225774829855,8.246211251235321,8.0,29.0,23.0,38.01315561749642
67,67,3.1622776601683795,60.13318551349163,12.0,13.038404810405298,15.0,16.0312195418814,12.165525060596439,40.19950248448356,27.16615541441225,25.5,29.0,33.0,19.0,9.0,5.0,7.0,8.0,8.06225774829855,8.0,28.0,22.0,36.013886210738214
68,68,12.041594578792296,60.13318551349163,11.0,12.041594578792296,16.0312195418814,17.0,13.038404810405298,48.093658625644196,36.05551275463989,30.0,32.0,36.0,21.0,14.0,1.0,9.0,8.0,8.06225774829855,7.5,27.0,21.0,39.01281840626232
69,69,12.041594578792296,60.207972893961475,11.0,12.041594578792296,14.035668847618199,16.0312195418814,13.152946437965905,48.16637831516918,36.124783736376884,30.0,31.0,36.0,20.5,14.5,1.5,8.5,8.0,8.06225774829855,8.0,28.0,23.0,37.013511046643494
70,70,10.0,59.135437767890075,11.045361017187261,11.045361017187261,13.038404810405298,15.033296378372908,13.152946437965905,45.17742799230607,34.132096331752024,29.0,30.0,34.0,19.0,13.0,1.0,7.0,8.0,8.06225774829855,8.0,28.0,23.0,38.01315561749642
71,71,3.0,57.07889277132134,12.041594578792296,13.038404810405298,13.0,14.0,13.152946437965905,41.19465984809196,28.160255680657446,26.5,29.0,32.0,17.5,10.5,2.5,5.5,9.0,8.246211251235321,8.0,29.0,24.0,38.01315561749642
72,72,2.23606797749979,58.034472514187634,11.0,13.038404810405298,14.0,14.0,14.142135623730951,40.19950248448356,27.16615541441225,26.0,29.0,31.0,16.0,10.0,3.0,5.0,9.0,8.246211251235321,8.0,28.0,24.0,38.01315561749642
73,73,3.1622776601683795,57.0350769263968,11.045361017187261,13.038404810405298,14.0,15.0,14.035668847618199,41.19465984809196,28.160255680657446,26.5,30.0,32.0,17.0,10.0,3.0,6.0,9.0,8.06225774829855,8.0,28.0,24.0,39.01281840626232
74,74,5.0990195135927845,57.0350769263968,11.0,12.0,14.035668847618199,16.0312195418814,15.132745950421556,43.104524124504614,31.144823004794873,28.5,31.0,33.0,17.0,11.0,2.0,6.0,8.0,8.06225774829855,8.0,29.0,25.0,37.013511046643494
75,75,5.0990195135927845,55.036351623268054,11.0,12.0,14.0,15.0,15.132745950421556,43.104524124504614,31.144823004794873,28.5,31.0,33.0,17.0,11.0,1.0,6.0,6.0,6.082762530298219,6.5,29.0,26.0,38.01315561749642
76,76,7.0,57.0,9.0,12.041594578792296,14.0,16.0,16.1245154965971,44.10215414239989,32.0624390837628,28.5,30.0,30.0,14.0,14.0,1.0,5.0,6.0,5.0990195135927845,5.5,29.0,26.0,38.0
77,77,9.0,57.0,9.0,11.045361017187261,15.0,16.0,17.029386365926403,46.04345773288535,35.014282800023196,30.5,30.0,30.0,13.0,16.0,4.0,4.0,5.0,5.0,5.0,29.0,26.0,38.01315561749642
78,78,9.0,59.00847396772772,9.055385138137417,12.041594578792296,15.0,17.029386365926403,17.029386365926403,47.095647357266465,35.05709628591621,30.5,30.0,31.0,13.5,16.5,3.5,4.5,5.0,5.0990195135927845,5.0,29.0,27.0,38.01315561749642
79,79,10.0,60.00833275470999,9.0,12.041594578792296,15.033296378372908,16.0312195418814,17.029386365926403,48.041648597857254,36.013886210738214,31.0,29.0,30.0,12.5,18.5,5.5,4.5,5.0,5.0990195135927845,4.5,30.0,28.0,38.01315561749642
80,80,13.0,62.00806399170998,8.0,12.041594578792296,15.0,18.027756377319946,17.029386365926403,50.039984012787215,38.01315561749642,31.5,30.0,31.0,13.5,19.5,6.5,5.5,4.0,5.0990195135927845,5.0,29.0,28.0,38.0
81,81,13.0,64.03124237432849,9.0,12.0,17.0,19.026297590440446,16.0312195418814,50.00999900019995,38.01315561749642,31.5,30.0,32.0,15.0,19.0,6.0,7.0,5.0,5.0990195135927845,5.0,29.0,29.0,40.0
82,82,14.0,67.02984409947557,9.0,13.0,18.0,20.0,16.0,52.0,39.0,32.0,30.0,32.0,15.0,21.0,7.0,6.0,5.0,5.0,5.0,29.0,29.0,40.01249804748511
83,83,19.026297590440446,69.06518659932803,8.0,11.0,18.0,20.024984394500787,15.033296378372908,53.0,42.0,32.5,29.0,32.0,15.5,22.5,10.5,7.5,7.0,6.0,6.0,30.0,29.0,41.012193308819754
84,84,16.0,69.06518659932803,8.0,12.0,19.0,20.0,16.0,52.0,40.0,32.0,29.0,32.0,14.5,21.5,7.5,6.5,8.0,7.0,7.0,30.0,29.0,41.0
85,85,14.035668847618199,68.0294054067798,8.0,13.0,18.0,20.024984394500787,16.0312195418814,51.0,38.0,31.0,28.0,30.0,13.0,22.0,8.0,6.0,8.0,8.06225774829855,7.5,30.0,29.0,40.0
86,86,15.0,66.03029607687671,8.06225774829855,12.0,18.0,19.0,16.0,51.0098029794274,39.01281840626232,31.5,29.0,31.0,14.0,21.0,8.0,6.0,8.0,8.0,8.0,30.0,29.0,39.0
87,87,12.0,64.03124237432849,8.0,12.0,17.0,18.027756377319946,17.029386365926403,49.01020301937138,37.013511046643494,31.0,28.0,30.0,12.0,20.0,7.0,4.0,9.0,8.0,8.0,31.0,30.0,39.01281840626232
88,88,4.0,61.00819617067857,9.0,13.0,15.0,16.0,17.11724276862369,43.04648650006177,30.066592756745816,28.0,28.0,29.0,11.5,14.5,0.5,2.5,9.0,8.0,8.0,31.0,30.0,40.0
89,89,4.0,59.00847396772772,7.0,12.041594578792296,16.0,17.029386365926403,19.026297590440446,42.04759208325728,30.01666203960727,28.0,28.0,29.0,9.5,13.5,0.5,2.5,8.0,9.055385138137417,9.0,30.0,30.0,40.01249804748511
90,90,4.0,59.033888572581766,8.0,13.0,15.0,16.0312195418814,19.026297590440446,44.01136216933077,31.016124838541646,29.0,28.0,30.0,10.0,15.0,1.0,3.0,9.0,9.0,9.0,30.0,30.0,40.01249804748511
91,91,5.0,59.033888572581766,8.0,13.0,15.033296378372908,16.0312195418814,19.026297590440446,45.0111097397076,32.01562118716424,29.5,28.0,30.0,10.0,16.0,2.0,2.0,9.0,9.055385138137417,8.5,31.0,31.0,40.01249804748511
92,92,5.0,59.033888572581766,8.0,13.0,15.0,16.0312195418814,20.024984394500787,46.010868281309364,33.015148038438355,30.5,29.0,31.0,10.0,16.0,2.0,2.0,10.0,9.0,9.5,31.0,31.0,41.012193308819754
93,93,6.0,60.03332407921454,8.0,13.0,15.0,16.0312195418814,20.024984394500787,47.01063709417264,34.0147027033899,31.0,28.0,30.0,9.0,18.0,3.0,2.0,10.0,10.0,9.5,31.0,31.0,41.012193308819754
94,94,10.0,63.0317380372777,8.0,13.0,15.0,17.029386365926403,19.0,50.0,37.0,32.0,28.0,30.0,10.0,21.0,6.0,2.0,11.0,10.0,10.0,31.0,32.0,40.01249804748511
95,95,13.0,66.06814663663572,8.0,14.0,17.0,19.026297590440446,18.0,53.0,39.0,32.5,28.0,31.0,11.5,23.5,8.5,4.5,9.0,8.0,8.0,32.0,33.0,41.012193308819754
96,96,14.0,65.03076195155643,7.0710678118654755,14.0,18.0,20.024984394500787,19.026297590440446,54.0,40.0,33.0,29.0,31.0,11.0,24.0,9.0,5.0,5.0,5.0,5.0,32.0,33.0,41.0
97,97,16.0312195418814,69.02897942168927,7.0,13.0,18.027756377319946,19.026297590440446,18.0,54.00925846556311,41.012193308819754,33.0,28.0,30.0,11.0,25.0,11.0,4.0,5.0,5.0,5.0,34.0,35.0,45.0
98,98,17.029386365926403,69.02897942168927,7.0,12.041594578792296,18.0,20.024984394500787,18.0,54.037024344425184,42.01190307520001,33.5,28.0,30.0,11.0,25.0,12.0,5.0,7.0710678118654755,6.0,6.5,33.0,34.0,45.0111097397076
99,99,15.033296378372908,69.00724599634447,7.0,13.0,18.0,20.0,18.0,53.009433122794285,40.01249804748511,32.5,28.0,29.0,10.5,24.5,9.5,3.5,8.0,8.06225774829855,8.0,34.0,35.0,45.0
100,100,14.035668847618199,69.0,7.0,13.0,19.0,19.0,18.0,52.009614495783374,39.01281840626232,32.0,29.0,29.0,11.0,23.0,9.0,4.0,10.0,9.0,9.0,33.0,35.0,47.0
101,101,14.035668847618199,69.0,7.0,12.0,18.0,20.0,18.027756377319946,51.03920062069938,39.05124837953327,32.0,28.0,28.0,10.0,23.0,10.0,4.0,11.045361017187261,10.0,10.0,34.0,36.0,46.010868281309364
102,102,14.0,69.0,7.0710678118654755,12.0,18.0,19.0,18.0,51.0098029794274,39.01281840626232,32.0,29.0,29.0,11.0,22.0,10.0,4.0,11.0,11.045361017187261,11.0,33.0,36.0,48.041648597857254
103,103,13.038404810405298,70.0,7.0,12.0,18.0,19.0,17.0,49.01020301937138,37.013511046643494,30.5,28.0,28.0,11.0,21.0,9.0,4.0,11.0,11.0,11.5,33.0,37.0,47.01063709417264
104,104,12.041594578792296,69.00724599634447,7.0,12.0,18.027756377319946,20.0,19.0,50.00999900019995,38.01315561749642,32.0,29.0,28.0,9.5,21.5,8.5,3.5,11.045361017187261,10.0,10.5,33.0,37.0,46.010868281309364
105,105,12.0,68.00735254367721,7.0,11.0,18.027756377319946,20.0,19.026297590440446,49.01020301937138,38.01315561749642,32.0,30.0,29.0,10.5,19.5,7.5,4.5,6.0,7.0,6.5,27.0,31.0,36.05551275463989
106,106,11.045361017187261,67.02984409947557,6.0,12.0,18.027756377319946,19.0,20.0,49.01020301937138,37.013511046643494,31.5,31.0,29.0,10.0,19.0,7.0,5.0,5.0990195135927845,5.0,5.0,26.0,30.0,32.01562118716424
107,107,12.0,67.02984409947557,6.0,12.041594578792296,17.0,19.026297590440446,19.026297590440446,49.040799340956916,37.013511046643494,31.0,31.0,29.0,11.0,19.0,7.0,5.0,5.0990195135927845,6.0,5.5,27.0,30.0,35.014282800023196
108,108,13.038404810405298,67.02984409947557,7.0,12.0,18.027756377319946,19.0,19.026297590440446,51.03920062069938,39.05124837953327,32.5,31.0,29.0,11.0,21.0,8.0,5.0,7.0,6.0,7.0,33.0,38.0,46.0
109,109,12.041594578792296,69.00724599634447,8.0,14.035668847618199,18.0,19.026297590440446,17.0,51.03920062069938,37.013511046643494,31.0,30.0,29.0,12.5,21.5,7.5,4.5,8.0,7.0710678118654755,8.0,33.0,37.0,46.0
110,110,15.033296378372908,68.00735254367721,7.0,11.0,18.027756377319946,19.0,19.026297590440446,52.03844732503075,41.048751503547585,33.5,32.0,31.0,12.5,20.5,8.5,6.5,9.055385138137417,8.06225774829855,8.0,31.0,33.0,42.01190307520001
111,111,14.035668847618199,68.0,7.0,12.0,19.026297590440446,19.0,19.0,52.009614495783374,40.01249804748511,33.0,31.0,31.0,12.0,21.0,8.0,6.0,10.0,9.0,9.5,29.0,32.0,41.048751503547585
112,112,14.035668847618199,69.00724599634447,7.0,13.0,18.027756377319946,18.0,18.027756377319946,52.03844732503075,39.05124837953327,32.0,31.0,30.0,12.5,21.5,8.5,5.5,10.0,11.045361017187261,11.0,33.0,37.0,44.01136216933077
113,113,15.033296378372908,68.0,7.0,13.0,17.0,18.0,18.027756377319946,53.03772242470448,40.049968789001575,32.5,31.0,31.0,13.0,22.0,8.0,6.0,12.0,12.041594578792296,12.0,33.0,36.0,44.01136216933077
114,114,15.033296378372908,67.0,8.0,12.0,17.029386365926403,18.0,18.027756377319946,53.03772242470448,41.048751503547585,33.5,31.0,31.0,13.0,22.0,9.0,6.0,11.0,11.045361017187261,11.5,33.0,37.0,44.04543109109048
115,115,13.038404810405298,67.00746227100382,7.0,14.0,17.029386365926403,19.026297590440446,18.0,52.009614495783374,38.01315561749642,31.5,30.0,29.0,11.5,22.5,8.5,5.5,11.0,11.045361017187261,11.5,32.0,35.0,44.01136216933077
116,116,15.0,67.00746227100382,7.0,12.041594578792296,16.0312195418814,18.0,18.027756377319946,52.03844732503075,40.01249804748511,32.5,30.0,29.0,11.5,22.5,9.5,5.5,11.0,11.045361017187261,11.0,33.0,35.0,44.01136216933077
117,117,14.035668847618199,66.0,7.0,13.0,17.0,18.0,19.0,53.009433122794285,40.01249804748511,33.0,30.0,30.0,11.0,23.0,9.0,4.0,11.0,10.04987562112089,10.0,32.0,35.0,43.01162633521314
118,118,14.0,68.0,7.0,12.041594578792296,16.0312195418814,18.0,19.0,52.009614495783374,40.0,33.0,29.0,29.0,10.0,23.0,10.0,4.0,12.0,11.045361017187261,11.0,31.0,33.0,42.01190307520001
119,119,15.0,67.00746227100382,7.0710678118654755,12.0,16.0,18.0,18.0,52.009614495783374,40.01249804748511,32.5,28.0,29.0,10.5,23.5,10.5,3.5,12.0,11.045361017187261,11.0,31.0,33.0,43.01162633521314
120,120,13.0,66.007575322837,7.0,13.0,16.0,18.027756377319946,19.0,52.0,39.0,32.5,28.0,29.0,9.5,23.5,9.5,3.5,12.0,11.045361017187261,11.0,31.0,33.0,42.0
121,121,12.041594578792296,64.0,7.0,13.0,16.0,17.0,19.0,51.0098029794274,38.01315561749642,32.0,28.0,28.0,9.0,23.0,9.0,2.0,10.0,10.04987562112089,10.5,30.0,32.0,42.01190307520001
122,122,11.0,62.00806399170998,7.0,12.0,16.0,18.0,19.0,49.0,37.0,31.5,28.0,27.0,8.5,21.5,9.5,1.5,10.0,9.0,9.5,29.0,32.0,42.01190307520001
123,123,10.0,60.00833275470999,8.0,12.041594578792296,16.0,17.0,19.0,49.01020301937138,37.0,32.0,29.0,28.0,9.5,20.5,7.5,2.5,10.04987562112089,9.0,9.5,29.0,32.0,41.012193308819754
124,124,9.0,58.008620049092706,7.0710678118654755,12.0,15.0,16.0312195418814,20.0,48.010415536631214,36.013886210738214,31.5,29.0,28.0,8.5,19.5,6.5,1.5,10.0,10.04987562112089,10.0,29.0,31.0,41.012193308819754
125,125,8.0,57.0087712549569,8.06225774829855,12.0,14.0,15.033296378372908,20.0,48.010415536631214,36.013886210738214,32.0,30.0,29.0,9.5,18.5,5.5,1.5,10.0,10.04987562112089,10.0,29.0,32.0,40.01249804748511
126,126,7.0,56.0357029044876,8.0,13.038404810405298,14.0,15.0,21.02379604162864,49.040799340956916,36.013886210738214,32.5,31.0,29.0,9.0,19.0,5.0,1.0,9.055385138137417,8.0,8.5,29.0,31.0,41.012193308819754
127,127,6.0,57.0087712549569,9.0,13.038404810405298,15.0,16.0,20.0,48.010415536631214,35.0,32.0,30.0,29.0,9.5,18.5,4.5,1.5,10.04987562112089,8.0,8.5,29.0,31.0,41.0
128,128,10.0,58.034472514187634,8.06225774829855,13.038404810405298,16.0,17.0,20.0,51.03920062069938,38.01315561749642,33.0,32.0,30.0,11.0,20.0,6.0,3.0,10.04987562112089,9.0,9.0,28.0,31.0,41.012193308819754
129,129,14.035668847618199,65.03076195155643,8.0,13.0,17.0,19.0,18.027756377319946,53.03772242470448,40.049968789001575,33.0,30.0,32.0,13.0,22.0,8.0,5.0,11.0,9.055385138137417,9.5,29.0,32.0,39.01281840626232
130,130,17.029386365926403,65.00769185258002,7.0710678118654755,12.0,19.0,20.0,17.0,53.03772242470448,41.048751503547585,32.5,29.0,30.0,12.5,23.5,9.5,5.5,9.0,9.0,9.5,28.0,31.0,42.01190307520001
131,131,20.024984394500787,68.0,7.0,11.0,18.0,19.0,16.0312195418814,54.037024344425184,43.04648650006177,33.0,29.0,29.0,13.0,25.0,12.0,6.0,10.0,9.055385138137417,9.0,28.0,31.0,40.01249804748511
132,132,19.026297590440446,69.0,7.0710678118654755,12.0,19.026297590440446,20.0,16.0,54.037024344425184,42.04759208325728,32.5,29.0,29.0,13.0,25.0,12.0,6.0,10.0,9.055385138137417,9.0,28.0,30.0,41.048751503547585
133,133,19.026297590440446,69.0,7.0,12.0,18.0,20.0,16.0312195418814,54.037024344425184,42.04759208325728,32.5,29.0,29.0,13.0,25.0,12.0,6.0,10.0,9.0,9.5,27.0,30.0,40.01249804748511
134,134,19.026297590440446,68.0,7.0710678118654755,11.0,19.0,20.0,16.0,53.03772242470448,42.04759208325728,32.5,29.0,29.0,13.0,24.0,11.0,6.0,10.04987562112089,9.055385138137417,9.5,28.0,30.0,42.04759208325728
135,135,18.027756377319946,67.0,7.0,12.041594578792296,19.0,20.0,16.0,53.03772242470448,41.012193308819754,32.0,29.0,29.0,13.0,24.0,11.0,6.0,10.04987562112089,9.055385138137417,9.5,29.0,31.0,39.05124837953327
136,136,16.0312195418814,68.0,8.0,13.038404810405298,19.0,20.0,14.0,51.03920062069938,38.01315561749642,30.0,28.0,28.0,14.0,23.0,9.0,6.0,10.0,10.04987562112089,10.0,27.0,29.0,40.0
137,137,16.0312195418814,68.0,7.0710678118654755,13.038404810405298,19.0,21.0,15.0,51.088159097779204,38.05259518088089,30.0,28.0,28.0,13.0,23.0,9.0,6.0,6.082762530298219,6.0,6.0,29.0,32.0,40.01249804748511
138,138,16.0312195418814,68.0,7.0,12.0,18.027756377319946,20.0,16.0312195418814,51.03920062069938,39.05124837953327,31.0,28.0,28.0,12.0,23.0,10.0,6.0,5.0990195135927845,4.123105625617661,4.5,31.0,34.0,41.012193308819754
139,139,12.0,64.00781202322104,7.0710678118654755,11.0,16.0,18.027756377319946,18.027756377319946,48.0,37.0,31.0,28.0,27.0,9.5,20.5,8.5,2.5,5.0990195135927845,5.0,5.5,31.0,33.0,40.01249804748511
140,140,0.0,59.033888572581766,9.0,12.0,16.0312195418814,17.029386365926403,19.0,40.0,28.0,28.0,29.0,27.0,9.0,12.0,0.0,1.0,5.0990195135927845,5.0,5.0,30.0,32.0,40.01249804748511
141,141,1.0,60.07495318350236,9.0,12.0,16.0312195418814,16.0312195418814,19.0,39.0,27.0,27.5,29.0,26.0,8.5,11.5,0.5,0.5,6.082762530298219,5.0,5.5,30.0,31.0,39.0
142,142,1.0,60.03332407921454,9.0,13.0,16.0312195418814,16.0312195418814,19.0,40.0,27.0,27.5,28.0,26.0,8.0,13.0,0.0,0.0,6.082762530298219,5.0,5.5,29.0,31.0,38.01315561749642
143,143,1.0,60.03332407921454,9.0,13.038404810405298,16.0312195418814,17.029386365926403,20.0,43.01162633521314,30.0,29.5,30.0,28.0,9.0,14.0,0.0,1.0,6.082762530298219,6.0,6.5,29.0,31.0,40.01249804748511
144,144,10.0,62.03224967708329,9.055385138137417,13.0,17.029386365926403,18.027756377319946,18.0,50.00999900019995,37.013511046643494,32.0,32.0,30.0,13.0,19.0,5.0,5.0,7.0,6.0,6.5,29.0,31.0,40.049968789001575
145,145,16.0312195418814,65.0,8.0,15.0,18.027756377319946,20.0,17.029386365926403,56.0357029044876,41.048751503547585,33.0,32.0,32.0,15.0,24.0,8.0,7.0,7.0710678118654755,7.0,7.0,29.0,31.0,41.012193308819754
146,146,18.027756377319946,63.00793600809346,8.0,14.0,18.0,20.0,18.027756377319946,58.034472514187634,44.04543109109048,35.0,33.0,34.0,15.5,24.5,9.5,7.5,7.0,6.0,6.5,30.0,31.0,42.01190307520001
147,147,17.029386365926403,62.00806399170998,7.0,14.0,16.0,18.0,18.027756377319946,56.0,42.0,33.5,31.0,32.0,13.5,24.5,9.5,6.5,8.06225774829855,7.0710678118654755,7.0,29.0,31.0,40.01249804748511
148,148,13.0,59.00847396772772,7.0,13.0,16.0,17.0,19.026297590440446,52.009614495783374,39.01281840626232,32.5,30.0,31.0,11.5,21.5,7.5,4.5,7.0,7.0,7.0,29.0,30.0,41.0
149,149,9.0,58.008620049092706,8.0,12.0,15.0,17.029386365926403,19.026297590440446,48.010415536631214,36.013886210738214,31.5,29.0,30.0,10.5,18.5,4.5,2.5,8.0,6.082762530298219,6.5,29.0,30.0,40.0
150,150,7.0,56.0357029044876,9.0,13.0,15.033296378372908,16.0312195418814,19.026297590440446,48.010415536631214,35.014282800023196,31.5,29.0,31.0,11.0,18.0,3.0,2.0,8.0,7.0,7.5,30.0,31.0,40.0
151,151,5.0,57.0350769263968,8.0,13.0,14.0,16.0312195418814,20.024984394500787,46.010868281309364,33.015148038438355,30.5,29.0,31.0,10.0,16.0,1.0,2.0,8.06225774829855,8.0,8.0,30.0,31.0,39.01281840626232
152,152,2.0,56.00892785976178,9.0,13.0,14.035668847618199,16.0,20.09975124224178,44.04543109109048,31.064449134018133,30.0,29.0,30.0,9.5,14.5,0.5,0.5,8.0,8.0,8.5,30.0,31.0,40.0
153,153,2.0,58.008620049092706,8.0,11.0,15.0,15.033296378372908,20.024984394500787,41.012193308819754,30.01666203960727,29.0,28.0,29.0,8.5,12.5,0.5,1.5,8.0,8.06225774829855,8.0,29.0,30.0,41.012193308819754
154,154,2.0,60.00833275470999,9.0,12.0,16.0,16.0,19.1049731745428,42.04759208325728,30.066592756745816,29.0,28.0,29.0,9.5,13.5,0.5,1.5,8.0,8.0,8.5,30.0,30.0,39.0
155,155,3.1622776601683795,61.0,8.06225774829855,13.038404810405298,15.0,17.0,18.24828759089466,42.04759208325728,29.154759474226502,27.5,28.0,28.0,10.0,14.0,0.0,2.0,8.06225774829855,8.0,8.0,31.0,30.0,41.0
156,156,5.0,60.03332407921454,8.0,13.0,15.0,17.029386365926403,18.027756377319946,44.01136216933077,31.016124838541646,28.5,27.0,29.0,10.0,16.0,2.0,2.0,9.0,9.0,9.0,31.0,30.0,39.01281840626232
157,157,11.045361017187261,63.0317380372777,7.0,12.0,16.0312195418814,17.0,18.110770276274835,48.010415536631214,36.013886210738214,30.5,27.0,29.0,10.0,20.0,7.0,3.0,9.0,8.06225774829855,8.0,32.0,30.0,41.0
158,158,11.045361017187261,64.07027391856539,7.0,13.0,17.0,19.026297590440446,18.027756377319946,49.0,36.0,30.5,27.0,30.0,10.5,20.5,6.5,3.5,9.0,8.0,8.5,31.0,29.0,41.012193308819754
159,159,12.041594578792296,63.0317380372777,7.0,13.0,17.029386365926403,19.026297590440446,17.0,49.01020301937138,36.013886210738214,30.0,27.0,29.0,11.0,21.0,7.0,4.0,9.0,8.0,8.0,32.0,29.0,40.01249804748511
160,160,13.038404810405298,63.071388124885914,6.0,13.0,17.0,18.027756377319946,17.029386365926403,49.0,36.0,29.5,26.0,29.0,10.5,21.5,7.5,4.5,9.0,8.0,8.5,32.0,29.0,42.01190307520001
161,161,13.038404810405298,64.07027391856539,7.0,12.0,17.0,18.027756377319946,17.029386365926403,49.0,37.0,30.5,27.0,30.0,11.5,20.5,7.5,4.5,9.0,8.0,8.5,32.0,30.0,41.012193308819754
162,162,14.0,63.0317380372777,6.0,12.0,17.0,18.027756377319946,17.029386365926403,49.01020301937138,37.013511046643494,30.0,27.0,29.0,11.0,21.0,8.0,5.0,8.0,8.0,8.0,31.0,29.0,41.048751503547585
163,163,14.035668847618199,65.03076195155643,7.0,12.0,17.0,18.027756377319946,16.0312195418814,49.0,37.0,30.0,26.0,28.0,11.0,22.0,9.0,4.0,9.0,8.0,8.0,31.0,29.0,41.012193308819754
164,164,16.0,66.06814663663572,6.0,12.0,18.027756377319946,19.026297590440446,16.0,50.0,38.0,30.0,26.0,29.0,11.5,22.5,8.5,4.5,9.0,9.0,9.0,31.0,29.0,42.01190307520001
165,165,16.0312195418814,67.06713054842886,7.0,11.0,18.0,19.026297590440446,16.0,50.00999900019995,39.01281840626232,31.0,25.0,28.0,10.5,23.5,10.5,4.5,10.0,8.0,8.5,32.0,29.0,40.01249804748511
166,166,16.0,70.06425622241343,7.0,11.0,18.0,20.024984394500787,17.0,51.0,40.0,32.0,26.0,29.0,10.5,23.5,11.5,4.5,9.0,8.0,8.0,32.0,30.0,41.0
167,167,17.029386365926403,68.06614430096654,7.0,12.0,18.0,19.026297590440446,16.0312195418814,52.0,40.0,31.5,26.0,29.0,11.5,24.5,11.5,5.5,10.0,8.0,8.5,32.0,30.0,42.0
168,168,19.0,69.02897942168927,6.0,12.0,18.0,20.024984394500787,17.0,54.0,42.0,32.5,26.0,28.0,10.0,27.0,13.0,4.0,5.0990195135927845,5.0990195135927845,5.5,32.0,32.0,39.0
169,169,20.0,68.06614430096654,6.0,11.0,19.0,21.02379604162864,17.0,54.0,43.0,33.0,26.0,29.0,10.5,26.5,14.5,5.5,5.0,4.0,4.5,24.0,24.0,29.068883707497267
170,170,21.0,69.06518659932803,6.0,10.0,19.0,20.024984394500787,17.0,54.0,44.0,33.5,27.0,30.0,11.5,25.5,13.5,5.5,5.0990195135927845,5.0990195135927845,5.0,24.0,23.0,29.017236257093817
171,171,20.0,69.06518659932803,6.0,12.0,19.0,21.02379604162864,17.0,55.0,43.0,33.0,27.0,30.0,11.5,26.5,12.5,5.5,5.0990195135927845,6.0,5.5,26.0,24.0,32.0
172,172,20.024984394500787,67.11929677819934,7.0710678118654755,12.0,18.0,20.024984394500787,17.0,56.0,44.0,34.0,27.0,31.0,12.0,27.0,14.0,6.0,6.0,6.082762530298219,6.0,33.0,32.0,41.012193308819754
173,173,20.0,68.06614430096654,6.0,12.0,19.0,21.02379604162864,17.0,55.0,43.0,33.0,27.0,30.0,11.5,26.5,13.5,5.5,7.0,6.0,6.0,33.0,31.0,42.0
174,174,17.0,67.06713054842886,6.0,13.0,18.0,20.024984394500787,17.0,53.0,40.0,31.5,26.0,29.0,10.5,25.5,11.5,4.5,8.0,7.0,7.0,32.0,31.0,42.0
175,175,16.0,68.06614430096654,7.0,12.0,18.0,20.024984394500787,17.0,52.0,40.0,32.0,26.0,29.0,10.5,24.5,10.5,4.5,9.0,8.0,7.5,34.0,32.0,42.01190307520001
176,176,13.0,67.00746227100382,6.0,11.0,19.0,20.024984394500787,18.027756377319946,48.010415536631214,37.013511046643494,30.5,27.0,28.0,9.5,20.5,7.5,3.5,8.06225774829855,8.06225774829855,7.5,31.0,31.0,41.0
177,177,6.0,64.00781202322104,7.0,11.0,18.0,19.0,19.026297590440446,43.01162633521314,32.01562118716424,29.0,27.0,28.0,8.5,15.5,2.5,2.5,9.0,9.0,8.5,30.0,29.0,38.01315561749642
178,178,6.082762530298219,63.00793600809346,7.0,11.0,18.027756377319946,18.0,18.027756377319946,42.04759208325728,31.064449134018133,28.0,26.0,27.0,8.5,15.5,3.5,1.5,9.0,9.0,8.5,26.0,26.0,32.01562118716424
179,179,8.06225774829855,63.0317380372777,7.0,12.0,16.0,18.0,18.027756377319946,45.044422518220834,33.06055050963308,29.0,26.0,28.0,9.0,18.0,5.0,2.0,9.0,8.0,8.5,30.0,28.0,38.01315561749642
180,180,12.041594578792296,62.03224967708329,7.0710678118654755,12.041594578792296,17.0,18.0,18.0,49.01020301937138,37.0,31.0,28.0,30.0,11.0,20.0,7.0,5.0,10.0,9.055385138137417,9.0,27.0,25.0,34.0
181,181,15.0,64.00781202322104,6.0,13.0,18.0,20.0,18.027756377319946,52.009614495783374,39.01281840626232,31.5,28.0,29.0,10.5,23.5,9.5,4.5,10.0,9.055385138137417,9.5,27.0,25.0,34.0
182,182,15.0,66.06814663663572,7.0,13.0,18.0,20.024984394500787,18.0,53.0,40.0,32.5,27.0,30.0,10.5,24.5,9.5,4.5,10.04987562112089,9.0,9.0,28.0,26.0,36.0
183,183,16.0312195418814,66.06814663663572,6.0,12.041594578792296,19.0,19.0,18.027756377319946,52.009614495783374,40.0,32.0,27.0,30.0,10.5,23.5,9.5,4.5,10.0,9.0,9.0,29.0,27.0,37.0
184,184,14.0,66.03029607687671,7.0,13.0,19.0,20.024984394500787,17.029386365926403,51.0098029794274,38.01315561749642,31.0,26.0,28.0,10.0,24.0,9.0,4.0,9.055385138137417,9.0,9.5,27.0,26.0,36.013886210738214
185,185,14.0,66.03029607687671,7.0,13.0,19.0,20.0,18.0,52.0,39.0,32.0,27.0,29.0,10.0,24.0,10.0,3.0,10.04987562112089,10.04987562112089,10.0,27.0,25.0,35.0
186,186,13.0,64.03124237432849,7.0,13.0,18.027756377319946,20.0,18.0,51.0,38.0,31.5,27.0,29.0,10.0,23.0,9.0,3.0,9.055385138137417,9.055385138137417,9.0,28.0,26.0,37.0
187,187,12.041594578792296,64.07027391856539,7.0710678118654755,13.038404810405298,17.0,19.0,19.0,51.0098029794274,38.0,32.0,26.0,29.0,8.5,23.5,8.5,2.5,10.0,9.055385138137417,9.0,29.0,25.0,37.0
188,188,12.0,62.03224967708329,7.0,13.0,17.029386365926403,19.0,19.026297590440446,51.0098029794274,38.01315561749642,32.0,27.0,29.0,9.0,23.0,8.0,2.0,9.055385138137417,9.0,9.5,29.0,26.0,36.0
189,189,9.055385138137417,61.07372593840988,8.0,14.0,17.0,18.027756377319946,19.026297590440446,50.039984012787215,36.05551275463989,31.5,26.0,29.0,8.5,22.5,6.5,1.5,10.0,10.0,9.5,29.0,26.0,36.0
190,190,8.0,57.07889277132134,8.06225774829855,14.035668847618199,15.0,17.029386365926403,20.0,50.039984012787215,36.013886210738214,32.0,27.0,30.0,8.5,21.5,6.5,1.5,11.045361017187261,11.0,11.0,35.0,32.0,42.0
191,191,6.082762530298219,58.077534382926416,8.0,13.0,16.0,17.0,21.02379604162864,48.041648597857254,35.05709628591621,32.0,26.0,29.0,6.5,20.5,6.5,0.5,10.04987562112089,11.0,10.5,31.0,25.0,34.0147027033899
192,192,5.0,57.07889277132134,9.0,13.038404810405298,15.033296378372908,16.0312195418814,20.024984394500787,47.042533945356304,34.0147027033899,31.5,26.0,29.0,7.5,19.5,4.5,1.5,11.0,10.0,10.5,39.0,33.0,46.04345773288535
193,193,9.055385138137417,59.07622195096772,7.0,14.0,16.0312195418814,17.029386365926403,21.02379604162864,51.03920062069938,37.05401462729781,32.5,27.0,30.0,7.5,22.5,6.5,0.5,11.045361017187261,11.045361017187261,10.5,34.0,28.0,39.01281840626232
194,194,11.0,63.12685640834652,7.0,15.0,17.029386365926403,18.027756377319946,20.0,53.0,38.0,32.5,27.0,31.0,9.0,24.0,8.0,2.0,11.045361017187261,11.0,11.0,31.0,25.0,37.013511046643494
195,195,16.0,64.1248781675256,7.0,14.0,17.0,19.026297590440446,19.0,56.0,42.0,34.0,28.0,32.0,11.0,26.0,10.0,4.0,11.045361017187261,11.0,11.5,34.0,29.0,39.01281840626232
196,196,13.0,61.032778078668514,7.0,14.0,17.029386365926403,18.027756377319946,19.026297590440446,53.009433122794285,39.01281840626232,32.5,28.0,30.0,10.0,24.0,9.0,3.0,12.041594578792296,11.045361017187261,11.5,34.0,30.0,43.01162633521314
197,197,11.045361017187261,59.033888572581766,7.0,13.0,16.0312195418814,17.029386365926403,19.026297590440446,50.039984012787215,37.05401462729781,31.5,27.0,29.0,9.0,22.0,8.0,2.0,11.045361017187261,11.045361017187261,11.0,35.0,31.0,42.01190307520001
198,198,7.0710678118654755,58.034472514187634,7.0,13.038404810405298,16.0312195418814,17.0,20.024984394500787,47.095647357266465,34.058772731852805,30.5,26.0,28.0,7.0,20.0,6.0,0.0,11.045361017187261,11.045361017187261,11.5,34.0,30.0,41.0
199,199,6.082762530298219,59.033888572581766,7.0,13.038404810405298,14.0,16.0,20.024984394500787,46.09772228646444,33.06055050963308,30.0,26.0,28.0,7.0,19.0,5.0,0.0,12.041594578792296,11.045361017187261,11.5,35.0,31.0,42.01190307520001
200,200,8.06225774829855,60.07495318350236,7.0,12.041594578792296,15.033296378372908,17.0,20.024984394500787,47.095647357266465,35.05709628591621,31.0,25.0,28.0,6.5,20.5,6.5,0.5,11.045361017187261,11.0,11.0,30.0,25.0,36.0
201,201,10.04987562112089,60.13318551349163,7.0,12.041594578792296,16.0,17.0,19.0,48.041648597857254,36.013886210738214,31.0,25.0,29.0,8.0,21.0,7.0,2.0,12.041594578792296,11.0,11.5,33.0,29.0,38.01315561749642
202,202,10.0,61.1310068623117,8.06225774829855,13.038404810405298,15.0,17.029386365926403,18.0,49.040799340956916,36.013886210738214,31.0,25.0,29.0,9.0,22.0,8.0,2.0,12.041594578792296,12.041594578792296,11.5,33.0,29.0,38.01315561749642
203,203,10.0,62.07253821135398,7.0710678118654755,12.041594578792296,16.0312195418814,17.029386365926403,19.0,48.041648597857254,36.013886210738214,31.0,25.0,28.0,7.5,21.5,7.5,0.5,12.041594578792296,11.0,11.0,33.0,29.0,39.01281840626232
204,204,5.0990195135927845,62.03224967708329,8.0,12.041594578792296,16.0312195418814,17.029386365926403,19.0,44.04543109109048,32.01562118716424,29.5,26.0,28.0,8.0,17.0,4.0,0.0,11.045361017187261,11.0,11.0,32.0,29.0,37.013511046643494
205,205,3.1622776601683795,60.07495318350236,7.0,12.041594578792296,16.0312195418814,17.0,19.026297590440446,41.10960958218893,29.068883707497267,27.5,25.0,28.0,7.5,14.5,1.5,0.5,6.0,6.0,5.5,28.0,25.0,31.0
206,206,3.0,60.07495318350236,7.0710678118654755,12.041594578792296,15.033296378372908,16.0,19.0,41.048751503547585,29.017236257093817,27.5,25.0,28.0,7.5,14.5,1.5,0.5,5.0,6.082762530298219,5.5,27.0,24.0,27.0
207,207,5.0,61.032778078668514,7.0710678118654755,12.041594578792296,16.0312195418814,17.029386365926403,19.0,43.04648650006177,31.016124838541646,28.5,26.0,28.0,8.0,16.0,2.0,1.0,5.0,5.0990195135927845,5.0,28.0,24.0,29.0
208,208,8.0,60.07495318350236,8.0,12.041594578792296,16.0,17.0,19.026297590440446,47.042533945356304,35.014282800023196,31.0,27.0,30.0,9.5,18.5,5.5,2.5,7.0,6.082762530298219,6.5,33.0,31.0,40.01249804748511
209,209,10.04987562112089,60.03332407921454,7.0710678118654755,13.038404810405298,16.0,17.0,19.026297590440446,49.040799340956916,36.013886210738214,31.0,28.0,30.0,10.0,20.0,6.0,3.0,8.0,7.0,7.0,31.0,29.0,36.013886210738214
210,210,10.0,61.07372593840988,7.0,13.038404810405298,16.0312195418814,18.027756377319946,19.0,49.01020301937138,36.0,31.0,28.0,31.0,10.5,19.5,4.5,3.5,8.06225774829855,8.0,8.0,29.0,25.0,34.0147027033899
211,211,10.0,62.12889826803627,7.0710678118654755,14.0,16.0312195418814,17.029386365926403,19.0,50.00999900019995,36.013886210738214,31.0,28.0,32.0,11.0,20.0,5.0,4.0,10.04987562112089,9.0,9.5,37.0,31.0,44.10215414239989
212,212,8.0,63.198101237299845,8.0,15.033296378372908,16.0312195418814,18.110770276274835,19.026297590440446,50.039984012787215,35.014282800023196,31.0,27.0,32.0,10.5,20.5,4.5,2.5,10.198039027185569,10.0,10.0,37.0,30.0,43.104524124504614
213,213,9.055385138137417,60.29925372672534,7.0,14.035668847618199,16.1245154965971,17.029386365926403,19.1049731745428,49.16299421312742,35.12833614050059,30.5,27.0,33.0,11.0,19.0,4.0,3.0,11.045361017187261,10.0,10.0,37.0,29.0,44.28317965096906
214,214,10.0,61.40032573203501,7.0710678118654755,14.035668847618199,16.0312195418814,17.11724276862369,19.1049731745428,50.15974481593781,36.124783736376884,31.0,26.0,33.0,10.5,20.5,4.5,2.5,11.045361017187261,11.0,11.0,38.0,28.0,43.289721643826724
215,215,10.0,62.51399843235114,7.0710678118654755,15.033296378372908,17.11724276862369,17.26267650163207,20.09975124224178,52.15361924162119,37.12142238654117,32.0,27.0,35.0,11.0,21.0,4.0,3.0,11.180339887498949,10.0,10.5,38.0,28.0,44.181444068749045
216,216,13.038404810405298,62.51399843235114,8.06225774829855,13.038404810405298,16.1245154965971,18.110770276274835,19.1049731745428,53.23532661682466,40.19950248448356,33.5,27.0,35.0,12.0,22.0,7.0,3.0,11.180339887498949,10.04987562112089,10.5,39.0,28.0,45.27692569068709
217,217,11.0,63.50590523722971,9.055385138137417,14.035668847618199,17.11724276862369,19.1049731745428,18.110770276274835,52.15361924162119,38.118237105091836,32.5,27.0,35.0,13.0,21.0,5.0,4.0,11.180339887498949,10.04987562112089,10.5,37.0,28.0,44.181444068749045
218,218,6.0,62.39390995922599,10.04987562112089,14.035668847618199,16.0312195418814,18.110770276274835,19.1049731745428,49.16299421312742,35.12833614050059,32.0,28.0,35.0,12.5,17.5,1.5,2.5,11.045361017187261,10.04987562112089,10.5,37.0,27.0,43.104524124504614
219,219,1.0,61.29437168288782,10.04987562112089,13.038404810405298,15.033296378372908,17.11724276862369,20.09975124224178,44.181444068749045,31.144823004794873,30.5,28.0,34.0,11.0,13.0,1.0,1.0,11.045361017187261,11.045361017187261,11.0,37.0,28.0,42.1070065428546
220,220,1.4142135623730951,61.1310068623117,10.0,11.045361017187261,15.033296378372908,16.1245154965971,19.1049731745428,41.19465984809196,30.14962686336267,29.5,29.0,33.0,12.0,10.0,2.0,2.0,12.041594578792296,10.04987562112089,10.5,35.0,27.0,42.1070065428546
221,221,1.4142135623730951,63.198101237299845,10.0,12.041594578792296,16.0312195418814,17.029386365926403,19.1049731745428,42.190046219457976,30.14962686336267,29.5,29.0,34.0,12.5,10.5,3.5,2.5,11.045361017187261,10.04987562112089,10.5,33.0,25.0,41.048751503547585
222,222,6.082762530298219,64.1248781675256,10.0,12.041594578792296,16.0312195418814,17.029386365926403,18.027756377319946,46.09772228646444,34.058772731852805,31.0,31.0,35.0,15.0,13.0,1.0,4.0,10.0,10.04987562112089,10.0,32.0,25.0,41.012193308819754
223,223,14.0,64.19501538281614,9.0,13.038404810405298,17.029386365926403,18.027756377319946,18.027756377319946,54.037024344425184,41.012193308819754,34.0,33.0,38.0,17.5,18.5,4.5,7.5,10.0,10.04987562112089,10.5,32.0,26.0,40.01249804748511
224,224,16.0,66.18912297349165,10.0,13.038404810405298,17.029386365926403,19.1049731745428,17.11724276862369,56.08029957123981,43.04648650006177,35.0,35.0,40.0,20.5,18.5,3.5,10.5,9.055385138137417,10.04987562112089,9.5,30.0,25.0,41.0
225,225,17.0,65.19202405202648,10.04987562112089,14.035668847618199,17.029386365926403,19.026297590440446,17.029386365926403,58.077534382926416,44.04543109109048,35.5,36.0,41.0,21.5,19.5,3.5,10.5,10.04987562112089,10.0,10.0,31.0,26.0,40.01249804748511
226,226,17.0,65.27633568147036,10.0,14.035668847618199,18.0,20.024984394500787,17.029386365926403,58.034472514187634,44.01136216933077,35.5,35.0,41.0,21.0,20.0,5.0,11.0,9.0,9.055385138137417,9.5,30.0,25.0,41.0
227,227,20.0,65.27633568147036,9.0,13.038404810405298,18.027756377319946,20.024984394500787,17.029386365926403,59.033888572581766,46.010868281309364,36.0,34.0,40.0,20.0,22.0,8.0,10.0,10.04987562112089,10.0,9.5,31.0,26.0,42.01190307520001
228,228,19.0,66.27216610312357,9.0,14.035668847618199,18.027756377319946,19.1049731745428,18.110770276274835,60.07495318350236,46.04345773288535,36.5,34.0,40.0,19.0,23.0,7.0,9.0,9.0,9.055385138137417,9.0,31.0,24.0,41.048751503547585
229,229,19.0,66.27216610312357,9.0,14.035668847618199,18.110770276274835,19.1049731745428,18.110770276274835,60.07495318350236,46.04345773288535,36.5,34.0,40.0,19.0,23.0,7.0,9.0,10.0,10.04987562112089,10.0,33.0,26.0,43.04648650006177
230,230,19.0,65.37583651472461,10.04987562112089,14.035668847618199,17.029386365926403,19.1049731745428,18.110770276274835,61.1310068623117,47.095647357266465,37.5,34.0,41.0,19.5,23.5,7.5,9.5,10.04987562112089,10.04987562112089,10.0,33.0,26.0,42.04759208325728
231,231,18.0,65.37583651472461,9.0,13.038404810405298,18.027756377319946,19.026297590440446,18.110770276274835,58.077534382926416,45.044422518220834,36.0,32.0,39.0,17.5,22.5,7.5,7.5,10.0,10.04987562112089,10.0,34.0,26.0,42.04759208325728
232,232,17.029386365926403,64.38167441127949,8.0,12.041594578792296,17.029386365926403,18.027756377319946,19.1049731745428,56.142675390472796,44.10215414239989,35.5,32.0,39.0,16.5,20.5,6.5,7.5,10.04987562112089,10.0,10.0,35.0,27.0,41.048751503547585
233,233,10.04987562112089,60.207972893961475,10.0,13.038404810405298,16.0312195418814,18.110770276274835,20.09975124224178,53.150729063673246,40.11234224026316,35.0,33.0,38.0,15.5,17.5,2.5,5.5,11.045361017187261,11.045361017187261,11.0,35.0,27.0,41.048751503547585
234,234,3.0,61.204574992397426,11.0,12.041594578792296,15.0,17.029386365926403,21.095023109728988,47.095647357266465,35.05709628591621,33.5,32.0,37.0,13.5,12.5,1.5,2.5,11.045361017187261,10.04987562112089,10.5,35.0,28.0,40.049968789001575
235,235,0.0,61.1310068623117,11.045361017187261,13.038404810405298,16.0312195418814,17.029386365926403,22.02271554554524,46.09772228646444,33.06055050963308,33.0,33.0,37.0,13.0,11.0,3.0,2.0,12.041594578792296,11.045361017187261,11.0,35.0,28.0,40.049968789001575
236,236,1.0,61.204574992397426,10.04987562112089,13.038404810405298,15.132745950421556,16.0312195418814,22.02271554554524,46.09772228646444,33.06055050963308,32.5,32.0,37.0,12.5,11.5,2.5,1.5,12.041594578792296,11.045361017187261,11.0,35.0,28.0,39.05124837953327
237,237,1.4142135623730951,62.12889826803627,11.0,14.035668847618199,15.033296378372908,16.0312195418814,22.090722034374522,48.16637831516918,34.132096331752024,33.5,32.0,36.0,12.0,14.0,1.0,1.0,11.045361017187261,10.04987562112089,10.5,35.0,27.0,41.10960958218893
238,238,8.0,62.20128616033595,11.0,13.038404810405298,16.0312195418814,17.029386365926403,21.095023109728988,53.08483775994799,40.049968789001575,36.0,32.0,37.0,13.5,18.5,3.5,2.5,12.041594578792296,11.045361017187261,11.0,35.0,27.0,39.05124837953327
239,239,14.0,62.289646009589745,10.04987562112089,13.038404810405298,18.027756377319946,19.1049731745428,21.02379604162864,58.077534382926416,45.044422518220834,38.0,34.0,40.0,16.0,21.0,6.0,6.0,11.045361017187261,10.04987562112089,10.0,36.0,28.0,41.048751503547585
240,240,18.0,62.289646009589745,10.0,13.038404810405298,17.029386365926403,19.1049731745428,20.09975124224178,61.07372593840988,48.041648597857254,39.0,36.0,42.0,19.0,22.0,7.0,9.0,11.045361017187261,10.0,10.5,35.0,26.0,42.04759208325728
241,241,20.0,64.28063471995279,9.0,14.035668847618199,17.11724276862369,19.1049731745428,19.1049731745428,62.07253821135398,48.041648597857254,38.0,34.0,40.0,18.0,25.0,9.0,8.0,10.04987562112089,10.04987562112089,10.5,35.0,26.0,42.04759208325728
242,242,20.0,64.28063471995279,10.04987562112089,14.0,16.0312195418814,18.110770276274835,18.027756377319946,62.03224967708329,48.041648597857254,38.0,34.0,40.0,19.0,25.0,9.0,9.0,10.0,10.04987562112089,10.5,35.0,26.0,41.048751503547585
243,243,21.0,64.38167441127949,9.0,12.041594578792296,17.11724276862369,19.1049731745428,19.1049731745428,61.07372593840988,49.040799340956916,38.5,33.0,40.0,17.5,24.5,10.5,7.5,10.04987562112089,10.04987562112089,10.0,34.0,26.0,42.1070065428546
244,244,21.0,64.28063471995279,9.0,13.038404810405298,17.11724276862369,19.1049731745428,18.110770276274835,61.07372593840988,48.041648597857254,37.5,33.0,39.0,18.0,25.0,10.0,8.0,6.082762530298219,7.0710678118654755,7.0,35.0,28.0,42.1070065428546
245,245,22.02271554554524,64.19501538281614,8.06225774829855,12.165525060596439,17.029386365926403,19.1049731745428,19.026297590440446,61.07372593840988,49.01020301937138,38.0,34.0,39.0,17.5,24.5,10.5,8.5,5.0,5.0990195135927845,5.0,37.0,29.0,42.1070065428546
246,246,20.0,63.198101237299845,9.0,12.041594578792296,17.029386365926403,19.1049731745428,18.027756377319946,59.033888572581766,47.01063709417264,37.0,33.0,38.0,17.5,23.5,9.5,8.5,5.0,5.0990195135927845,5.0,38.0,30.0,41.048751503547585
247,247,18.0,63.198101237299845,8.06225774829855,13.038404810405298,18.027756377319946,19.026297590440446,19.026297590440446,58.077534382926416,45.044422518220834,36.0,31.0,36.0,14.5,24.5,9.5,6.5,5.0990195135927845,4.123105625617661,4.5,38.0,30.0,41.10960958218893
248,248,12.0,60.13318551349163,9.055385138137417,14.035668847618199,16.0312195418814,17.11724276862369,20.024984394500787,55.08175741568164,41.048751503547585,35.0,32.0,36.0,14.0,21.0,5.0,5.0,7.0,7.0710678118654755,6.5,37.0,30.0,42.1070065428546
249,249,7.0,56.32051136131489,10.0,14.035668847618199,15.033296378372908,17.11724276862369,21.095023109728988,52.08646657242167,38.05259518088089,34.5,32.0,38.0,14.0,17.0,1.0,4.0,7.0710678118654755,6.082762530298219,6.5,37.0,30.0,42.1070065428546
250,250,4.0,54.147945482723536,11.0,15.033296378372908,15.033296378372908,17.11724276862369,22.090722034374522,52.08646657242167,37.05401462729781,35.0,34.0,38.0,14.0,16.0,1.0,3.0,9.055385138137417,8.06225774829855,8.5,37.0,31.0,43.04648650006177
251,251,3.0,53.23532661682466,11.045361017187261,15.0,15.033296378372908,16.1245154965971,21.095023109728988,50.08991914547278,35.12833614050059,33.5,33.0,38.0,14.5,14.5,2.5,3.5,9.055385138137417,8.06225774829855,8.5,36.0,31.0,43.04648650006177
252,252,3.0,52.08646657242167,11.0,14.035668847618199,13.038404810405298,15.132745950421556,21.02379604162864,49.040799340956916,35.014282800023196,33.5,33.0,36.0,13.5,14.5,1.5,2.5,9.0,9.055385138137417,9.0,36.0,31.0,42.01190307520001
253,253,2.0,55.14526271584895,10.04987562112089,13.038404810405298,14.035668847618199,15.132745950421556,20.024984394500787,45.09988913511872,32.0624390837628,31.0,31.0,35.0,13.0,12.0,3.0,3.0,10.0,10.04987562112089,10.0,35.0,30.0,41.048751503547585
254,254,1.4142135623730951,56.08029957123981,10.0,13.0,14.035668847618199,16.0312195418814,20.024984394500787,44.04543109109048,31.064449134018133,30.5,31.0,34.0,12.5,11.5,2.5,2.5,10.04987562112089,10.04987562112089,9.5,34.0,29.0,41.048751503547585
255,255,2.0,59.07622195096772,11.045361017187261,13.0,15.033296378372908,16.0,19.0,45.0111097397076,32.01562118716424,31.0,31.0,34.0,13.5,12.5,1.5,2.5,10.04987562112089,9.055385138137417,9.0,33.0,28.0,41.048751503547585
256,256,9.0,63.12685640834652,10.0,12.041594578792296,16.0312195418814,18.027756377319946,18.027756377319946,49.040799340956916,37.013511046643494,32.5,32.0,36.0,16.0,15.0,2.0,6.0,9.055385138137417,10.04987562112089,10.0,33.0,28.0,41.012193308819754
257,257,15.0,63.12685640834652,10.04987562112089,14.035668847618199,17.029386365926403,18.027756377319946,17.0,56.0357029044876,42.01190307520001,34.5,34.0,38.0,19.0,20.0,5.0,8.0,10.04987562112089,10.0,10.0,32.0,27.0,41.012193308819754
258,258,16.0,61.29437168288782,10.0,14.035668847618199,16.0312195418814,17.11724276862369,17.029386365926403,57.0350769263968,43.01162633521314,35.0,34.0,40.0,20.0,20.0,5.0,9.0,10.04987562112089,9.055385138137417,9.0,33.0,28.0,41.012193308819754
259,259,5.0990195135927845,60.207972893961475,11.0,13.038404810405298,15.033296378372908,16.1245154965971,20.09975124224178,49.16299421312742,36.124783736376884,33.5,33.0,38.0,15.5,13.5,0.5,4.5,10.04987562112089,10.04987562112089,10.0,33.0,28.0,41.048751503547585
260,260,0.0,58.077534382926416,11.045361017187261,12.041594578792296,14.035668847618199,15.132745950421556,21.095023109728988,44.181444068749045,32.14031735997639,32.0,33.0,36.0,13.5,9.5,3.5,2.5,10.0,10.04987562112089,10.5,33.0,27.0,41.048751503547585
261,261,1.0,57.07889277132134,11.0,13.038404810405298,15.033296378372908,16.0312195418814,21.095023109728988,45.17742799230607,32.14031735997639,32.0,33.0,36.0,13.5,10.5,3.5,2.5,10.04987562112089,10.04987562112089,10.0,35.0,29.0,42.01190307520001
262,262,3.0,58.137767414994535,10.0,14.035668847618199,16.0312195418814,18.027756377319946,21.095023109728988,48.093658625644196,34.058772731852805,32.5,32.0,36.0,13.0,14.0,1.0,3.0,10.04987562112089,9.055385138137417,9.5,34.0,29.0,41.012193308819754
263,263,5.0990195135927845,58.137767414994535,10.0,13.0,17.029386365926403,18.027756377319946,19.1049731745428,47.095647357266465,34.132096331752024,31.5,32.0,36.0,15.0,13.0,1.0,5.0,11.045361017187261,10.04987562112089,10.0,34.0,30.0,42.0
264,264,3.0,59.07622195096772,10.0,13.038404810405298,16.0,16.0312195418814,18.110770276274835,44.10215414239989,31.064449134018133,29.5,31.0,34.0,14.5,11.5,2.5,4.5,10.0,10.04987562112089,10.0,33.0,30.0,42.01190307520001
265,265,2.0,57.0350769263968,10.0,13.0,16.0,17.0,18.110770276274835,43.04648650006177,30.066592756745816,29.0,30.0,32.0,13.0,12.0,2.0,4.0,11.045361017187261,11.045361017187261,11.0,34.0,30.0,41.012193308819754
266,266,2.0,57.0087712549569,10.0,13.038404810405298,16.0312195418814,16.0312195418814,18.110770276274835,43.104524124504614,30.066592756745816,29.0,31.0,32.0,13.5,11.5,2.5,3.5,11.045361017187261,10.04987562112089,10.0,34.0,31.0,42.04759208325728
267,267,4.0,57.0087712549569,9.0,14.035668847618199,15.033296378372908,17.029386365926403,19.1049731745428,46.09772228646444,32.0624390837628,30.0,32.0,33.0,13.5,13.5,1.5,4.5,7.0710678118654755,7.0,7.0,33.0,30.0,43.01162633521314
268,268,7.0710678118654755,59.033888572581766,8.0,14.035668847618199,16.0,17.0,20.024984394500787,49.09175083453431,35.05709628591621,31.5,32.0,34.0,13.0,16.0,2.0,5.0,4.0,4.0,4.5,35.0,33.0,43.01162633521314
269,269,11.045361017187261,60.03332407921454,7.0,13.0,16.0,17.0,20.024984394500787,51.03920062069938,38.05259518088089,32.5,34.0,36.0,15.0,16.0,2.0,8.0,4.0,4.47213595499958,4.5,30.0,26.0,34.058772731852805
270,270,11.0,61.07372593840988,8.0,13.038404810405298,16.0312195418814,18.027756377319946,19.026297590440446,51.03920062069938,38.01315561749642,32.5,32.0,35.0,14.5,17.5,2.5,6.5,6.0,5.0990195135927845,5.5,30.0,26.0,33.06055050963308
271,271,9.0,64.07027391856539,9.055385138137417,15.033296378372908,17.029386365926403,17.029386365926403,19.0,52.03844732503075,37.013511046643494,32.5,32.0,35.0,14.5,18.5,3.5,5.5,7.0710678118654755,6.0,6.5,35.0,33.0,46.010868281309364
272,272,11.0,64.1248781675256,9.0,14.035668847618199,17.0,18.027756377319946,19.0,53.009433122794285,39.0,33.5,33.0,37.0,16.0,18.0,3.0,7.0,8.06225774829855,8.06225774829855,8.5,35.0,33.0,45.0111097397076
273,273,12.0,63.071388124885914,9.0,15.0,16.0,17.0,19.026297590440446,55.00909015790027,40.01249804748511,34.0,34.0,37.0,16.5,19.5,3.5,7.5,9.055385138137417,9.055385138137417,9.0,35.0,34.0,46.010868281309364
274,274,15.0,63.071388124885914,8.0,13.038404810405298,17.0,19.026297590440446,19.026297590440446,55.036351623268054,42.01190307520001,34.5,34.0,37.0,16.5,19.5,5.5,8.5,10.04987562112089,9.0,10.0,35.0,34.0,44.0
275,275,11.0,61.07372593840988,9.0,15.0,16.0,17.029386365926403,19.026297590440446,54.00925846556311,39.01281840626232,33.5,34.0,37.0,16.5,18.5,2.5,7.5,10.0,9.055385138137417,10.0,35.0,34.0,45.0111097397076
276,276,10.0,64.07027391856539,9.0,14.035668847618199,16.0312195418814,17.029386365926403,19.026297590440446,52.03844732503075,38.01315561749642,33.0,33.0,36.0,15.5,17.5,2.5,6.5,11.045361017187261,10.04987562112089,10.5,35.0,34.0,46.0
277,277,11.0,63.0317380372777,8.0,12.041594578792296,17.0,18.027756377319946,20.024984394500787,51.03920062069938,39.01281840626232,33.5,34.0,36.0,15.0,16.0,3.0,7.0,11.045361017187261,11.0,11.0,36.0,34.0,47.0
278,278,10.0,64.07027391856539,8.0,11.045361017187261,17.029386365926403,18.027756377319946,19.0,48.010415536631214,37.0,32.0,32.0,35.0,14.5,14.5,2.5,5.5,10.04987562112089,11.0,11.0,35.0,34.0,47.01063709417264
279,279,9.0,65.12296062065974,9.0,12.041594578792296,16.0312195418814,18.027756377319946,19.026297590440446,49.040799340956916,37.013511046643494,32.5,32.0,36.0,15.0,15.0,2.0,6.0,11.045361017187261,10.0,11.0,35.0,33.0,46.010868281309364
280,280,9.0,65.06919393998976,9.0,12.041594578792296,17.0,18.027756377319946,19.026297590440446,49.040799340956916,37.013511046643494,32.5,32.0,35.0,14.5,15.5,2.5,5.5,11.045361017187261,11.0,11.5,35.0,34.0,46.0
281,281,9.055385138137417,65.06919393998976,9.0,12.0,17.0,18.027756377319946,19.026297590440446,49.040799340956916,37.05401462729781,32.5,32.0,35.0,14.5,15.5,2.5,5.5,11.045361017187261,11.0,11.5,36.0,34.0,46.010868281309364
282,282,9.055385138137417,66.03029607687671,8.06225774829855,12.041594578792296,17.029386365926403,18.027756377319946,20.024984394500787,49.040799340956916,37.013511046643494,32.5,33.0,35.0,14.0,15.0,2.0,5.0,11.045361017187261,12.0,12.0,35.0,33.0,46.010868281309364
283,283,9.0,66.06814663663572,8.0,12.0,18.027756377319946,19.026297590440446,19.026297590440446,48.010415536631214,36.013886210738214,31.5,31.0,34.0,13.5,15.5,2.5,4.5,11.045361017187261,11.0,11.5,36.0,35.0,47.0
284,284,9.0,67.06713054842886,9.0,12.0,18.0,19.026297590440446,19.026297590440446,49.01020301937138,37.013511046643494,32.5,32.0,35.0,14.5,15.5,2.5,5.5,12.041594578792296,12.0,12.0,36.0,34.0,45.0
285,285,10.0,65.03076195155643,8.06225774829855,12.0,17.029386365926403,18.027756377319946,20.0,50.00999900019995,38.01315561749642,33.0,33.0,35.0,14.0,16.0,3.0,6.0,11.0,11.0,11.5,36.0,35.0,48.0
286,286,12.0,64.03124237432849,9.0,13.0,18.027756377319946,18.027756377319946,19.026297590440446,53.009433122794285,40.01249804748511,34.0,35.0,37.0,17.0,17.0,3.0,7.0,12.041594578792296,11.0,11.5,36.0,35.0,48.0
287,287,14.0,65.06919393998976,8.0,14.0,17.029386365926403,19.026297590440446,19.0,55.0,41.0,34.0,34.0,37.0,16.5,19.5,4.5,7.5,11.045361017187261,11.0,11.0,35.0,35.0,46.0
288,288,13.038404810405298,66.03029607687671,10.0,14.0,18.0,20.024984394500787,19.0,56.00892785976178,42.01190307520001,35.5,36.0,38.0,18.0,19.0,4.0,8.0,12.0,11.045361017187261,11.0,35.0,35.0,49.0
289,289,11.0,65.00769185258002,9.055385138137417,15.033296378372908,19.0,20.0,19.0,54.037024344425184,39.01281840626232,33.5,35.0,36.0,16.5,18.5,2.5,7.5,8.06225774829855,9.0,9.0,35.0,36.0,49.01020301937138
290,290,12.041594578792296,65.00769185258002,8.0,13.0,18.0,20.0,19.0,52.009614495783374,39.01281840626232,33.0,34.0,35.0,15.5,17.5,3.5,7.5,5.0,6.0,5.5,29.0,31.0,36.0
291,291,10.0,65.0,7.0710678118654755,13.038404810405298,18.0,19.026297590440446,20.024984394500787,50.00999900019995,37.0,32.0,33.0,33.0,13.0,17.0,3.0,6.0,5.0990195135927845,5.0,5.0,29.0,30.0,32.0
292,292,9.055385138137417,64.00781202322104,7.0,13.0,18.0,20.0,20.0,49.01020301937138,36.013886210738214,31.5,31.0,32.0,11.5,17.5,3.5,4.5,6.082762530298219,7.0,7.0,28.0,29.0,34.0147027033899
293,293,8.0,64.0,8.0,13.0,19.026297590440446,19.026297590440446,19.0,48.0,35.0,31.0,30.0,30.0,11.0,18.0,4.0,4.0,8.06225774829855,7.0,7.0,28.0,27.0,34.0
294,294,8.06225774829855,65.0,7.0,14.0,18.0,19.0,20.0,49.01020301937138,35.014282800023196,31.0,30.0,30.0,10.0,19.0,5.0,3.0,10.0,9.0,9.0,36.0,33.0,45.0
295,295,9.055385138137417,65.0,8.0,14.0,17.029386365926403,18.0,19.0,50.00999900019995,36.013886210738214,31.5,30.0,30.0,11.0,20.0,5.0,4.0,10.0,10.04987562112089,10.0,37.0,38.0,49.0
296,296,11.045361017187261,65.00769185258002,7.0,13.0,18.0,19.0,20.024984394500787,51.03920062069938,38.05259518088089,32.5,30.0,29.0,9.5,21.5,7.5,3.5,10.0,10.0,10.0,30.0,29.0,38.0
297,297,11.045361017187261,65.00769185258002,7.0,14.0,18.027756377319946,19.026297590440446,19.026297590440446,51.03920062069938,37.05401462729781,31.5,30.0,29.0,10.5,21.5,6.5,4.5,11.0,10.04987562112089,10.5,30.0,30.0,38.01315561749642
298,298,13.038404810405298,66.007575322837,7.0,13.038404810405298,17.0,18.027756377319946,19.0,52.03844732503075,39.01281840626232,32.5,30.0,29.0,10.5,22.5,8.5,3.5,10.0,10.04987562112089,10.0,30.0,31.0,39.01281840626232
299,299,12.0,65.0,7.0710678118654755,14.035668847618199,17.0,18.0,19.0,52.03844732503075,38.01315561749642,32.0,29.0,29.0,10.0,23.0,8.0,3.0,11.0,11.045361017187261,11.0,32.0,32.0,40.01249804748511
300,300,10.0,63.00793600809346,7.0,13.038404810405298,17.029386365926403,18.027756377319946,20.024984394500787,50.039984012787215,37.013511046643494,32.0,30.0,29.0,9.5,20.5,6.5,3.5,12.0,11.180339887498949,11.0,31.0,31.0,40.01249804748511
301,301,8.06225774829855,62.00806399170998,7.0,14.0,17.0,18.027756377319946,20.0,49.01020301937138,35.014282800023196,31.0,30.0,29.0,9.5,19.5,4.5,2.5,12.0,11.045361017187261,11.5,29.0,30.0,37.013511046643494
302,302,2.0,61.00819617067857,9.0,15.0,16.0,17.029386365926403,20.024984394500787,46.010868281309364,31.016124838541646,30.0,30.0,29.0,9.5,16.5,0.5,1.5,11.0,11.045361017187261,11.5,35.0,38.0,45.0111097397076
303,303,2.0,61.00819617067857,9.0,14.0,16.0312195418814,16.0312195418814,20.0,45.0,31.0,30.0,30.0,29.0,9.5,15.5,0.5,1.5,11.0,11.045361017187261,11.0,34.0,37.0,44.01136216933077
304,304,2.0,59.00847396772772,9.0,14.0,16.0,17.0,20.0,45.0,31.0,30.0,29.0,28.0,8.5,16.5,1.5,0.5,11.0,11.045361017187261,11.0,33.0,36.0,43.01162633521314
305,305,3.0,59.033888572581766,9.0,15.033296378372908,15.0,17.029386365926403,20.0,47.01063709417264,32.0,30.5,31.0,29.0,10.0,17.0,1.0,1.0,12.0,11.045361017187261,11.5,33.0,37.0,45.044422518220834
306,306,4.0,59.033888572581766,9.0,14.035668847618199,16.0312195418814,17.0,20.0,47.01063709417264,33.0,31.0,31.0,29.0,10.0,17.0,2.0,2.0,12.041594578792296,12.041594578792296,12.5,32.0,38.0,44.04543109109048
307,307,4.123105625617661,57.0350769263968,9.0,15.033296378372908,16.0,17.029386365926403,20.0,48.041648597857254,33.015148038438355,31.0,31.0,29.0,10.0,18.0,2.0,2.0,12.041594578792296,11.180339887498949,11.5,32.0,38.0,44.01136216933077
308,308,4.0,55.036351623268054,9.0,14.035668847618199,14.035668847618199,16.0,21.02379604162864,48.041648597857254,34.0147027033899,32.0,32.0,30.0,10.0,17.0,2.0,2.0,11.0,11.045361017187261,11.5,32.0,38.0,45.044422518220834
309,309,3.0,56.08029957123981,10.04987562112089,14.035668847618199,15.0,16.0312195418814,20.024984394500787,47.01063709417264,33.0,31.5,32.0,29.0,10.5,16.5,1.5,1.5,11.0,11.045361017187261,11.5,32.0,38.0,43.04648650006177
310,310,4.123105625617661,56.08029957123981,9.0,14.0,14.035668847618199,16.0,21.0,48.010415536631214,34.0147027033899,32.0,32.0,29.0,9.5,17.5,2.5,1.5,12.0,11.180339887498949,11.5,33.0,38.0,44.04543109109048
311,311,3.1622776601683795,57.14017850864661,10.0,15.033296378372908,15.0,16.0,20.0,48.041648597857254,33.015148038438355,31.5,32.0,28.0,10.0,18.0,2.0,1.0,10.0,11.180339887498949,11.0,32.0,38.0,44.10215414239989
312,312,4.0,56.142675390472796,9.055385138137417,16.0312195418814,14.0,16.0312195418814,20.0,49.040799340956916,33.015148038438355,31.0,33.0,29.0,11.0,18.0,2.0,2.0,11.045361017187261,10.04987562112089,10.5,31.0,38.0,44.04543109109048
313,313,6.082762530298219,58.137767414994535,9.0,16.0312195418814,15.0,17.029386365926403,19.0,50.039984012787215,34.0147027033899,31.0,32.0,28.0,11.0,20.0,3.0,2.0,11.0,10.198039027185569,10.5,30.0,37.0,44.04543109109048
314,314,9.0,58.215118311311535,8.06225774829855,16.1245154965971,15.033296378372908,17.11724276862369,19.026297590440446,52.15361924162119,36.05551275463989,31.5,34.0,29.0,12.5,20.5,4.5,4.5,10.04987562112089,9.219544457292887,9.0,28.0,36.0,42.1070065428546
315,315,10.0,59.21148537234985,8.06225774829855,15.132745950421556,15.033296378372908,17.029386365926403,18.027756377319946,51.15662224971465,36.05551275463989,31.0,33.0,28.0,12.5,20.5,5.5,5.5,9.219544457292887,8.06225774829855,8.5,27.0,36.0,42.190046219457976
316,316,14.035668847618199,61.29437168288782,7.0710678118654755,13.152946437965905,16.1245154965971,18.110770276274835,19.026297590440446,53.23532661682466,40.11234224026316,33.0,34.0,28.0,12.0,22.0,8.0,7.0,8.06225774829855,8.06225774829855,8.0,26.0,37.0,43.18564576337837
317,317,15.033296378372908,63.387695966961914,7.0710678118654755,13.152946437965905,16.0312195418814,18.110770276274835,17.11724276862369,52.3450093132096,39.20459156782532,31.5,33.0,26.0,12.5,22.5,9.5,6.5,9.219544457292887,8.246211251235321,7.5,25.0,36.0,42.190046219457976
318,318,16.0312195418814,64.4980619863884,6.082762530298219,12.165525060596439,16.1245154965971,18.110770276274835,18.110770276274835,52.3450093132096,40.19950248448356,32.0,34.0,26.0,12.0,22.0,10.0,7.0,8.246211251235321,7.280109889280518,7.5,26.0,37.0,42.190046219457976
319,319,16.1245154965971,66.61080993352356,7.0710678118654755,12.165525060596439,17.26267650163207,19.235384061671343,18.110770276274835,53.46026561849464,41.30375285612676,33.0,34.0,25.0,11.5,23.5,11.5,6.5,8.246211251235321,8.246211251235321,8.0,23.0,36.0,41.30375285612676
320,320,15.132745950421556,67.60177512462228,7.0710678118654755,12.165525060596439,17.26267650163207,19.235384061671343,18.110770276274835,52.46903848937962,40.311288741492746,32.5,33.0,24.0,10.5,23.5,11.5,5.5,9.055385138137417,8.246211251235321,8.0,23.0,37.0,40.19950248448356
321,321,15.132745950421556,68.59300255857006,7.0710678118654755,11.180339887498949,17.11724276862369,19.1049731745428,18.110770276274835,51.478150704935004,40.311288741492746,32.5,32.0,23.0,9.5,23.5,12.5,4.5,9.219544457292887,7.280109889280518,7.5,24.0,37.0,41.19465984809196
322,322,16.0312195418814,68.46897107449476,7.0710678118654755,11.40175425099138,18.24828759089466,19.1049731745428,17.11724276862369,51.478150704935004,40.19950248448356,32.0,31.0,23.0,10.0,24.0,13.0,5.0,9.055385138137417,8.246211251235321,8.5,24.0,37.0,40.19950248448356
323,323,17.11724276862369,67.47592163134935,7.0710678118654755,11.180339887498949,18.110770276274835,19.1049731745428,16.1245154965971,51.478150704935004,40.311288741492746,31.5,30.0,22.0,10.0,25.0,13.0,5.0,9.055385138137417,8.246211251235321,8.5,25.0,37.0,40.19950248448356
324,324,17.029386365926403,68.46897107449476,7.0710678118654755,12.165525060596439,18.110770276274835,20.09975124224178,16.1245154965971,52.3450093132096,40.19950248448356,31.5,30.0,22.0,10.0,26.0,14.0,5.0,9.055385138137417,8.246211251235321,8.5,25.0,37.0,41.19465984809196
325,325,18.110770276274835,67.26812023536856,6.082762530298219,12.041594578792296,18.027756377319946,19.1049731745428,17.029386365926403,53.23532661682466,41.19465984809196,32.0,29.0,23.0,9.0,27.0,14.0,4.0,10.04987562112089,9.219544457292887,9.5,25.0,36.0,40.11234224026316
326,326,18.110770276274835,67.26812023536856,6.082762530298219,12.041594578792296,18.110770276274835,19.1049731745428,17.029386365926403,53.23532661682466,41.19465984809196,32.0,29.0,23.0,9.0,27.0,14.0,5.0,10.04987562112089,9.219544457292887,9.0,26.0,36.0,41.10960958218893
327,327,16.1245154965971,65.19202405202648,6.082762530298219,13.038404810405298,18.027756377319946,20.024984394500787,18.110770276274835,53.33854141237835,40.311288741492746,32.0,29.0,24.0,8.5,26.5,12.5,3.5,10.04987562112089,9.219544457292887,9.0,26.0,36.0,40.11234224026316
328,328,13.038404810405298,63.198101237299845,6.082762530298219,13.152946437965905,16.1245154965971,17.029386365926403,19.1049731745428,51.35172830587107,38.2099463490856,31.5,28.0,23.0,6.5,25.5,11.5,1.5,10.04987562112089,10.198039027185569,10.0,26.0,36.0,40.19950248448356
329,329,8.06225774829855,61.1310068623117,7.0710678118654755,13.038404810405298,16.0312195418814,17.029386365926403,20.024984394500787,48.16637831516918,35.12833614050059,31.0,28.0,24.0,6.0,22.0,8.0,0.0,11.0,10.198039027185569,10.0,26.0,36.0,39.20459156782532
330,330,5.0990195135927845,59.30430001273095,8.0,14.035668847618199,14.035668847618199,16.0312195418814,21.095023109728988,48.16637831516918,34.132096331752024,31.5,31.0,25.0,7.0,20.0,5.0,0.0,11.0,10.198039027185569,10.0,27.0,35.0,38.2099463490856
331,331,4.0,57.14017850864661,8.06225774829855,14.142135623730951,14.035668847618199,15.033296378372908,21.095023109728988,47.265209192385896,33.13608305156178,31.0,30.0,26.0,7.0,19.0,4.0,0.0,11.045361017187261,10.198039027185569,10.5,27.0,35.0,40.11234224026316
332,332,3.0,54.147945482723536,9.055385138137417,14.035668847618199,13.038404810405298,15.033296378372908,21.02379604162864,47.095647357266465,33.06055050963308,31.5,31.0,27.0,8.0,18.0,3.0,0.0,10.04987562112089,9.219544457292887,9.5,27.0,35.0,40.11234224026316
333,333,3.0,55.14526271584895,9.055385138137417,15.033296378372908,14.035668847618199,15.033296378372908,21.02379604162864,48.093658625644196,33.06055050963308,31.5,32.0,28.0,9.0,18.0,2.0,1.0,10.04987562112089,10.198039027185569,10.0,27.0,35.0,40.11234224026316
334,334,3.1622776601683795,56.142675390472796,9.0,15.033296378372908,13.038404810405298,15.033296378372908,21.02379604162864,48.093658625644196,33.06055050963308,31.5,32.0,28.0,9.0,18.0,2.0,1.0,11.045361017187261,10.198039027185569,10.5,27.0,35.0,40.11234224026316
335,335,2.0,55.14526271584895,10.0,15.033296378372908,14.035668847618199,15.033296378372908,21.02379604162864,48.041648597857254,33.015148038438355,32.0,32.0,28.0,9.0,18.0,2.0,1.0,11.0,10.04987562112089,10.0,27.0,35.0,39.20459156782532
336,336,4.0,56.142675390472796,9.055385138137417,14.035668847618199,15.033296378372908,16.1245154965971,22.02271554554524,49.09175083453431,35.05709628591621,33.0,33.0,29.0,9.0,18.0,3.0,1.0,11.045361017187261,10.198039027185569,10.5,27.0,34.0,40.11234224026316
337,337,7.0,57.14017850864661,9.055385138137417,14.035668847618199,15.033296378372908,17.029386365926403,20.024984394500787,50.08991914547278,36.05551275463989,32.5,33.0,29.0,11.0,19.0,4.0,3.0,10.04987562112089,10.198039027185569,10.0,28.0,35.0,40.11234224026316
338,338,8.06225774829855,61.032778078668514,9.055385138137417,15.033296378372908,16.0312195418814,17.029386365926403,20.0,52.08646657242167,37.05401462729781,33.0,32.0,30.0,11.0,21.0,5.0,3.0,10.04987562112089,10.04987562112089,10.0,28.0,34.0,40.049968789001575
339,339,10.04987562112089,63.071388124885914,9.055385138137417,15.033296378372908,16.0312195418814,18.027756377319946,19.0,53.08483775994799,38.05259518088089,33.0,33.0,30.0,12.5,21.5,5.5,4.5,11.0,10.04987562112089,10.0,28.0,34.0,39.01281840626232
340,340,13.038404810405298,63.071388124885914,8.06225774829855,13.038404810405298,17.029386365926403,18.027756377319946,19.0,53.08483775994799,40.049968789001575,33.5,34.0,31.0,13.5,20.5,6.5,6.5,12.041594578792296,11.045361017187261,11.0,28.0,33.0,40.049968789001575
341,341,12.041594578792296,65.03076195155643,8.0,15.033296378372908,17.0,19.026297590440446,18.027756377319946,53.08483775994799,38.05259518088089,32.0,32.0,30.0,13.0,22.0,6.0,5.0,12.041594578792296,10.04987562112089,10.5,28.0,32.0,41.048751503547585
342,342,11.0,64.00781202322104,8.06225774829855,14.035668847618199,17.0,18.0,19.0,52.03844732503075,38.01315561749642,32.5,32.0,31.0,12.5,20.5,5.5,4.5,12.041594578792296,10.0,10.5,28.0,32.0,41.048751503547585
343,343,5.0,62.0,9.055385138137417,12.041594578792296,16.0,17.0,21.02379604162864,47.01063709417264,35.0,32.5,32.0,32.0,11.0,15.0,2.0,2.0,10.0,10.04987562112089,10.0,29.0,32.0,41.012193308819754
344,344,1.0,61.00819617067857,10.0,12.041594578792296,16.0312195418814,17.0,21.02379604162864,42.04759208325728,30.01666203960727,30.5,32.0,31.0,10.5,10.5,1.5,1.5,11.0,11.0,10.5,30.0,32.0,40.0
345,345,0.0,61.0,10.0,12.0,16.0,17.0,22.02271554554524,44.01136216933077,32.01562118716424,32.0,33.0,33.0,11.0,11.0,2.0,1.0,11.045361017187261,11.045361017187261,10.5,31.0,33.0,41.0
346,346,7.0,63.0317380372777,10.04987562112089,14.035668847618199,18.0,19.0,21.0,52.03844732503075,38.01315561749642,34.5,33.0,35.0,13.0,18.0,3.0,3.0,11.0,10.04987562112089,10.0,32.0,34.0,42.0
347,347,14.035668847618199,63.00793600809346,10.0,14.0,18.0,20.0,19.026297590440446,57.0350769263968,43.04648650006177,36.0,35.0,36.0,16.5,21.5,6.5,6.5,7.0710678118654755,6.0,6.5,33.0,34.0,45.0111097397076
348,348,16.0,65.00769185258002,9.0,13.038404810405298,19.0,21.0,19.026297590440446,57.0350769263968,44.01136216933077,36.0,34.0,35.0,15.5,22.5,8.5,6.5,5.0990195135927845,5.0,5.5,32.0,34.0,39.0
349,349,18.0,65.0,8.0,12.0,19.026297590440446,21.0,19.026297590440446,57.0087712549569,45.0111097397076,36.0,33.0,33.0,14.0,24.0,11.0,7.0,5.0,5.0,5.0,29.0,30.0,36.013886210738214
350,350,15.0,67.0,9.0,14.0,19.026297590440446,21.0,19.026297590440446,57.0087712549569,43.01162633521314,35.5,33.0,33.0,14.0,24.0,9.0,6.0,6.082762530298219,6.0,5.5,33.0,31.0,40.0
351,351,17.0,66.0,9.0,13.038404810405298,18.027756377319946,20.0,18.027756377319946,57.0350769263968,44.01136216933077,35.5,33.0,33.0,15.0,24.0,9.0,7.0,9.0,8.0,8.5,33.0,31.0,43.0
352,352,17.0,67.00746227100382,9.0,14.0,19.0,20.024984394500787,19.0,59.0,45.0,36.5,33.0,34.0,14.5,25.5,9.5,6.5,9.0,8.0,8.5,33.0,32.0,44.01136216933077
353,353,19.0,66.007575322837,8.0,12.041594578792296,19.0,21.0,20.0,59.00847396772772,47.0,37.5,33.0,34.0,13.5,25.5,11.5,5.5,9.0,9.0,9.0,35.0,34.0,46.010868281309364
354,354,17.0,66.06814663663572,9.055385138137417,13.0,19.026297590440446,20.0,19.0,58.008620049092706,45.0111097397076,36.5,32.0,35.0,14.5,24.5,9.5,5.5,10.0,10.0,10.0,35.0,37.0,47.01063709417264
355,355,17.029386365926403,67.06713054842886,8.0,13.0,18.0,19.026297590440446,19.026297590440446,57.0,44.0,35.5,30.0,33.0,12.5,25.5,10.5,4.5,11.0,10.04987562112089,10.0,35.0,36.0,47.01063709417264
356,356,16.0,68.06614430096654,8.0,13.0,18.027756377319946,20.024984394500787,19.0,56.0,43.0,35.0,30.0,33.0,12.5,24.5,10.5,4.5,10.0,11.045361017187261,11.0,35.0,35.0,47.0
357,357,15.0,67.06713054842886,7.0,13.0,17.0,19.026297590440446,20.024984394500787,55.00909015790027,42.01190307520001,34.5,30.0,33.0,11.5,23.5,9.5,4.5,10.0,10.04987562112089,10.0,35.0,35.0,46.0
358,358,13.038404810405298,64.07027391856539,8.0,12.0,18.027756377319946,18.027756377319946,19.026297590440446,52.03844732503075,40.049968789001575,33.5,29.0,32.0,11.5,21.5,7.5,3.5,11.0,10.0,10.5,35.0,34.0,46.010868281309364
359,359,9.0,64.07027391856539,8.0,13.0,17.029386365926403,18.027756377319946,20.09975124224178,50.039984012787215,37.05401462729781,32.5,28.0,31.0,9.5,20.5,6.5,1.5,11.045361017187261,12.0,11.5,35.0,33.0,43.0
360,360,3.0,61.07372593840988,9.055385138137417,14.0,15.0,16.0312195418814,21.02379604162864,47.042533945356304,33.06055050963308,31.5,28.0,31.0,8.5,17.5,2.5,0.5,11.0,11.0,11.0,35.0,33.0,43.0
361,361,2.23606797749979,61.032778078668514,9.0,12.041594578792296,15.033296378372908,16.0312195418814,22.02271554554524,45.09988913511872,33.06055050963308,32.0,29.0,31.0,8.0,15.0,1.0,1.0,11.0,11.0,11.0,35.0,33.0,42.01190307520001
362,362,1.0,60.03332407921454,9.0,13.0,16.0,16.0,22.02271554554524,44.04543109109048,31.064449134018133,31.0,30.0,32.0,9.0,13.0,1.0,1.0,11.045361017187261,11.045361017187261,11.0,35.0,32.0,43.01162633521314
363,363,1.0,61.032778078668514,10.0,13.0,14.0,15.0,20.024984394500787,42.01190307520001,29.017236257093817,29.5,29.0,31.0,10.0,12.0,2.0,1.0,11.0,11.045361017187261,11.5,34.0,32.0,43.01162633521314
364,364,1.4142135623730951,63.0317380372777,10.0,13.0,16.0312195418814,16.0,20.024984394500787,42.04759208325728,29.068883707497267,29.5,29.0,31.0,10.0,12.0,2.0,0.0,11.045361017187261,11.0,11.5,34.0,30.0,41.0
365,365,1.4142135623730951,66.007575322837,10.0,14.0,17.0,18.0,20.024984394500787,43.04648650006177,29.068883707497267,29.5,29.0,30.0,9.5,13.5,1.5,0.5,12.041594578792296,12.0,11.5,33.0,30.0,41.0
366,366,0.0,66.03029607687671,11.0,14.035668847618199,17.0,18.0,20.024984394500787,45.044422518220834,31.016124838541646,31.0,30.0,32.0,11.0,14.0,1.0,1.0,12.041594578792296,11.0,11.0,32.0,29.0,41.012193308819754
367,367,8.0,65.03076195155643,9.055385138137417,14.0,18.0,19.026297590440446,20.024984394500787,51.0,37.0,33.0,30.0,32.0,11.0,20.0,4.0,3.0,11.045361017187261,11.0,11.0,33.0,29.0,41.0
368,368,12.0,64.07027391856539,9.0,15.0,17.0,19.0,19.026297590440446,55.00909015790027,40.01249804748511,34.0,31.0,34.0,13.5,22.5,6.5,5.5,11.045361017187261,11.0,11.5,33.0,30.0,41.012193308819754
369,369,11.0,63.12685640834652,9.0,14.0,17.0,19.0,20.024984394500787,54.00925846556311,40.01249804748511,34.5,31.0,35.0,13.0,21.0,6.0,4.0,11.0,11.0,11.0,33.0,29.0,41.0
370,370,3.1622776601683795,62.03224967708329,10.04987562112089,13.0,17.0,18.027756377319946,21.02379604162864,47.01063709417264,34.0147027033899,32.5,30.0,32.0,10.0,16.0,1.0,0.0,11.045361017187261,11.0,11.0,34.0,30.0,40.0
371,371,1.0,61.032778078668514,9.0,12.0,17.0,17.0,22.02271554554524,44.01136216933077,32.01562118716424,31.5,30.0,32.0,9.0,13.0,0.0,0.0,11.045361017187261,10.0,10.5,33.0,30.0,40.0
372,372,1.0,62.00806399170998,10.0,14.0,16.0312195418814,17.0,21.02379604162864,45.044422518220834,31.064449134018133,31.0,30.0,31.0,9.5,14.5,0.5,0.5,11.0,10.0,10.0,33.0,29.0,41.0
373,373,7.0,62.03224967708329,10.0,14.0,18.0,19.0,20.0,51.0,37.0,33.5,31.0,33.0,12.0,19.0,4.0,2.0,11.045361017187261,11.0,11.0,33.0,30.0,42.0
374,374,10.0,65.03076195155643,9.0,15.0,18.0,19.026297590440446,20.0,54.0,39.0,34.0,31.0,33.0,12.0,22.0,6.0,4.0,11.045361017187261,11.0,11.0,33.0,30.0,42.04759208325728
375,375,11.045361017187261,65.06919393998976,8.0,15.033296378372908,17.0,19.026297590440446,19.026297590440446,53.009433122794285,38.0,32.5,29.0,32.0,11.5,22.5,6.5,3.5,11.045361017187261,11.0,11.0,32.0,29.0,42.0
376,376,10.0,63.0317380372777,7.0,13.0,16.0,18.0,20.0,50.0,37.0,32.0,29.0,31.0,10.0,20.0,6.0,3.0,11.0,11.045361017187261,11.0,33.0,30.0,41.012193308819754
377,377,5.0,62.03224967708329,8.0,13.0,17.0,18.0,19.026297590440446,45.0111097397076,32.01562118716424,29.5,28.0,30.0,10.0,16.0,2.0,2.0,12.041594578792296,11.0,11.0,33.0,30.0,39.0
378,378,2.23606797749979,62.00806399170998,8.0,12.0,15.0,17.029386365926403,20.0,42.01190307520001,30.01666203960727,29.0,28.0,29.0,8.5,13.5,0.5,1.5,11.045361017187261,11.0,11.0,33.0,30.0,40.01249804748511
379,379,3.1622776601683795,62.03224967708329,8.0,13.0,16.0,17.029386365926403,19.0,43.01162633521314,30.01666203960727,28.5,27.0,29.0,9.0,15.0,1.0,1.0,11.045361017187261,10.04987562112089,10.5,32.0,29.0,40.0
380,380,7.0,63.00793600809346,7.0,13.0,15.0,17.0,19.026297590440446,46.010868281309364,33.015148038438355,29.5,28.0,29.0,9.5,17.5,3.5,2.5,11.0,10.0,10.5,31.0,29.0,40.0
381,381,9.0,64.07027391856539,8.0,13.038404810405298,16.0,17.0,19.026297590440446,49.040799340956916,36.013886210738214,31.5,28.0,31.0,10.5,19.5,5.5,3.5,11.0,10.0,10.5,33.0,31.0,39.0
382,382,12.0,65.06919393998976,7.0,12.041594578792296,17.0,18.027756377319946,19.0,50.00999900019995,38.0,32.0,27.0,30.0,9.5,21.5,7.5,3.5,11.045361017187261,10.0,10.5,32.0,30.0,41.0
383,383,12.0,67.02984409947557,7.0,12.0,17.0,18.027756377319946,19.0,50.0,38.0,32.0,28.0,30.0,10.0,21.0,8.0,3.0,11.0,10.0,10.5,32.0,30.0,41.012193308819754
384,384,13.0,66.06814663663572,7.0,12.0,17.029386365926403,19.026297590440446,19.026297590440446,51.0098029794274,39.01281840626232,32.5,28.0,31.0,10.5,21.5,7.5,3.5,11.045361017187261,11.0,11.0,32.0,30.0,40.01249804748511
385,385,14.0,67.06713054842886,7.0,12.0,18.027756377319946,19.026297590440446,18.027756377319946,51.0098029794274,39.01281840626232,32.0,27.0,30.0,10.5,22.5,9.5,3.5,11.045361017187261,11.045361017187261,11.0,31.0,29.0,39.01281840626232
386,386,15.0,68.06614430096654,7.0,12.0,16.0,18.027756377319946,17.029386365926403,51.0098029794274,39.01281840626232,31.5,26.0,29.0,10.5,23.5,9.5,3.5,11.045361017187261,10.0,10.5,32.0,30.0,40.01249804748511
387,387,14.0,68.06614430096654,7.0,12.041594578792296,19.026297590440446,20.024984394500787,18.027756377319946,51.03920062069938,39.01281840626232,32.0,27.0,30.0,10.5,22.5,8.5,3.5,6.0,6.0,6.0,34.0,32.0,41.012193308819754
388,388,13.0,68.06614430096654,7.0,12.041594578792296,19.0,20.024984394500787,18.0,50.00999900019995,38.0,31.5,26.0,29.0,9.5,22.5,8.5,3.5,5.0,5.0,5.0,31.0,29.0,34.0147027033899
389,389,14.0,69.1158447825099,7.0,11.0,19.026297590440446,21.02379604162864,18.027756377319946,50.00999900019995,39.01281840626232,32.0,26.0,30.0,10.0,22.0,9.0,3.0,5.0,5.0,5.0,30.0,26.0,34.0147027033899
390,390,13.0,69.1158447825099,7.0,12.0,19.0,20.09975124224178,18.110770276274835,50.039984012787215,38.05259518088089,31.5,25.0,29.0,9.0,23.0,9.0,3.0,5.0,5.0,5.0,31.0,29.0,36.013886210738214
391,391,14.0,69.18092222571191,7.0,12.0,20.024984394500787,21.095023109728988,17.11724276862369,50.039984012787215,38.05259518088089,31.0,24.0,29.0,9.5,23.5,9.5,2.5,6.0,6.0,5.5,33.0,30.0,36.013886210738214
392,392,15.0,68.11754546370561,6.0,12.0,18.027756377319946,20.024984394500787,18.027756377319946,51.0098029794274,39.01281840626232,31.5,25.0,29.0,9.0,24.0,10.0,3.0,5.0,6.082762530298219,6.0,26.0,22.0,28.0178514522438
393,393,16.0,68.18357573492314,6.0,12.041594578792296,18.027756377319946,20.09975124224178,18.027756377319946,52.03844732503075,40.01249804748511,32.0,25.0,30.0,9.5,24.5,10.5,3.5,5.0,6.0,6.0,27.0,22.0,29.0
394,394,17.0,68.18357573492314,6.082762530298219,12.0,19.026297590440446,20.024984394500787,18.027756377319946,53.03772242470448,41.048751503547585,32.5,24.0,29.0,8.5,26.5,12.5,2.5,6.0,6.0,6.5,26.0,21.0,28.0178514522438
395,395,17.0,68.26419266350405,7.0,12.041594578792296,19.026297590440446,20.09975124224178,17.11724276862369,53.08483775994799,41.048751503547585,32.5,24.0,30.0,10.0,26.0,12.0,4.0,6.0,6.0,6.0,29.0,24.0,31.064449134018133
396,396,18.027756377319946,68.18357573492314,6.0,13.038404810405298,18.027756377319946,20.024984394500787,18.110770276274835,55.14526271584895,42.1070065428546,33.0,25.0,30.0,9.5,27.5,12.5,3.5,6.0,6.082762530298219,5.5,32.0,28.0,33.06055050963308
397,397,19.0,67.26812023536856,6.0,12.0,19.1049731745428,21.095023109728988,17.26267650163207,54.08326913195984,42.1070065428546,32.5,24.0,30.0,10.0,27.0,13.0,3.0,6.0,6.0,6.0,30.0,23.0,31.144823004794873
398,398,18.0,68.26419266350405,6.082762530298219,12.041594578792296,19.026297590440446,21.095023109728988,18.110770276274835,54.147945482723536,42.1070065428546,33.0,24.0,30.0,9.0,27.0,13.0,3.0,6.0,6.082762530298219,6.0,34.0,28.0,35.12833614050059
399,399,19.0,69.26037828369117,6.082762530298219,12.041594578792296,19.026297590440446,21.02379604162864,18.110770276274835,55.14526271584895,43.104524124504614,33.5,24.0,30.0,9.0,28.0,13.0,4.0,6.0,7.0,6.5,31.0,24.0,31.064449134018133
400,400,19.026297590440446,68.3593446428504,6.0,12.0,19.026297590440446,21.095023109728988,17.11724276862369,54.08326913195984,42.1070065428546,32.5,23.0,30.0,9.5,27.5,13.5,3.5,7.0,6.082762530298219,6.0,31.0,24.0,31.144823004794873
401,401,19.026297590440446,68.3593446428504,6.0,12.041594578792296,19.1049731745428,21.095023109728988,17.26267650163207,54.230987451824994,42.190046219457976,32.5,23.0,30.0,9.5,27.5,12.5,3.5,6.082762530298219,6.082762530298219,6.0,28.0,21.0,29.068883707497267
402,402,19.026297590440446,67.36467917239716,6.0,12.041594578792296,19.1049731745428,21.095023109728988,17.26267650163207,54.230987451824994,42.190046219457976,32.5,23.0,30.0,9.5,27.5,12.5,3.5,6.0,6.082762530298219,6.0,30.0,23.0,30.14962686336267
403,403,19.0,66.37017402418047,6.082762530298219,12.041594578792296,19.1049731745428,20.09975124224178,18.24828759089466,55.226805085936306,43.18564576337837,33.5,24.0,31.0,9.5,27.5,12.5,3.5,6.082762530298219,6.082762530298219,6.0,36.0,29.0,37.12142238654117
404,404,16.0312195418814,65.37583651472461,6.0,13.038404810405298,18.110770276274835,19.1049731745428,19.235384061671343,54.230987451824994,41.19465984809196,33.0,24.0,31.0,8.5,26.5,11.5,2.5,6.082762530298219,7.0,6.0,29.0,22.0,30.066592756745816
405,405,13.0,63.50590523722971,7.0710678118654755,13.038404810405298,17.11724276862369,19.1049731745428,20.223748416156685,53.23532661682466,40.19950248448356,33.5,24.0,32.0,8.0,25.0,9.0,1.0,6.082762530298219,6.082762530298219,5.5,37.0,29.0,41.10960958218893
406,406,5.0,61.40032573203501,8.06225774829855,14.142135623730951,15.132745950421556,17.26267650163207,21.213203435596427,48.373546489791295,34.23448553724738,31.5,24.0,31.0,6.5,20.5,4.5,2.5,6.082762530298219,6.082762530298219,6.0,38.0,29.0,39.20459156782532
407,407,1.4142135623730951,60.40695324215582,7.0,12.041594578792296,16.1245154965971,16.1245154965971,23.194827009486403,43.289721643826724,31.25699921617557,30.5,25.0,32.0,5.5,14.5,0.5,1.5,6.0,6.082762530298219,6.0,29.0,23.0,28.071337695236398
408,408,1.0,60.40695324215582,9.0,13.038404810405298,14.142135623730951,16.1245154965971,21.37755832643195,43.41658669218482,30.4138126514911,30.0,25.0,32.0,7.5,14.5,0.5,1.5,6.082762530298219,6.0,6.0,37.0,30.0,38.118237105091836
409,409,1.4142135623730951,59.30430001273095,10.0,14.035668847618199,15.132745950421556,16.1245154965971,21.37755832643195,46.389654018972806,32.38826948140329,31.5,27.0,33.0,9.0,16.0,0.0,1.0,6.0,7.0710678118654755,6.5,38.0,30.0,39.20459156782532
410,410,6.082762530298219,62.51399843235114,11.0,15.0,16.1245154965971,17.26267650163207,21.37755832643195,53.23532661682466,38.3275357934736,35.0,28.0,36.0,11.0,21.0,4.0,0.0,6.082762530298219,6.082762530298219,6.5,39.0,30.0,39.11521443121589
411,411,9.055385138137417,67.60177512462228,10.0,16.0,19.026297590440446,20.223748416156685,20.223748416156685,55.14526271584895,39.20459156782532,34.5,28.0,37.0,12.5,22.5,4.5,2.5,4.0,6.082762530298219,5.0,31.0,24.0,31.064449134018133
412,412,13.0,69.58448102845921,9.0,15.033296378372908,20.09975124224178,22.20360331117452,18.24828759089466,55.14526271584895,40.11234224026316,33.5,27.0,36.0,13.5,23.5,6.5,4.5,4.0,4.0,4.0,31.0,22.0,30.01666203960727
413,413,13.0,71.7007670809734,9.055385138137417,14.035668847618199,20.09975124224178,22.20360331117452,17.26267650163207,53.23532661682466,39.20459156782532,32.5,25.0,35.0,13.0,23.0,7.0,4.0,5.0990195135927845,5.0990195135927845,4.5,31.0,20.0,33.06055050963308
414,414,12.041594578792296,70.71067811865476,8.06225774829855,14.035668847618199,20.223748416156685,22.20360331117452,17.26267650163207,51.35172830587107,37.33630940518894,31.0,23.0,33.0,11.0,23.0,7.0,2.0,6.082762530298219,5.0990195135927845,5.0,35.0,26.0,39.11521443121589
415,415,12.041594578792296,69.87131027825369,8.06225774829855,14.142135623730951,20.09975124224178,21.213203435596427,17.46424919657298,51.62363799656123,37.48332962798263,31.0,21.0,32.0,9.5,24.5,7.5,0.5,7.0710678118654755,7.0710678118654755,6.5,40.0,28.0,42.42640687119285
416,416,12.041594578792296,68.06614430096654,9.055385138137417,15.132745950421556,19.235384061671343,20.223748416156685,17.46424919657298,53.600373133029585,38.47076812334269,32.0,22.0,34.0,11.0,25.0,7.0,1.0,7.0710678118654755,7.0710678118654755,7.0,41.0,27.0,43.289721643826724
417,417,13.038404810405298,66.09841147864296,8.06225774829855,14.142135623730951,18.24828759089466,19.4164878389476,18.439088914585774,53.600373133029585,39.45883931389772,32.5,22.0,34.0,10.0,25.0,8.0,1.0,8.06225774829855,7.0710678118654755,7.0,41.0,28.0,44.40720662234904
418,418,8.06225774829855,64.32728814430156,9.055385138137417,13.038404810405298,17.26267650163207,18.24828759089466,19.6468827043885,49.64876634922564,36.6742416417845,32.0,21.0,34.0,8.5,21.5,5.5,1.5,8.246211251235321,7.0710678118654755,7.5,41.0,26.0,44.553338819890925
419,419,0.0,64.13267497929586,10.04987562112089,12.165525060596439,15.297058540778355,16.278820596099706,20.615528128088304,42.7551166528639,30.59411708155671,30.0,22.0,34.0,8.0,14.0,0.0,3.0,9.219544457292887,9.219544457292887,9.0,42.0,27.0,42.42640687119285
420,420,1.0,60.8276253029822,9.055385138137417,12.041594578792296,15.297058540778355,15.297058540778355,20.396078054371138,41.593268686170845,29.614185789921695,29.0,23.0,33.0,8.0,13.0,1.0,2.0,10.198039027185569,9.055385138137417,9.5,41.0,27.0,43.41658669218482
421,421,1.0,60.8276253029822,10.04987562112089,14.142135623730951,14.317821063276353,16.278820596099706,20.396078054371138,44.721359549995796,30.59411708155671,30.0,24.0,34.0,9.0,15.0,1.0,2.0,9.219544457292887,9.055385138137417,9.0,41.0,26.0,44.40720662234904
422,422,2.23606797749979,60.01666435249463,10.04987562112089,14.142135623730951,14.317821063276353,15.297058540778355,21.37755832643195,47.67598976424087,33.54101966249684,32.0,25.0,36.0,9.5,16.5,0.5,1.5,10.04987562112089,10.04987562112089,10.0,41.0,26.0,43.289721643826724
423,423,4.123105625617661,58.249463516842795,10.04987562112089,14.142135623730951,14.142135623730951,17.46424919657298,23.194827009486403,51.478150704935004,37.33630940518894,35.0,27.0,39.0,10.0,18.0,1.0,0.0,10.198039027185569,10.04987562112089,10.0,41.0,26.0,43.41658669218482
424,424,5.0990195135927845,56.88585061331157,9.055385138137417,15.033296378372908,13.341664064126334,15.297058540778355,23.194827009486403,52.3450093132096,37.33630940518894,34.5,27.0,37.0,9.0,20.0,3.0,1.0,9.219544457292887,9.055385138137417,9.0,40.0,26.0,44.28317965096906
425,425,5.0990195135927845,58.855755878248644,9.055385138137417,15.033296378372908,16.1245154965971,17.46424919657298,23.345235059857504,52.46903848937962,37.48332962798263,34.5,26.0,36.0,8.0,21.0,4.0,1.0,10.198039027185569,9.055385138137417,9.0,40.0,26.0,42.2965719651132
426,426,5.0990195135927845,59.033888572581766,9.0,15.132745950421556,15.132745950421556,16.278820596099706,22.360679774997898,51.478150704935004,36.345563690772494,33.5,25.0,36.0,8.5,20.5,3.5,0.5,10.198039027185569,10.04987562112089,10.0,39.0,25.0,43.289721643826724
427,427,5.0990195135927845,57.87054518492115,9.055385138137417,14.142135623730951,15.132745950421556,16.278820596099706,22.20360331117452,50.48762224545735,36.345563690772494,33.5,26.0,36.0,9.0,19.0,2.0,0.0,9.219544457292887,9.055385138137417,9.5,40.0,26.0,42.2965719651132
428,428,4.123105625617661,58.69412236331676,9.055385138137417,14.035668847618199,15.132745950421556,15.297058540778355,22.20360331117452,49.36598018878993,35.35533905932738,33.0,25.0,34.0,7.5,19.5,3.5,1.5,10.198039027185569,9.055385138137417,9.0,39.0,25.0,42.2965719651132
429,429,5.0990195135927845,58.69412236331676,9.055385138137417,14.035668847618199,14.142135623730951,16.278820596099706,21.213203435596427,49.36598018878993,35.35533905932738,32.5,24.0,33.0,7.5,20.5,3.5,1.5,9.055385138137417,9.055385138137417,9.0,39.0,25.0,42.190046219457976
430,430,4.123105625617661,59.53990258641679,9.0,15.132745950421556,15.297058540778355,16.278820596099706,21.37755832643195,49.49747468305833,34.36568055487916,32.0,25.0,33.0,8.0,20.0,3.0,2.0,9.219544457292887,9.055385138137417,9.0,38.0,24.0,41.19465984809196
431,431,5.0990195135927845,59.53990258641679,9.0,13.152946437965905,15.132745950421556,16.278820596099706,22.20360331117452,49.36598018878993,36.22154055254967,33.5,26.0,34.0,8.0,19.0,3.0,1.0,10.198039027185569,10.04987562112089,10.0,39.0,26.0,42.190046219457976
432,432,4.123105625617661,57.706152185014034,9.055385138137417,13.152946437965905,15.132745950421556,16.278820596099706,22.20360331117452,48.507731342539614,35.35533905932738,33.0,27.0,36.0,9.5,16.5,1.5,0.5,10.04987562112089,10.04987562112089,10.0,39.0,25.0,40.19950248448356
433,433,1.0,59.413803110051795,9.055385138137417,13.038404810405298,14.142135623730951,15.132745950421556,21.37755832643195,44.40720662234904,31.400636936215164,30.5,26.0,33.0,8.5,14.5,0.5,1.5,10.04987562112089,9.055385138137417,9.5,38.0,25.0,41.19465984809196
434,434,0.0,59.413803110051795,10.04987562112089,13.038404810405298,15.132745950421556,15.132745950421556,21.37755832643195,44.40720662234904,31.400636936215164,31.0,26.0,33.0,8.5,14.5,0.5,1.5,10.04987562112089,9.055385138137417,9.0,37.0,24.0,41.19465984809196
435,435,2.23606797749979,61.40032573203501,9.0,13.038404810405298,15.132745950421556,16.278820596099706,22.20360331117452,46.2709412050371,33.24154027718932,32.0,26.0,33.0,7.5,16.5,1.5,1.5,10.198039027185569,9.055385138137417,9.0,37.0,24.0,41.19465984809196
436,436,7.0,61.0,9.055385138137417,15.132745950421556,15.297058540778355,16.278820596099706,20.09975124224178,51.24451190127583,36.124783736376884,32.5,25.0,36.0,10.5,20.5,3.5,0.5,10.04987562112089,9.055385138137417,9.0,38.0,25.0,41.19465984809196
437,437,10.0,64.77653896280658,9.055385138137417,15.033296378372908,16.278820596099706,18.439088914585774,19.235384061671343,53.23532661682466,38.2099463490856,33.0,25.0,35.0,11.0,23.0,6.0,1.0,9.055385138137417,9.055385138137417,9.0,38.0,25.0,42.2965719651132
438,438,10.0,64.93843238021688,9.055385138137417,16.0312195418814,17.26267650163207,19.235384061671343,19.235384061671343,54.230987451824994,38.2099463490856,33.0,24.0,35.0,10.5,24.5,6.5,0.5,9.055385138137417,9.055385138137417,9.0,37.0,23.0,43.289721643826724
439,439,12.0,66.09841147864296,8.06225774829855,15.132745950421556,16.278820596099706,18.24828759089466,19.235384061671343,54.3323108288245,39.20459156782532,33.0,24.0,36.0,11.0,24.0,6.0,2.0,10.04987562112089,10.04987562112089,10.0,37.0,24.0,42.2965719651132
440,440,12.0,67.7421582177598,8.06225774829855,15.132745950421556,17.11724276862369,19.235384061671343,18.24828759089466,53.33854141237835,38.2099463490856,32.0,23.0,33.0,10.0,25.0,8.0,1.0,9.219544457292887,8.0,8.5,37.0,25.0,42.190046219457976
441,441,12.041594578792296,65.62011886609167,9.0,14.035668847618199,18.24828759089466,20.223748416156685,18.24828759089466,53.23532661682466,39.20459156782532,33.0,24.0,33.0,10.5,24.5,7.5,0.5,7.0710678118654755,8.06225774829855,8.0,38.0,25.0,43.18564576337837
442,442,10.04987562112089,65.49045732013177,9.055385138137417,15.033296378372908,17.11724276862369,19.235384061671343,18.24828759089466,52.3450093132096,37.33630940518894,32.0,23.0,31.0,9.0,25.0,8.0,0.0,5.385164807134504,5.0990195135927845,5.5,37.0,28.0,40.311288741492746
443,443,10.0,65.62011886609167,8.06225774829855,13.152946437965905,17.26267650163207,19.235384061671343,18.439088914585774,49.49747468305833,36.345563690772494,31.0,21.0,30.0,7.5,23.5,7.5,1.5,4.123105625617661,5.385164807134504,4.5,36.0,27.0,36.22154055254967
444,444,10.04987562112089,61.814237842102365,8.06225774829855,13.038404810405298,16.278820596099706,18.24828759089466,18.439088914585774,49.49747468305833,36.49657518178932,31.0,21.0,31.0,8.0,23.0,7.0,1.0,6.324555320336759,6.082762530298219,5.5,41.0,29.0,39.319206502675
445,445,7.280109889280518,59.682493245507096,7.0710678118654755,14.142135623730951,16.1245154965971,18.24828759089466,19.4164878389476,47.853944456021594,33.734255586866,29.5,20.0,29.0,5.5,22.5,5.5,1.5,5.385164807134504,5.0990195135927845,4.5,39.0,27.0,38.63935817272331
446,446,7.0,58.69412236331676,8.06225774829855,13.152946437965905,16.1245154965971,17.11724276862369,18.973665961010276,46.87216658103186,33.734255586866,29.5,20.0,29.0,6.5,21.5,5.5,1.5,6.324555320336759,5.0990195135927845,5.0,41.0,26.0,38.63935817272331
447,447,5.0990195135927845,57.706152185014034,7.0710678118654755,15.132745950421556,14.317821063276353,16.1245154965971,19.924858845171276,47.07440918375928,32.01562118716424,28.5,19.0,28.0,4.5,22.5,5.5,3.5,5.385164807134504,5.385164807134504,4.5,41.0,25.0,36.87817782917155
448,448,6.082762530298219,56.089214649520635,8.246211251235321,14.142135623730951,15.297058540778355,16.278820596099706,18.681541692269406,47.07440918375928,32.984845004941285,29.0,18.0,29.0,5.5,22.5,5.5,2.5,6.324555320336759,6.324555320336759,6.0,37.0,25.0,33.734255586866
449,449,5.0990195135927845,57.271284253105414,7.280109889280518,15.297058540778355,14.317821063276353,15.297058540778355,19.924858845171276,47.53945729601885,32.28002478313795,28.5,18.0,30.0,5.0,22.0,5.0,3.0,5.0990195135927845,6.082762530298219,6.0,38.0,24.0,33.95585369269929
450,450,6.324555320336759,58.463663928973865,8.246211251235321,14.317821063276353,13.601470508735444,16.278820596099706,18.973665961010276,47.80167361086848,33.52610922848042,29.0,17.0,30.0,5.5,22.5,5.5,3.5,6.324555320336759,6.082762530298219,6.0,37.0,23.0,34.713109915419565
451,451,6.324555320336759,57.723478758647246,8.246211251235321,14.317821063276353,14.560219778561036,15.297058540778355,18.027756377319946,46.84015371452148,32.57299494980466,28.0,16.0,30.0,6.0,22.0,5.0,3.0,7.280109889280518,6.324555320336759,6.5,37.0,22.0,36.6742416417845
452,452,7.280109889280518,57.97413216254298,8.246211251235321,14.317821063276353,14.560219778561036,16.492422502470642,17.46424919657298,47.12748667179272,32.89376840679705,27.5,15.0,30.0,6.5,22.5,6.5,2.5,6.324555320336759,6.324555320336759,6.0,38.0,22.0,33.95585369269929
453,453,11.40175425099138,61.84658438426491,7.280109889280518,13.341664064126334,14.560219778561036,16.492422502470642,16.55294535724685,48.38388161361178,35.11409973215888,27.5,13.0,28.0,5.5,25.5,10.5,3.5,6.708203932499369,6.324555320336759,6.5,37.0,21.0,33.95585369269929
454,454,11.180339887498949,62.36184731067546,7.280109889280518,14.560219778561036,16.492422502470642,18.439088914585774,17.0,49.64876634922564,35.11409973215888,27.5,13.0,30.0,6.5,25.5,9.5,2.5,6.708203932499369,6.324555320336759,6.0,37.0,19.0,32.7566787083184
455,455,13.341664064126334,65.25335240430181,7.280109889280518,14.317821063276353,17.46424919657298,18.439088914585774,16.1245154965971,50.59644256269407,36.40054944640259,27.5,13.0,30.0,7.5,26.5,9.5,1.5,6.708203932499369,6.324555320336759,6.0,37.0,20.0,33.95585369269929
456,456,14.142135623730951,66.21933252457322,8.54400374531753,14.560219778561036,18.439088914585774,19.4164878389476,15.264337522473747,51.86520991955976,37.33630940518894,28.0,13.0,30.0,8.5,27.5,10.5,0.5,5.385164807134504,6.324555320336759,6.0,37.0,20.0,34.92849839314596
457,457,15.132745950421556,67.1863081289633,6.708203932499369,14.560219778561036,17.46424919657298,19.4164878389476,15.652475842498529,51.54609587543949,37.0,27.5,13.0,30.0,7.5,27.5,10.5,0.5,6.708203932499369,6.324555320336759,6.5,37.0,20.0,33.95585369269929
458,458,15.297058540778355,67.91170738539859,7.280109889280518,14.560219778561036,18.439088914585774,20.396078054371138,17.0,53.75872022286245,39.21734310225516,29.5,15.0,31.0,8.0,28.0,11.0,0.0,6.708203932499369,6.324555320336759,6.5,38.0,21.0,34.92849839314596
459,459,16.278820596099706,68.65857557508748,7.280109889280518,14.317821063276353,17.46424919657298,20.396078054371138,16.1245154965971,53.45091205957107,39.21734310225516,29.0,15.0,30.0,8.5,28.5,11.5,0.5,6.324555320336759,6.324555320336759,6.0,45.0,22.0,38.600518131237564
460,460,15.297058540778355,68.4470598345904,7.280109889280518,14.317821063276353,19.4164878389476,21.37755832643195,17.0,53.45091205957107,39.21734310225516,29.5,17.0,31.0,9.0,27.0,11.0,1.0,7.280109889280518,6.708203932499369,6.0,43.0,21.0,38.600518131237564
461,461,13.341664064126334,67.68308503607086,7.280109889280518,16.278820596099706,17.46424919657298,20.223748416156685,17.88854381999832,54.405882034941776,38.27531841800928,29.5,16.0,31.0,7.5,28.5,10.5,0.5,6.324555320336759,6.324555320336759,6.5,39.0,21.0,36.40054944640259
462,462,12.165525060596439,65.73431371817918,7.280109889280518,16.278820596099706,15.524174696260024,18.24828759089466,18.384776310850235,53.85164807134504,37.64306044943742,30.0,16.0,31.0,6.5,28.5,10.5,2.5,7.615773105863909,7.280109889280518,7.0,46.0,20.0,40.80441152620633
463,463,10.198039027185569,63.788713735268246,7.0710678118654755,15.297058540778355,16.492422502470642,18.24828759089466,20.248456731316587,52.630789467763066,37.36308338453881,31.0,18.0,33.0,6.5,25.5,7.5,2.5,7.615773105863909,6.708203932499369,6.5,46.0,20.0,41.7612260356422
464,464,7.280109889280518,60.41522986797286,8.246211251235321,15.297058540778355,14.317821063276353,16.492422502470642,19.6468827043885,50.44799302251776,35.17101079013795,30.5,20.0,33.0,7.5,22.5,4.5,1.5,7.615773105863909,6.708203932499369,6.0,45.0,18.0,43.41658669218482
465,465,5.385164807134504,60.63827174318213,8.06225774829855,14.142135623730951,13.341664064126334,16.492422502470642,19.4164878389476,46.87216658103186,32.7566787083184,29.5,20.0,34.0,8.0,19.0,3.0,1.0,7.280109889280518,6.708203932499369,6.0,44.0,19.0,43.174066289845804
466,466,3.1622776601683795,59.22837157984339,9.055385138137417,14.142135623730951,14.317821063276353,15.524174696260024,20.396078054371138,46.69047011971501,32.55764119219941,30.5,23.0,35.0,9.0,17.0,0.0,0.0,6.324555320336759,6.324555320336759,6.0,41.0,20.0,41.773197148410844
467,467,3.1622776601683795,59.033888572581766,9.219544457292887,13.152946437965905,15.132745950421556,16.492422502470642,19.4164878389476,44.91102314577124,31.78049716414141,29.5,23.0,34.0,9.5,15.5,0.5,0.5,7.0710678118654755,7.280109889280518,7.0,39.0,20.0,42.42640687119285
468,468,3.1622776601683795,59.841457201508724,8.06225774829855,12.165525060596439,14.142135623730951,15.297058540778355,20.396078054371138,43.73785545725808,31.575306807693888,29.5,23.0,33.0,8.0,15.0,1.0,1.0,8.06225774829855,8.54400374531753,8.0,39.0,22.0,40.44749683231337
469,469,4.123105625617661,57.706152185014034,8.06225774829855,11.40175425099138,14.142135623730951,15.297058540778355,20.396078054371138,43.93176527297759,32.55764119219941,30.0,24.0,33.0,8.5,14.5,0.5,0.5,8.06225774829855,7.280109889280518,7.5,39.0,22.0,40.311288741492746
470,470,5.0990195135927845,61.814237842102365,8.06225774829855,12.36931687685298,15.132745950421556,17.26267650163207,20.223748416156685,45.70557952810576,33.37663853655727,30.5,23.0,33.0,8.0,17.0,3.0,0.0,7.0710678118654755,8.246211251235321,7.5,38.0,21.0,40.311288741492746
471,471,7.0710678118654755,64.93843238021688,9.055385138137417,12.165525060596439,15.297058540778355,17.26267650163207,19.235384061671343,47.51841748206689,35.35533905932738,31.5,24.0,35.0,10.5,17.5,3.5,0.5,8.06225774829855,8.246211251235321,8.0,37.0,21.0,41.43669871020132
472,472,10.04987562112089,64.93843238021688,8.06225774829855,11.180339887498949,16.278820596099706,17.26267650163207,19.235384061671343,48.507731342539614,37.33630940518894,32.0,24.0,35.0,10.5,18.5,5.5,1.5,8.06225774829855,8.246211251235321,8.0,37.0,21.0,40.311288741492746
473,473,9.055385138137417,65.76473218982953,8.06225774829855,13.152946437965905,16.278820596099706,18.110770276274835,19.235384061671343,49.49747468305833,36.345563690772494,31.5,24.0,34.0,10.0,20.0,5.0,1.0,8.06225774829855,8.06225774829855,8.0,37.0,22.0,42.42640687119285
474,474,11.045361017187261,65.76473218982953,8.06225774829855,12.165525060596439,16.1245154965971,18.110770276274835,18.24828759089466,49.49747468305833,37.33630940518894,31.5,24.0,34.0,11.0,20.0,6.0,2.0,9.055385138137417,8.06225774829855,8.5,37.0,23.0,42.2965719651132
475,475,10.04987562112089,66.61080993352356,9.055385138137417,12.041594578792296,16.1245154965971,18.24828759089466,18.24828759089466,49.36598018878993,37.33630940518894,32.0,24.0,33.0,10.5,20.5,6.5,1.5,9.219544457292887,8.06225774829855,8.5,37.0,23.0,42.190046219457976
476,476,11.045361017187261,67.60177512462228,8.06225774829855,12.041594578792296,16.1245154965971,17.26267650163207,19.235384061671343,50.35871324805669,38.3275357934736,32.5,24.0,33.0,9.5,21.5,7.5,1.5,10.04987562112089,9.055385138137417,9.0,37.0,24.0,43.289721643826724
477,477,12.041594578792296,65.49045732013177,8.06225774829855,13.038404810405298,16.1245154965971,18.110770276274835,18.110770276274835,51.24451190127583,38.2099463490856,32.0,25.0,33.0,11.0,22.0,7.0,2.0,9.219544457292887,9.055385138137417,9.5,38.0,25.0,43.289721643826724
478,478,12.041594578792296,65.37583651472461,8.06225774829855,13.038404810405298,17.11724276862369,18.110770276274835,18.110770276274835,51.24451190127583,38.2099463490856,32.0,25.0,32.0,10.5,22.5,7.5,1.5,10.198039027185569,9.055385138137417,9.5,37.0,25.0,42.190046219457976
479,479,11.045361017187261,66.37017402418047,8.06225774829855,14.035668847618199,17.26267650163207,19.1049731745428,19.1049731745428,52.23983154643591,38.2099463490856,32.5,25.0,32.0,9.5,23.5,7.5,0.5,10.198039027185569,9.055385138137417,9.5,37.0,25.0,42.190046219457976
480,480,12.041594578792296,65.49045732013177,8.06225774829855,12.041594578792296,17.11724276862369,18.24828759089466,19.235384061671343,51.35172830587107,39.319206502675,33.0,25.0,33.0,10.0,22.0,7.0,2.0,10.04987562112089,9.055385138137417,9.0,38.0,26.0,42.190046219457976
481,481,12.0,66.37017402418047,8.06225774829855,13.038404810405298,16.1245154965971,18.110770276274835,19.235384061671343,52.23983154643591,39.20459156782532,33.0,25.0,32.0,9.5,23.5,8.5,0.5,10.04987562112089,9.055385138137417,9.5,37.0,26.0,43.18564576337837
482,482,10.04987562112089,66.48308055437865,8.06225774829855,14.035668847618199,17.11724276862369,18.24828759089466,19.1049731745428,51.24451190127583,37.21558813185679,32.0,24.0,32.0,9.0,23.0,7.0,0.0,10.198039027185569,9.055385138137417,9.5,38.0,27.0,42.190046219457976
483,483,9.055385138137417,62.289646009589745,8.0,13.038404810405298,16.1245154965971,17.11724276862369,20.223748416156685,50.24937810560445,37.21558813185679,32.5,25.0,31.0,8.0,22.0,7.0,0.0,10.198039027185569,10.04987562112089,9.5,37.0,26.0,43.18564576337837
484,484,7.0,61.204574992397426,8.06225774829855,13.038404810405298,15.033296378372908,17.11724276862369,21.095023109728988,49.16299421312742,36.124783736376884,32.5,26.0,31.0,7.5,20.5,5.5,0.5,10.04987562112089,9.055385138137417,9.5,38.0,27.0,43.18564576337837
485,485,4.0,57.21887800367987,9.055385138137417,14.142135623730951,15.132745950421556,16.0312195418814,22.090722034374522,49.25444142409901,35.12833614050059,33.0,27.0,32.0,7.5,19.5,3.5,1.5,10.04987562112089,9.055385138137417,9.5,39.0,29.0,44.181444068749045
486,486,4.0,56.22277118748239,9.055385138137417,14.142135623730951,14.035668847618199,16.1245154965971,22.090722034374522,49.25444142409901,35.12833614050059,33.0,28.0,33.0,8.5,18.5,2.5,0.5,11.045361017187261,10.04987562112089,10.0,40.0,30.0,45.17742799230607
487,487,5.0990195135927845,56.22277118748239,10.0,16.0312195418814,14.035668847618199,16.1245154965971,23.08679276123039,54.147945482723536,38.118237105091836,35.5,31.0,36.0,10.5,20.5,2.5,1.5,11.045361017187261,10.0,10.5,40.0,30.0,44.10215414239989
488,488,9.055385138137417,54.230987451824994,10.04987562112089,17.029386365926403,15.033296378372908,16.0312195418814,24.020824298928627,60.13318551349163,43.104524124504614,38.5,36.0,41.0,14.5,21.5,2.5,4.5,11.180339887498949,11.0,11.0,39.0,31.0,47.265209192385896
489,489,7.0,55.14526271584895,11.045361017187261,17.029386365926403,14.035668847618199,16.1245154965971,24.020824298928627,59.07622195096772,42.04759208325728,38.5,36.0,40.0,14.0,21.0,3.0,3.0,12.165525060596439,11.0,11.5,39.0,32.0,46.09772228646444
490,490,2.0,53.23532661682466,11.045361017187261,15.033296378372908,14.035668847618199,15.033296378372908,25.079872407968907,53.150729063673246,38.118237105091836,37.0,35.0,40.0,12.5,15.5,1.5,1.5,12.041594578792296,11.045361017187261,11.5,40.0,33.0,44.10215414239989
491,491,1.4142135623730951,56.142675390472796,11.0,15.033296378372908,15.033296378372908,16.0312195418814,24.08318915758459,51.15662224971465,36.124783736376884,35.5,34.0,38.0,12.0,15.0,2.0,1.0,12.041594578792296,12.041594578792296,12.0,39.0,33.0,46.09772228646444
492,492,2.23606797749979,57.14017850864661,10.0,15.033296378372908,14.035668847618199,15.033296378372908,24.08318915758459,51.15662224971465,36.124783736376884,35.0,34.0,38.0,12.0,15.0,2.0,2.0,12.165525060596439,12.0,12.0,40.0,34.0,45.09988913511872
493,493,3.1622776601683795,60.13318551349163,11.0,16.0312195418814,16.0312195418814,18.027756377319946,23.08679276123039,53.150729063673246,37.12142238654117,35.5,33.0,37.0,12.0,18.0,1.0,1.0,11.180339887498949,12.041594578792296,12.0,40.0,34.0,47.042533945356304
494,494,5.0,61.1310068623117,10.04987562112089,16.0312195418814,15.033296378372908,17.029386365926403,22.02271554554524,53.08483775994799,37.05401462729781,34.5,32.0,36.0,12.0,19.0,2.0,2.0,13.038404810405298,11.045361017187261,11.5,39.0,32.0,44.10215414239989
495,495,5.0,63.12685640834652,10.0,16.0312195418814,16.0312195418814,18.027756377319946,22.02271554554524,53.03772242470448,37.013511046643494,34.5,32.0,36.0,12.0,19.0,2.0,2.0,12.041594578792296,12.0,12.0,40.0,32.0,45.09988913511872
496,496,8.06225774829855,63.12685640834652,9.055385138137417,15.033296378372908,17.0,18.027756377319946,22.02271554554524,54.037024344425184,39.01281840626232,35.0,33.0,37.0,13.0,19.0,3.0,4.0,12.041594578792296,12.0,12.0,39.0,32.0,44.10215414239989
497,497,9.0,64.19501538281614,10.0,16.0312195418814,16.0312195418814,18.110770276274835,20.024984394500787,55.036351623268054,39.01281840626232,34.5,31.0,36.0,13.5,21.5,3.5,3.5,12.041594578792296,11.0,11.0,39.0,32.0,46.17358552246078
498,498,11.0,65.12296062065974,9.0,16.0,17.029386365926403,19.026297590440446,21.02379604162864,57.0087712549569,41.012193308819754,35.5,32.0,36.0,13.0,23.0,6.0,4.0,12.041594578792296,11.0,11.5,39.0,31.0,45.09988913511872
499,499,14.0,66.06814663663572,9.0,16.0312195418814,18.0,20.024984394500787,21.02379604162864,60.03332407921454,44.01136216933077,37.0,34.0,37.0,14.5,24.5,6.5,5.5,12.041594578792296,11.0,11.5,38.0,31.0,46.09772228646444
500,500,15.0,67.06713054842886,9.0,15.0,18.0,20.0,21.02379604162864,60.00833275470999,45.0111097397076,37.5,33.0,36.0,13.5,25.5,8.5,5.5,11.045361017187261,12.0,11.5,39.0,32.0,45.09988913511872
501,501,14.0,67.11929677819934,9.0,16.0,18.027756377319946,20.024984394500787,21.02379604162864,60.00833275470999,44.01136216933077,37.0,32.0,36.0,13.0,26.0,8.0,4.0,12.041594578792296,11.0,11.0,39.0,32.0,46.09772228646444
502,502,14.0,67.06713054842886,9.0,15.0,18.027756377319946,19.026297590440446,21.02379604162864,59.00847396772772,44.01136216933077,37.0,32.0,35.0,12.5,25.5,8.5,3.5,11.045361017187261,10.0,10.5,40.0,32.0,45.09988913511872
503,503,11.0,65.06919393998976,8.0,16.0,17.0,19.026297590440446,22.02271554554524,57.0087712549569,41.012193308819754,35.5,31.0,34.0,10.5,24.5,7.5,2.5,7.0,7.0,7.0,42.0,35.0,45.09988913511872
504,504,6.0,62.12889826803627,9.055385138137417,15.0,16.0,19.1049731745428,22.02271554554524,52.03844732503075,37.05401462729781,34.0,28.0,32.0,8.0,22.0,6.0,0.0,7.0710678118654755,6.0,6.5,39.0,34.0,41.10960958218893
505,505,4.0,61.1310068623117,8.06225774829855,15.033296378372908,16.0312195418814,18.110770276274835,23.08679276123039,50.15974481593781,35.12833614050059,33.0,27.0,31.0,6.0,21.0,4.0,2.0,5.0990195135927845,4.47213595499958,4.5,39.0,34.0,38.05259518088089
506,506,4.0,60.07495318350236,8.06225774829855,15.033296378372908,16.0312195418814,18.027756377319946,23.021728866442675,50.08991914547278,35.05709628591621,33.0,28.0,31.0,6.5,20.5,3.5,1.5,6.082762530298219,6.0,5.5,37.0,34.0,38.05259518088089
507,507,4.0,61.07372593840988,9.0,16.0312195418814,15.033296378372908,17.029386365926403,23.08679276123039,52.08646657242167,36.05551275463989,34.0,29.0,32.0,7.5,21.5,3.5,1.5,6.082762530298219,6.082762530298219,6.0,44.0,35.0,44.10215414239989
508,508,6.082762530298219,60.07495318350236,9.0,16.0,15.0,17.0,24.08318915758459,55.08175741568164,39.11521443121589,36.0,31.0,34.0,8.5,22.5,4.5,0.5,6.082762530298219,6.0,5.5,41.0,35.0,39.20459156782532
509,509,6.0,61.07372593840988,9.055385138137417,17.029386365926403,16.0312195418814,17.029386365926403,25.079872407968907,57.14017850864661,40.11234224026316,37.0,33.0,36.0,9.5,22.5,4.5,0.5,6.082762530298219,7.0710678118654755,6.5,42.0,35.0,43.104524124504614
510,510,3.0,60.03332407921454,10.04987562112089,15.033296378372908,15.033296378372908,16.0312195418814,24.08318915758459,52.15361924162119,37.12142238654117,35.5,32.0,34.0,9.0,19.0,2.0,1.0,8.06225774829855,7.0,7.0,44.0,32.0,46.2709412050371
511,511,0.0,61.032778078668514,9.055385138137417,14.035668847618199,15.033296378372908,16.0,25.079872407968907,48.16637831516918,34.132096331752024,34.0,32.0,34.0,8.0,15.0,0.0,1.0,8.06225774829855,7.0710678118654755,7.5,44.0,33.0,46.2709412050371
512,512,0.0,61.032778078668514,10.04987562112089,14.035668847618199,15.0,17.0,23.08679276123039,47.16990566028302,33.13608305156178,33.0,31.0,33.0,9.0,15.0,0.0,0.0,8.06225774829855,8.0,7.5,44.0,31.0,45.17742799230607
513,513,1.0,61.07372593840988,9.055385138137417,15.033296378372908,16.1245154965971,17.029386365926403,24.186773244895647,49.25444142409901,34.23448553724738,33.5,30.0,33.0,7.5,17.5,0.5,1.5,9.055385138137417,8.0,8.0,39.0,30.0,39.319206502675
514,514,3.0,61.204574992397426,10.04987562112089,15.033296378372908,16.0312195418814,17.029386365926403,23.194827009486403,51.24451190127583,36.22154055254967,34.5,28.0,33.0,7.5,20.5,3.5,2.5,9.219544457292887,7.0710678118654755,7.5,44.0,29.0,47.38143096192854
515,515,5.0,65.27633568147036,9.055385138137417,16.0312195418814,16.0312195418814,17.11724276862369,22.20360331117452,52.23983154643591,36.22154055254967,33.5,27.0,33.0,8.0,22.0,4.0,1.0,8.06225774829855,7.0710678118654755,7.0,44.0,28.0,45.5411901469428
516,516,6.082762530298219,66.37017402418047,9.0,17.029386365926403,16.1245154965971,18.110770276274835,21.213203435596427,53.23532661682466,36.22154055254967,33.0,26.0,33.0,8.5,23.5,5.5,1.5,9.055385138137417,8.06225774829855,8.0,44.0,29.0,44.553338819890925
517,517,9.0,68.3593446428504,9.055385138137417,15.033296378372908,17.11724276862369,19.1049731745428,20.223748416156685,53.23532661682466,38.2099463490856,33.5,25.0,32.0,8.5,24.5,7.5,0.5,8.06225774829855,8.06225774829855,8.5,44.0,29.0,47.51841748206689
518,518,10.0,68.46897107449476,9.055385138137417,15.132745950421556,16.1245154965971,18.24828759089466,19.235384061671343,53.33854141237835,38.2099463490856,33.0,24.0,32.0,9.0,25.0,8.0,0.0,8.06225774829855,8.0,8.0,42.0,29.0,44.40720662234904
519,519,9.0,65.49045732013177,9.055385138137417,15.132745950421556,17.11724276862369,18.110770276274835,19.235384061671343,52.3450093132096,37.21558813185679,32.5,24.0,32.0,9.0,24.0,7.0,0.0,8.06225774829855,8.06225774829855,8.0,40.0,27.0,43.41658669218482
520,520,7.0,64.4980619863884,9.055385138137417,15.033296378372908,16.1245154965971,18.110770276274835,21.095023109728988,52.15361924162119,37.12142238654117,33.5,24.0,32.0,7.0,24.0,7.0,2.0,8.246211251235321,8.06225774829855,8.0,40.0,27.0,43.41658669218482
521,521,6.082762530298219,62.51399843235114,9.055385138137417,14.035668847618199,15.132745950421556,17.11724276862369,21.095023109728988,50.24937810560445,36.22154055254967,33.0,24.0,32.0,7.0,22.0,6.0,2.0,8.246211251235321,8.06225774829855,8.0,38.0,27.0,40.311288741492746
522,522,6.0,61.40032573203501,8.06225774829855,13.152946437965905,15.132745950421556,17.11724276862369,22.090722034374522,49.25444142409901,36.124783736376884,33.0,25.0,32.0,6.5,20.5,4.5,1.5,8.06225774829855,7.0710678118654755,7.5,38.0,27.0,41.30375285612676
523,523,5.0990195135927845,60.40695324215582,8.0,13.038404810405298,15.132745950421556,16.278820596099706,22.20360331117452,48.25971404805462,35.22782990761707,32.5,25.0,32.0,6.5,19.5,4.5,1.5,8.06225774829855,7.280109889280518,7.5,38.0,27.0,42.2965719651132
524,524,6.082762530298219,60.207972893961475,8.0,13.038404810405298,15.033296378372908,17.11724276862369,21.213203435596427,48.25971404805462,35.22782990761707,32.0,25.0,30.0,6.5,20.5,5.5,1.5,8.06225774829855,8.06225774829855,8.0,37.0,27.0,40.11234224026316
525,525,7.0,61.29437168288782,8.06225774829855,14.035668847618199,15.033296378372908,17.11724276862369,20.09975124224178,49.16299421312742,35.12833614050059,31.5,25.0,31.0,8.0,21.0,6.0,0.0,8.06225774829855,7.0,7.5,36.0,27.0,41.10960958218893
526,526,9.055385138137417,63.28506932918696,8.0,14.0,16.0312195418814,18.027756377319946,20.09975124224178,51.088159097779204,37.12142238654117,32.5,26.0,32.0,9.0,22.0,7.0,1.0,8.0,7.0,7.5,36.0,28.0,42.1070065428546
527,527,10.0,63.12685640834652,8.06225774829855,13.0,17.029386365926403,18.027756377319946,20.024984394500787,51.03920062069938,38.05259518088089,33.0,26.0,30.0,8.0,23.0,8.0,0.0,7.0710678118654755,7.0,7.5,35.0,27.0,42.1070065428546
528,528,9.0,63.12685640834652,7.0,13.038404810405298,16.0312195418814,17.029386365926403,20.024984394500787,49.040799340956916,36.013886210738214,31.5,25.0,29.0,7.0,22.0,8.0,0.0,8.06225774829855,7.0710678118654755,7.5,34.0,27.0,41.048751503547585
529,529,7.0,60.03332407921454,8.06225774829855,12.041594578792296,15.0,17.029386365926403,19.026297590440446,46.09772228646444,34.058772731852805,30.5,25.0,27.0,7.0,20.0,6.0,0.0,8.06225774829855,7.0,7.0,34.0,28.0,40.049968789001575
530,530,6.0,60.03332407921454,8.06225774829855,13.038404810405298,14.035668847618199,15.033296378372908,19.026297590440446,46.09772228646444,33.06055050963308,30.0,25.0,27.0,7.0,20.0,5.0,1.0,8.06225774829855,7.0710678118654755,7.0,33.0,27.0,39.05124837953327
531,531,4.123105625617661,59.07622195096772,8.0,13.0,14.035668847618199,16.0312195418814,19.1049731745428,44.10215414239989,31.144823004794873,29.0,25.0,28.0,7.5,17.5,3.5,0.5,8.0,7.0,7.0,32.0,27.0,40.049968789001575
