,video_id,frame_seq,time_seconds,m1,m3,m4,m5,m6,m7,m8,m9,m10,m11,m12,m13,m14,m15,m16,m17,e1,e2,e3,b1,b2,b3
0,229,0,0.0,11.034661204049725,156.5522506223685,23.46001151863491,32.91955887014007,40.69381981676046,45.363061397021085,34.3318085681106,101.6267735189587,68.7345140236011,63.201738500385375,73.34522739550897,60.86093337074141,32.77127181501464,34.33180856811043,3.121073506191806,12.484294024767564,15.605367530959313,15.914414711429803,15.605367530959313,57.739859864549544,76.46630090170078,78.27612531118423
1,229,1,0.0333666666666666,10.907648670730712,153.4919732160638,21.651064410899604,31.196637961598963,41.76361910830059,43.43929143588927,35.512731167222086,98.91739984887082,67.89080360080706,62.47426596918018,75.58614895036618,60.160404266617945,32.39406383587118,30.851489367496356,1.5425744683748235,12.340595746998588,15.425744683748235,15.731234630826426,15.425744683748178,57.0752553298683,74.0435744819913,79.04847570323764
2,229,2,0.0667333333333332,9.499606665054582,156.5547267856377,21.919864974047574,31.273533082062997,40.724824163909474,43.83972994809536,35.953625986779606,98.58683499374976,67.31744378110317,62.469028621367954,73.40110863010744,62.46902862136807,32.015377168451096,30.453651452916915,0.780862857767147,11.712942866506523,15.617257155342031,17.249824337900353,17.17898287087621,56.22212575923123,76.52456006117586,80.02987201622084
3,229,3,0.1000999999999998,6.4845920686638445,157.55729874714822,23.643535556153918,31.61177503620987,41.012161268081236,44.149044507692984,34.63610674191461,96.25916423186095,64.65491608709237,61.337039028682,70.7735065715562,61.337039028682,31.454891809580545,29.882147219101512,1.572744590479033,9.436467542874198,15.727445904790272,17.371531789669195,17.30019049526925,58.191549847723934,77.06448493347227,78.88846731907445
4,229,4,0.1334666666666664,1.5750839339061713,159.46509441945992,25.250516341340834,31.658795257166563,42.55642444050174,45.78593170426695,37.80201441374919,94.7148143969028,63.08206239300185,63.00335735624873,74.02894489359227,63.00335735624873,30.71413671117125,25.988884909452622,5.512793768671713,7.0878777025778845,17.325923272968396,17.39737068236569,17.325923272968453,59.85318948843633,77.17911276140472,79.14698814291637
5,229,5,0.166833333333333,1.5683862720966317,158.68628169490614,22.013350340298167,29.840583949671228,43.94281359134071,45.510234999809455,37.64127053031814,89.52175184901368,59.681167899342455,59.598678339670414,70.57738224434661,61.167064611767046,28.23095289773869,23.525794081448794,6.273545088386413,7.841931360482931,15.68386272096592,17.323392589707336,17.252248993062494,59.598678339670414,75.28254106063633,74.13010524511172
6,229,6,0.2001999999999996,0.0,160.95632473230629,25.266976403407607,30.111552344959925,42.584165710349914,44.243535265962954,36.25054574046288,91.53662246267733,61.48851991741676,61.46831669035015,69.3488701121899,61.46831669035015,29.158047660807142,26.005826292071106,5.516387395287893,5.516387395287893,15.7611068436795,15.7611068436795,15.7611068436795,59.89220600598219,75.65331284966169,77.48632045483009
7,229,7,0.2335666666666662,2.202995908544737,159.01297107364422,21.80854684201472,29.63827873080229,42.08817773637434,43.64490184349064,37.38608030059663,87.28980368698117,57.65792067486804,58.415750469682166,66.98339387190231,60.7523804884695,26.48180687958927,23.366300187872866,6.23101338343281,6.23101338343281,15.577533458581911,17.205948080735094,17.13528680444017,62.3101338343277,73.21440725533506,76.58381872790616
8,229,8,0.2669333333333328,3.543849559691695,155.44537724269068,23.77286555250987,30.153974305305443,42.79115799451756,44.40430770962563,38.06958843459271,88.7661807833559,58.639735029524275,60.22459273302485,68.14888125052818,61.80945043652554,26.942580959511133,23.77286555250987,6.339430814002526,4.754573110501951,15.848577035006542,14.351496894342434,14.26371933150591,64.9791658435268,72.90345436103013,91.935408354247
9,229,9,0.3002999999999994,3.5459376574233894,155.4399295844984,23.83967405270239,31.715830583901152,42.84572773414824,42.84572773414824,36.507662623830186,88.81848335930728,57.11051568638332,58.674286580217085,66.60324422619237,63.431661167802304,28.54424752551097,23.786872937925864,7.928957645975288,6.343166116780253,17.44370682114561,17.44370682114561,17.44370682114561,65.01745269699734,69.7748272845825,91.98957829414584
10,229,10,0.333666666666666,2.2798037629378087,154.7917922904797,24.18097050821848,29.0619096859548,40.301617513697465,43.55558973414782,38.72312293036621,90.29001551825594,61.258458620820306,62.06449097109419,69.3187821235598,66.09465272246405,29.01716460986222,22.568905807670603,8.060323502739493,6.448258802191617,17.805836600615436,19.41182955878006,18.538744056300914,62.87052332136824,69.31878212355986,82.27849366481196
11,229,11,0.3670333333333326,2.251940275451337,162.45216822761932,23.885433593980565,30.25488255237542,42.99378046916513,46.20595131331059,33.439607031572905,86.00230376928945,55.7554217773874,56.5288595057541,66.8792140631457,63.694489583948325,31.84724479197405,20.700709114783194,11.146535677190855,7.961811197993484,16.003042451736523,15.923622395987081,15.923622395987081,60.50976510475084,55.73267838595473,94.07074509287328
12,229,12,0.4003999999999992,2.26961542567982,160.5582482970901,24.072906872756448,30.534552668534783,41.75722320861012,43.360941824140596,36.9117905382264,89.92948383794491,59.40152029730587,60.18226718189095,70.61386016008538,65.79927878553411,31.294778934583405,21.665616185480644,8.82673252001075,8.82673252001075,16.048604581837594,17.653465040021388,16.85103481092949,65.79927878553406,65.79927878553406,94.70036656857191
13,229,13,0.4337666666666658,1.5923622395987422,160.89951739032355,23.93845348961698,28.70671851992913,41.43202926386243,44.58614270876387,35.06814064814966,87.63780813016906,58.938917345644654,58.9174028651521,66.8792140631457,62.10212734434958,29.45870143257605,23.089252474181308,7.165630078194113,7.165630078194113,15.923622395987024,15.923622395987081,15.923622395987081,63.69448958394827,66.8792140631457,90.76464765712626
14,229,14,0.4671333333333324,2.2534406641385143,159.37418273866513,22.307924444593482,28.68161714304881,43.022425714573046,44.64429380689275,36.683356295465686,89.23169777837393,60.550080635325116,59.75336904801816,70.11061968300805,66.92377333378045,31.86846349227642,20.714501269979678,9.560539047682937,11.153962222296741,16.01370471668048,17.527654920752013,17.527654920752013,58.95665746071137,52.5829647622561,97.31629027027529
15,229,15,0.5004999999999991,2.2250224306859554,158.9373253173226,23.652312874796074,29.93461527875383,44.0531965728444,45.653643315514884,34.64896489270492,86.59025773971442,56.66167173548909,57.426488389600536,67.65312330829659,64.50646641023627,31.466568980603142,20.453269837391872,11.013299143211157,9.439970694181056,15.811755223924044,15.733284490301514,16.519948714816564,66.07979485926637,69.22645175732669,86.54736650068925
16,229,16,0.5338666666666656,2.2618552262630027,156.86907726061867,24.04385086247198,30.43014986305162,41.5837023823733,44.89654431514641,40.016303892431914,92.81877819030785,62.39605498859957,63.17524015783641,73.57116575342974,67.17367307921842,30.38809020250369,22.391224359739454,7.996865842764123,7.996865842764123,17.665654047868557,17.593104854081048,17.593104854081048,60.77618040500715,63.974926742112814,100.77320225723774
17,229,17,0.5672333333333321,1.5872890897985599,158.76065158772695,22.222047257182453,30.158492706176048,42.85680542456612,46.05874252699767,36.54213905800928,88.88818902872964,58.72969632255359,58.72969632255359,69.84071995114476,66.6661417715473,31.74578179597495,20.634758167383552,11.111023628591283,11.111023628591283,17.532181035469723,17.460179987786205,17.460179987786205,63.491563591949784,52.380539963358615,95.56745849348343
18,229,18,0.6005999999999987,1.6178296610087273,160.19781653334542,24.321312783668134,32.39701371466219,42.06357118622918,45.299230508246865,37.21008220320283,93.8480661096131,61.477527118335104,61.477527118335104,72.80233474539688,69.5666754233792,33.974422881185205,22.649615254123546,11.32480762706166,9.706977966052932,17.796126271097023,17.796126271097023,17.796126271097023,66.33101610136163,69.56667542337931,95.45194999952037
19,229,19,0.6339666666666652,2.2418024163402808,158.5510697715162,22.192711669443838,30.160366897262865,42.80022964821319,44.41372134835415,34.874261194840415,88.82744269670798,58.67358418085242,57.859569709621496,69.74852238968072,66.57813500833163,33.289067504165814,20.607517978769238,11.096355834721976,11.096355834721976,15.93099942666491,17.437130597420207,17.437130597420207,61.822553936307884,69.74852238968072,77.73916570092207
20,229,20,0.6673333333333318,1.5782562129331836,154.6771609854628,23.673843193996504,29.986868045728784,41.0346615362605,42.61291774919346,36.299892897461234,89.97444742481747,59.994499026506446,59.97373609145774,69.44327336905627,67.8650171561232,32.354252365128445,21.306458874596842,10.258665384065125,8.680409171131942,15.861278638238934,17.43240964946482,16.57169023579752,63.130248517323935,67.8650171561232,89.97444742481741
21,229,21,0.7006999999999983,1.5978411771075116,158.2185528605638,23.96761765661438,28.80549147054652,41.54387060479826,44.739552959013736,38.38146217289562,91.09096216747986,62.31580590719744,62.31580590719744,70.30501179273557,67.10932943852032,30.35898236504488,22.369776479506868,7.9892058855381265,7.9892058855381265,15.978411771076253,17.57625294818388,16.777332359630066,62.31580590719744,65.5114882614127,97.48140798257009
22,229,22,0.7340666666666649,2.224626667713582,158.90905526151641,22.022680432881202,29.929290832511928,44.045360865762405,44.045360865762405,33.03402064932186,86.57485599935107,56.65159336894538,55.84322538337733,67.64108990099226,64.49499269629496,33.03402064932175,20.449631830532553,11.011340216440544,11.011340216440544,17.303534625835255,17.303534625835198,17.303534625835198,59.77584688924901,66.06804129864366,86.51767312917627
23,229,23,0.7674333333333314,2.2333999602150447,153.1956091853508,22.109531597579007,28.426540625458756,41.060558681218026,42.63981093818802,37.90205416727821,90.031230671473,61.61108151884762,60.80121189334221,71.06635156364672,69.48709930667673,32.374671267883514,19.74065321212413,10.265139670304507,10.265139670304507,17.371774826669196,17.371774826669196,17.37177482666914,61.59083802182715,64.74934253576703,90.0173786472858
24,229,24,0.800799999999998,0.0,153.40107486605748,24.020819981027177,30.401001737909336,38.381462172895795,41.543870604798485,36.75034707347544,91.13299445249787,60.73898531743588,60.71796473008982,70.30501179273557,68.70717061562794,32.755744130706375,21.570855890952885,10.385967651199621,8.788126474091996,15.978411771076253,15.978411771076253,15.978411771076253,63.91364708430507,67.10932943852038,89.49337121997806
25,229,25,0.8341666666666645,1.597497085319219,156.5873129487066,23.96245627978965,30.394454945146297,41.53492421830197,44.729918388940405,35.144935877024636,89.51687206373741,59.12897601444688,59.107392156814285,70.28987175404939,67.09487758341083,33.54743879170553,20.76746210915087,9.584982511915882,9.584982511915882,17.572467938512318,17.644932031256136,16.77371939585271,63.899883412772226,68.69237466873011,86.2648426072426
26,229,26,0.867533333333331,2.2418024163402004,152.2116155906636,23.77790536011844,28.577485666345684,39.62984226686399,42.80022964821319,34.910269734318895,88.78499906474113,60.2373602456334,59.444763400296154,71.33371608035526,68.16332869900617,34.8742611948403,19.022324288094865,9.511162144047262,12.681549525396349,15.93099942666491,17.43713059742015,16.64453375208285,61.82255393630794,66.57813500833163,80.90701880100588
27,229,27,0.9008999999999976,2.2418024163402004,155.38132920997367,23.77790536011844,30.118680122816613,44.41372134835415,44.41372134835393,31.70387381349127,87.20006264805166,57.0889851979339,56.27437601894695,64.99294131765708,61.822553936307884,31.703873813491214,23.77790536011844,7.925968453372775,7.925968453372775,14.266743216071063,14.354539387603626,14.266743216071063,58.6521665549588,61.822553936307884,96.70980764919584
28,229,28,0.934266666666664,3.5970990302818553,159.38842813340486,22.521402269824534,30.56476022333345,45.042804539649296,46.67920360746791,38.641617634925076,93.31681908878795,62.758812643360876,61.933856242017725,69.17287840017565,62.738192037368606,27.347417041929816,27.34741704192993,3.217343181403521,6.434686362807042,5.087066233823708,4.826014772105282,4.826014772105282,56.30350567456162,72.39022158157923,88.53541531222405
29,229,29,0.9676333333333308,3.5869030194790748,159.09845716931733,20.853453348661674,30.520308400000413,43.340714087191124,44.9437660145461,35.32689778768276,89.95907006829418,59.438781954691116,57.7480246578325,65.76858363808708,56.14391286178159,25.66578873681442,28.87401232891625,1.6041117960509155,6.416447184203662,3.5869030194790748,4.81233538815269,4.81233538815269,56.143912861781644,72.18503082229068,80.34983016448878
30,229,30,1.0009999999999972,1.614834178542651,166.96167208250714,22.665277773840455,30.724315640167376,43.719976531683734,46.94142694294867,35.56303376726942,89.0504550182677,58.33553546996373,58.13403042753606,66.20820132024943,51.67469371336546,23.41509558886878,29.874432303039384,0.8074170892713255,4.037085446356741,3.6108789956114506,3.229668357085359,3.229668357085359,59.748864606078826,77.51204057004816,77.66328371985374
