,frame_seq,m1,m3,m4,m5,m6,m7,m8,m9,m10,m11,m12,m13,m14,m15,m16,m17,e1,e2,e3,b1,b2,b3,label_measures
0,0,1.0,89.02246907382428,10.0,14.0356688476182,21.02379604162864,23.0,15.0,40.01249804748511,26.0,25.5,16.0,18.0,2.0,23.0,7.0,7.0,13.0,12.0,12.0,35.0,34.0,33.0,{}
1,1,1.0,90.0222194794152,10.0,14.0,21.02379604162864,22.02271554554524,15.0,40.0,26.0,25.5,16.0,18.0,2.0,23.0,7.0,7.0,13.038404810405298,12.041594578792296,12.5,34.0,34.0,32.0,{}
2,2,1.0,93.04837451562494,10.0,15.0,22.0,23.021728866442675,14.0,39.01281840626232,24.020824298928627,24.0,14.0,17.0,1.5,23.5,7.5,7.5,13.0,12.0,12.5,34.0,34.0,31.0,{}
3,3,1.0,92.04890004774636,10.0,15.0,22.0,23.021728866442675,14.0,39.01281840626232,24.020824298928627,24.0,14.0,17.0,1.5,23.5,7.5,7.5,13.0,12.041594578792296,12.0,34.0,34.0,32.0,{}
4,4,1.0,93.04837451562494,10.0,15.0,22.02271554554524,23.021728866442675,14.0,39.01281840626232,24.020824298928627,24.0,14.0,17.0,1.5,23.5,7.5,7.5,13.0,12.0,12.0,35.0,35.0,32.01562118716424,{}
5,5,0.0,93.02150289046077,9.0,15.0,22.02271554554524,23.021728866442675,15.0,39.0,24.0,24.0,14.0,16.0,0.0,24.0,8.0,8.0,13.0,12.041594578792296,12.0,35.0,35.0,32.0,"{'neutral': (['m1', 'm3', 'm12', 'e1', 'e2'], None, 22)}"
6,6,1.0,92.02173656261871,10.0,14.0,21.02379604162864,22.02271554554524,15.033296378372908,40.01249804748511,26.019223662515376,25.5,15.0,17.0,1.0,24.0,8.0,8.0,13.0,12.0,12.5,34.0,35.0,30.01666203960727,"{'neutral': (['m1', 'm3', 'm12', 'e1', 'e2'], None, 22)}"
7,7,0.0,93.00537618869136,9.0,15.033296378372908,22.0,23.021728866442675,15.0,39.01281840626232,24.0,24.0,15.0,16.0,0.5,23.5,7.5,7.5,13.038404810405298,12.0,12.5,35.0,36.0,30.01666203960727,"{'neutral': (['m1', 'm3', 'm12', 'e1', 'e2'], None, 22)}"
8,8,0.0,93.04837451562494,9.0,15.0,21.0,23.021728866442675,15.0,39.0,24.0,24.0,14.0,17.0,0.5,23.5,7.5,7.5,13.0,13.038404810405298,13.0,34.0,35.0,32.0,"{'neutral': (['m1', 'm3', 'm12', 'e1', 'e2'], None, 22)}"
9,9,1.4142135623730951,94.02127418834527,9.0,14.0,22.0,23.0,15.0,39.01281840626232,25.019992006393608,24.5,14.0,16.0,0.0,24.0,8.0,8.0,13.0,13.038404810405298,13.5,34.0,35.0,32.0,"{'neutral': (['m1', 'm3', 'm12', 'e1', 'e2'], None, 22)}"
10,10,0.0,93.00537618869136,9.0,15.0,21.0,23.021728866442675,15.0,39.0,24.0,24.0,15.0,16.0,0.5,23.5,7.5,7.5,13.0,12.041594578792296,12.5,34.0,36.0,31.0,"{'neutral': (['m1', 'm3', 'm12', 'e1', 'e2'], None, 22)}"
11,11,0.0,94.0,10.0,15.0,22.0,23.0,14.0,39.0,24.0,24.0,15.0,15.0,1.0,24.0,8.0,8.0,12.0,11.04536101718726,11.5,34.0,36.0,33.015148038438355,"{'neutral': (['m1', 'm3', 'm12', 'e1', 'e2'], None, 22)}"
12,12,1.0,96.00520819205592,10.0,14.0,22.02271554554524,23.021728866442675,14.0356688476182,38.0,24.0,24.0,13.0,14.0,0.5,24.5,8.5,9.5,13.0,12.041594578792296,12.0,34.0,36.0,33.015148038438355,"{'neutral': (['m1', 'm3', 'm12', 'e1', 'e2'], None, 22)}"
13,13,0.0,94.0,10.0,14.0,21.0,22.02271554554524,14.0,38.0,24.0,24.0,14.0,14.0,0.0,24.0,8.0,8.0,13.038404810405298,11.04536101718726,12.0,34.0,36.0,31.016124838541646,"{'neutral': (['m1', 'm3', 'm12', 'e1', 'e2'], None, 22)}"
14,14,0.0,94.00531899844816,10.0,14.0,22.02271554554524,23.021728866442675,14.0,38.0,24.0,24.0,14.0,15.0,0.5,23.5,8.5,8.5,13.0,12.0,12.5,33.0,36.0,31.016124838541646,"{'neutral': (['m1', 'm3', 'm12', 'e1', 'e2'], None, 22)}"
15,15,0.0,95.00526301210895,9.0,15.0,21.0,22.02271554554524,15.0,39.0,24.0,24.0,15.0,16.0,0.5,23.5,7.5,7.5,13.0,13.038404810405298,13.0,34.0,36.0,32.01562118716424,"{'neutral': (['m1', 'm3', 'm12', 'e1', 'e2'], None, 22)}"
16,16,0.0,94.00531899844816,10.0,14.0,21.02379604162864,23.0,14.0,38.0,24.0,24.0,15.0,16.0,1.5,22.5,7.5,7.5,12.0,12.041594578792296,12.0,34.0,36.0,33.0,"{'neutral': (['m1', 'm3', 'm12', 'e1', 'e2'], None, 22)}"
17,17,1.0,94.00531899844816,9.0,15.0,22.0,23.021728866442675,15.0,39.01281840626232,24.020824298928627,24.0,15.0,16.0,0.5,23.5,7.5,7.5,13.038404810405298,12.0,12.5,35.0,37.0,33.015148038438355,"{'neutral': (['m1', 'm3', 'm12', 'e1', 'e2'], None, 22)}"
18,18,1.0,94.00531899844816,9.0,14.0,22.0,23.0,15.0,38.01315561749642,24.020824298928627,24.0,16.0,15.0,0.5,22.5,7.5,7.5,13.0,12.0,12.5,35.0,36.0,32.0,"{'neutral': (['m1', 'm3', 'm12', 'e1', 'e2'], None, 22)}"
19,19,1.0,94.00531899844816,9.0,14.0,22.0,23.0,15.0,38.01315561749642,24.020824298928627,24.0,15.0,16.0,0.5,22.5,7.5,7.5,13.038404810405298,12.0,12.5,35.0,36.0,33.0,"{'neutral': (['m1', 'm3', 'm12', 'e1', 'e2'], None, 22)}"
20,20,1.0,95.00526301210895,10.0,14.0,22.0,23.0,15.0,39.01281840626232,25.019992006393608,25.0,15.0,16.0,0.5,23.5,8.5,8.5,13.038404810405298,12.0,12.0,34.0,36.0,32.01562118716424,"{'neutral': (['m1', 'm3', 'm12', 'e1', 'e2'], None, 22)}"
21,21,1.0,95.00526301210895,10.0,15.0,21.0,22.0,15.033296378372908,39.01281840626232,24.020824298928627,24.5,15.0,16.0,0.5,23.5,7.5,7.5,13.0,12.041594578792296,12.0,34.0,36.0,32.01562118716424,"{'neutral': (['m1', 'm3', 'm12', 'e1', 'e2'], None, 22)}"
22,22,1.0,94.00531899844816,10.0,14.0,22.0,22.0,14.0,38.01315561749642,24.020824298928627,24.0,14.0,15.0,0.5,23.5,8.5,8.5,12.0,12.041594578792296,12.5,34.0,35.0,33.015148038438355,"{'neutral': (['m1', 'm3', 'm12', 'e1', 'e2'], None, 22)}"
23,23,1.0,93.0,9.0,15.0,22.0,23.0,15.033296378372908,39.0,24.0,24.0,15.0,15.0,0.0,24.0,8.0,8.0,13.0,12.041594578792296,12.0,34.0,36.0,32.01562118716424,"{'neutral': (['m1', 'm3', 'm12', 'e1', 'e2'], None, 22)}"
24,24,1.0,93.0,10.0,14.0,22.0,23.0,14.0,38.01315561749642,24.020824298928627,24.0,15.0,15.0,1.0,23.0,8.0,8.0,13.0,12.041594578792296,12.5,34.0,35.0,32.01562118716424,"{'neutral': (['m1', 'm3', 'm12', 'e1', 'e2'], None, 22)}"
25,25,1.0,94.0,9.0,15.0,22.0,23.021728866442675,15.0,39.01281840626232,24.020824298928627,24.0,16.0,16.0,1.0,23.0,7.0,7.0,13.0,12.041594578792296,12.0,34.0,36.0,32.0,"{'neutral': (['m1', 'm3', 'm12', 'e1', 'e2'], None, 22)}"
26,26,1.0,93.00537618869136,10.0,14.0,22.0,24.0,14.0,38.01315561749642,24.020824298928627,24.0,14.0,15.0,0.5,23.5,7.5,7.5,13.0,11.04536101718726,11.5,34.0,36.0,32.01562118716424,"{'neutral': (['m1', 'm3', 'm12', 'e1', 'e2'], None, 22)}"
27,27,1.4142135623730951,94.0,9.0,13.0,22.02271554554524,23.0,15.0,38.01315561749642,25.019992006393608,24.5,16.0,16.0,1.0,22.0,7.0,8.0,13.0,12.041594578792296,12.0,34.0,36.0,32.01562118716424,"{'neutral': (['m1', 'm3', 'm12', 'e1', 'e2'], None, 22)}"
28,28,1.0,93.00537618869136,9.0,14.0,22.0,23.0,15.0,38.01315561749642,24.020824298928627,24.0,15.0,16.0,0.5,22.5,7.5,7.5,13.0,13.0,13.0,35.0,36.0,33.0,"{'neutral': (['m1', 'm3', 'm12', 'e1', 'e2'], None, 22)}"
29,29,1.4142135623730951,94.02127418834527,9.0,14.0356688476182,21.0,23.021728866442675,15.0,39.05124837953327,25.019992006393608,24.5,14.0,16.0,0.0,24.0,8.0,8.0,13.0,12.0,12.5,36.0,36.0,32.0,"{'neutral': (['m1', 'm3', 'm12', 'e1', 'e2'], None, 22)}"
30,30,0.0,94.02127418834527,10.0,14.0356688476182,22.02271554554524,23.021728866442675,14.0356688476182,38.05259518088089,24.020824298928627,24.0,14.0,16.0,1.0,23.0,8.0,8.0,13.0,12.0,12.5,35.0,35.0,33.0,"{'neutral': (['m1', 'm3', 'm12', 'e1', 'e2'], None, 22)}"
31,31,1.4142135623730951,94.04786015641186,9.0,14.0,22.0,23.021728866442675,15.0,39.01281840626232,25.019992006393608,24.5,14.0,17.0,0.5,23.5,7.5,7.5,13.038404810405298,12.041594578792296,12.0,35.0,35.0,32.0,"{'neutral': (['m1', 'm3', 'm12', 'e1', 'e2'], None, 22)}"
32,32,1.0,94.02127418834527,10.0,14.0,22.02271554554524,23.021728866442675,14.0,38.01315561749642,24.020824298928627,24.0,14.0,16.0,1.0,23.0,7.0,8.0,13.0,13.038404810405298,13.0,35.0,35.0,31.0,"{'neutral': (['m1', 'm3', 'm12', 'e1', 'e2'], None, 22)}"
33,33,0.0,92.02173656261871,9.055385138137416,14.0,21.0,23.021728866442675,15.0,38.01315561749642,24.020824298928627,24.0,14.0,16.0,0.0,23.0,8.0,8.0,12.0,12.041594578792296,12.0,34.0,34.0,32.01562118716424,"{'neutral': (['m1', 'm3', 'm12', 'e1', 'e2'], None, 22)}"
34,34,1.4142135623730951,93.02150289046077,9.0,14.0,22.02271554554524,23.021728866442675,14.0356688476182,38.05259518088089,24.08318915758459,23.5,14.0,16.0,1.0,23.0,7.0,8.0,13.038404810405298,12.041594578792296,12.5,35.0,35.0,32.0,"{'neutral': (['m1', 'm3', 'm12', 'e1', 'e2'], None, 22)}"
35,35,1.4142135623730951,94.04786015641186,9.0,14.0,22.02271554554524,23.021728866442675,14.0356688476182,38.05259518088089,24.08318915758459,23.5,13.0,16.0,0.5,23.5,7.5,8.5,12.0,12.041594578792296,12.0,35.0,35.0,32.0,{}
36,36,1.4142135623730951,94.04786015641186,9.0,14.0,22.0,22.02271554554524,14.0,38.01315561749642,24.020824298928627,23.5,13.0,16.0,0.5,23.5,7.5,7.5,12.0,12.041594578792296,12.0,35.0,34.0,32.0,{}
37,37,1.0,94.02127418834527,10.0,14.0,22.02271554554524,22.02271554554524,14.0,38.01315561749642,24.020824298928627,24.0,14.0,16.0,1.0,23.0,8.0,8.0,12.041594578792296,11.0,12.0,35.0,34.0,32.0,{}
38,38,1.4142135623730951,93.00537618869136,9.0,13.0,22.0,23.021728866442675,14.0,37.01351104664349,24.020824298928627,23.5,14.0,15.0,0.5,22.5,7.5,7.5,13.0,12.041594578792296,12.5,35.0,35.0,32.0,{}
39,39,1.0,93.04837451562494,10.0,15.033296378372908,22.02271554554524,23.021728866442675,14.0356688476182,38.05259518088089,23.021728866442675,23.5,13.0,16.0,0.5,23.5,7.5,8.5,12.0,12.041594578792296,12.0,35.0,35.0,31.0,{}
40,40,1.0,93.02150289046077,9.0,15.0,22.02271554554524,23.021728866442675,14.0,38.01315561749642,23.021728866442675,23.0,13.0,15.0,0.0,24.0,8.0,9.0,13.0,12.041594578792296,12.0,35.0,35.0,31.016124838541646,{}
41,41,1.0,92.02173656261871,9.0,14.0,22.0,23.021728866442675,15.0,38.01315561749642,24.020824298928627,24.0,14.0,16.0,0.0,23.0,7.0,8.0,13.038404810405298,11.0,12.0,35.0,35.0,32.0,{}
42,42,1.0,94.02127418834527,10.0,14.0,22.02271554554524,23.021728866442675,14.0,38.01315561749642,24.020824298928627,24.0,14.0,16.0,1.0,23.0,7.0,8.0,13.038404810405298,12.041594578792296,12.0,35.0,35.0,31.0,{}
43,43,0.0,93.02150289046077,10.0,14.0356688476182,22.02271554554524,22.02271554554524,14.0356688476182,38.05259518088089,24.020824298928627,24.0,14.0,16.0,1.0,23.0,7.0,8.0,13.0,12.041594578792296,12.5,35.0,35.0,32.01562118716424,{}
44,44,1.4142135623730951,91.02197536858888,9.0,14.0,22.0,23.021728866442675,14.0,38.01315561749642,24.020824298928627,23.5,14.0,16.0,1.0,23.0,7.0,7.0,13.038404810405298,12.0,12.5,35.0,35.0,31.0,{}
45,45,0.0,94.02127418834527,10.0,14.0356688476182,22.02271554554524,23.021728866442675,14.0356688476182,38.05259518088089,24.020824298928627,24.0,14.0,16.0,1.0,23.0,7.0,8.0,13.038404810405298,12.0,12.0,34.0,34.0,32.01562118716424,{}
46,46,1.0,92.00543462209176,9.055385138137416,14.0,21.02379604162864,23.021728866442675,15.033296378372908,39.0,25.0,24.5,16.0,17.0,1.5,22.5,6.5,7.5,13.0,12.041594578792296,12.5,35.0,35.0,32.01562118716424,{}
47,47,1.4142135623730951,93.02150289046077,9.0,13.0,21.0,23.0,14.0,37.01351104664349,24.020824298928627,23.5,14.0,16.0,1.0,22.0,7.0,7.0,13.038404810405298,12.0,12.5,34.0,34.0,33.0,{}
48,48,1.0,92.00543462209176,9.0,13.0,22.0,23.021728866442675,15.0,38.0,25.0,24.5,16.0,17.0,1.5,21.5,6.5,6.5,13.038404810405298,12.041594578792296,12.0,34.0,34.0,32.0,{}
49,49,0.0,93.00537618869136,9.055385138137416,14.0356688476182,21.02379604162864,23.021728866442675,15.0,38.05259518088089,24.020824298928627,24.0,15.0,16.0,0.5,22.5,7.5,7.5,13.0,11.0,12.0,35.0,34.0,32.0,{}
50,50,0.0,93.00537618869136,10.04987562112089,14.0356688476182,21.0,23.0,14.0,38.05259518088089,24.020824298928627,24.0,15.0,16.0,1.5,22.5,7.5,7.5,12.041594578792296,11.04536101718726,12.0,36.0,36.0,32.0,{}
51,51,0.0,91.00549433962765,10.04987562112089,14.0356688476182,22.02271554554524,23.021728866442675,14.0,38.05259518088089,24.020824298928627,24.0,15.0,16.0,1.5,22.5,7.5,7.5,12.0,12.041594578792296,12.0,35.0,34.0,31.0,{}
52,52,1.0,93.02150289046077,10.0,14.0,22.02271554554524,23.021728866442675,14.0356688476182,38.05259518088089,24.08318915758459,24.0,14.0,16.0,1.0,23.0,8.0,8.0,12.0,11.04536101718726,12.0,35.0,35.0,31.0,{}
53,53,1.0,91.00549433962765,10.0,14.0,22.02271554554524,23.021728866442675,14.0356688476182,38.05259518088089,24.08318915758459,24.0,15.0,16.0,1.5,22.5,6.5,7.5,12.041594578792296,12.0,12.5,35.0,35.0,31.0,{}
54,54,1.0,93.00537618869136,9.055385138137416,14.0,22.02271554554524,23.021728866442675,14.0,38.01315561749642,24.020824298928627,23.5,15.0,16.0,1.5,22.5,6.5,7.5,12.041594578792296,12.0,12.0,35.0,36.0,31.016124838541646,{}
55,55,1.0,92.00543462209176,9.0,14.0356688476182,22.0,23.021728866442675,15.033296378372908,39.05124837953327,25.019992006393608,24.5,16.0,17.0,1.5,22.5,6.5,6.5,14.0356688476182,12.0,12.5,35.0,35.0,32.01562118716424,{}
56,56,1.4142135623730951,93.00537618869136,9.0,13.0,23.0,24.0,15.0,38.01315561749642,25.019992006393608,24.5,16.0,17.0,1.5,21.5,6.5,6.5,12.0,12.0,12.5,35.0,35.0,31.016124838541646,{}
57,57,0.0,93.00537618869136,10.0,14.0,22.02271554554524,23.021728866442675,14.0356688476182,38.01315561749642,24.020824298928627,24.0,15.0,16.0,1.5,22.5,6.5,7.5,14.0356688476182,13.0,13.5,36.0,35.0,31.016124838541646,{}
58,58,0.0,93.00537618869136,10.0,14.0,22.02271554554524,23.021728866442675,14.0356688476182,38.01315561749642,24.020824298928627,24.0,15.0,16.0,1.5,22.5,6.5,7.5,14.0,12.041594578792296,12.5,36.0,35.0,31.016124838541646,{}
59,59,1.0,93.00537618869136,10.0,14.0,22.02271554554524,22.02271554554524,14.0,38.01315561749642,24.020824298928627,24.0,15.0,16.0,1.5,22.5,6.5,7.5,13.0,12.041594578792296,12.5,35.0,35.0,31.0,{}
60,60,0.0,92.0,10.0,14.0,22.0,23.0,14.0356688476182,38.01315561749642,24.020824298928627,24.0,16.0,16.0,2.0,22.0,7.0,7.0,13.0,13.0,13.0,35.0,35.0,31.0,{}
61,61,0.0,92.00543462209176,9.0,14.0,22.0,23.0,15.033296378372908,38.01315561749642,24.020824298928627,24.0,16.0,17.0,1.5,21.5,6.5,6.5,13.038404810405298,13.0,13.0,35.0,35.0,31.016124838541646,{}
62,62,1.0,92.00543462209176,9.0,13.038404810405298,22.02271554554524,24.0,15.033296378372908,38.05259518088089,25.019992006393608,24.5,16.0,17.0,1.5,21.5,6.5,7.5,13.0,13.0,13.0,35.0,34.0,31.0,{}
63,63,0.0,92.00543462209176,11.04536101718726,15.0,22.0,23.0,14.0,40.01249804748511,25.019992006393608,25.0,16.0,17.0,2.5,23.5,6.5,6.5,13.038404810405298,13.0,13.0,35.0,35.0,31.016124838541646,{}
64,64,1.4142135623730951,92.00543462209176,11.0,15.0,23.021728866442675,24.020824298928627,14.0,41.01219330881976,26.019223662515376,25.5,16.0,17.0,2.5,24.5,7.5,7.5,13.038404810405298,12.0,12.5,35.0,35.0,31.0,{}
65,65,1.4142135623730951,92.00543462209176,11.0,16.0,23.0,24.0,15.0,43.01162633521314,27.018512172212592,26.5,17.0,18.0,2.5,25.5,7.5,7.5,13.038404810405298,12.0,12.5,35.0,34.0,31.016124838541646,{}
66,66,7.071067811865476,91.0,10.0,16.0,23.0,25.019992006393608,14.0,47.01063709417264,31.016124838541646,27.5,19.0,19.0,5.0,28.0,11.0,4.0,13.038404810405298,12.0,12.5,35.0,35.0,31.0,{}
67,67,10.04987562112089,89.00561780022652,10.0,15.033296378372908,23.0,25.0,13.0,48.04164859785725,33.015148038438355,28.0,19.0,20.0,6.5,28.5,11.5,2.5,13.0,13.0,13.0,35.0,35.0,31.0,{}
68,68,13.038404810405298,89.0,10.0,15.0,23.0,25.019992006393608,14.0,52.009614495783374,37.01351104664349,30.5,21.0,21.0,7.0,31.0,14.0,2.0,13.0,12.0,12.5,35.0,35.0,31.016124838541646,{}
69,69,14.0,90.0,9.0,16.0312195418814,22.02271554554524,24.0,14.0,53.009433122794285,37.0,30.0,21.0,21.0,7.0,32.0,14.0,1.0,14.0,13.0,13.0,35.0,35.0,32.01562118716424,{}
70,70,14.0356688476182,91.00549433962765,10.0,16.0,22.0,24.0,13.0,53.009433122794285,37.01351104664349,30.0,21.0,20.0,7.5,32.5,14.5,1.5,13.038404810405298,12.0,12.5,36.0,37.0,31.016124838541646,{}
71,71,13.0,90.0,10.0,17.029386365926403,22.0,23.0,14.0,54.00925846556311,37.0,30.5,21.0,21.0,7.0,33.0,15.0,2.0,13.038404810405298,13.038404810405298,13.0,34.0,36.0,31.016124838541646,{}
72,72,15.0,93.00537618869136,10.0,17.029386365926403,23.0,25.0,13.0,55.00909015790027,38.0,30.5,21.0,20.0,7.5,34.5,16.5,1.5,13.038404810405298,12.041594578792296,13.0,34.0,36.0,32.01562118716424,{}
73,73,16.0,92.00543462209176,10.0,16.0312195418814,22.02271554554524,25.0,14.0,56.00892785976178,40.0,32.0,22.0,21.0,7.5,34.5,16.5,0.5,13.038404810405298,13.038404810405298,13.0,35.0,37.0,32.01562118716424,{}
74,74,16.0,92.00543462209176,10.04987562112089,17.0,23.0,25.0,14.0356688476182,57.0,40.0,32.0,22.0,21.0,7.5,35.5,16.5,1.5,13.0,13.0,13.0,34.0,37.0,32.01562118716424,{}
75,75,17.029386365926403,92.00543462209176,10.0,17.0,23.0,24.020824298928627,14.0356688476182,58.0,41.0,32.5,23.0,22.0,8.5,35.5,17.5,0.5,13.038404810405298,12.0,12.5,35.0,38.0,32.01562118716424,{}
76,76,17.029386365926403,92.00543462209176,9.0,17.0,24.0,26.0,14.0356688476182,57.0,40.0,31.5,22.0,21.0,7.5,35.5,16.5,0.5,11.04536101718726,11.04536101718726,11.5,35.0,38.0,30.066592756745816,{}
77,77,18.0,92.00543462209176,10.0,17.0,23.0,26.0,14.0356688476182,59.00847396772772,42.01190307520001,33.0,23.0,22.0,8.5,36.5,17.5,0.5,12.0,11.0,11.0,35.0,38.0,32.0624390837628,{}
78,78,21.0,92.02173656261871,9.055385138137416,17.0,24.020824298928627,26.0,14.142135623730953,61.07372593840988,44.10215414239989,33.5,24.0,22.0,9.0,38.0,19.0,1.0,12.0,11.04536101718726,11.5,34.0,38.0,32.01562118716424,{}
79,79,22.0,91.02197536858888,10.0,17.029386365926403,23.0,25.0,14.0356688476182,63.0317380372777,46.01086828130936,35.0,25.0,23.0,10.0,39.0,20.0,1.0,12.0,11.0,11.0,35.0,39.0,32.0624390837628,{}
80,80,22.0,91.02197536858888,10.0,18.027756377319943,24.020824298928627,27.0,14.142135623730953,64.07027391856539,46.04345773288535,35.0,26.0,24.0,11.0,39.0,20.0,2.0,11.0,10.04987562112089,11.0,34.0,39.0,32.0624390837628,{}
81,81,24.0,90.0499861188218,9.055385138137416,17.0,24.020824298928627,27.018512172212592,15.132745950421556,65.06919393998976,48.0936586256442,36.0,27.0,24.0,10.5,39.5,21.5,2.5,11.0,11.0,11.0,33.0,39.0,33.06055050963308,{}
82,82,24.0,92.04890004774636,10.0,18.027756377319943,23.08679276123039,26.019223662515376,14.317821063276352,66.12110101926616,48.0936586256442,36.0,26.0,23.0,10.5,41.5,22.5,2.5,12.041594578792296,11.04536101718726,11.5,33.0,39.0,32.14031735997639,{}
83,83,26.019223662515376,91.08786966440702,10.0,16.0,23.08679276123039,25.019992006393608,14.317821063276352,66.12110101926616,50.15974481593781,37.0,27.0,23.0,11.0,41.0,23.0,3.0,13.0,12.041594578792296,12.5,32.0,39.0,32.14031735997639,{}
84,84,27.0,89.20201791439474,10.04987562112089,15.033296378372908,23.08679276123039,26.0768096208106,13.341664064126334,65.19202405202648,50.15974481593781,36.5,28.0,22.0,12.0,40.0,24.0,4.0,13.038404810405298,11.04536101718726,11.5,31.0,38.0,32.14031735997639,{}
85,85,27.018512172212592,89.1403387922662,9.0,16.0312195418814,23.08679276123039,26.0768096208106,13.341664064126334,65.19202405202648,49.16299421312742,35.5,28.0,23.0,12.5,39.5,22.5,4.5,12.0,11.04536101718726,11.5,32.0,39.0,32.0624390837628,{}
86,86,26.0,90.13878188659972,10.04987562112089,16.0312195418814,24.08318915758459,27.018512172212592,14.142135623730953,66.12110101926616,50.08991914547278,37.0,28.0,23.0,11.5,40.5,22.5,3.5,13.0,12.041594578792296,12.5,32.0,40.0,31.14482300479488,{}
87,87,24.0,90.08884503644168,9.0,15.033296378372908,24.020824298928627,26.019223662515376,14.317821063276352,62.12889826803627,47.09564735726647,35.0,26.0,22.0,10.0,38.0,22.0,3.0,13.0,11.04536101718726,11.5,33.0,40.0,32.14031735997639,{}
88,88,22.02271554554524,92.0869154657707,10.0,16.0,24.020824298928627,27.018512172212592,14.142135623730953,62.07253821135398,46.09772228646444,35.0,25.0,21.0,9.0,39.0,22.0,0.0,12.0,11.04536101718726,11.5,32.0,39.0,32.14031735997639,{}
89,89,18.0,90.13878188659972,10.04987562112089,16.0,23.021728866442675,26.019223662515376,13.152946437965904,57.07889277132134,41.10960958218893,32.0,23.0,18.0,7.5,36.5,19.5,1.5,13.0,11.04536101718726,12.0,32.0,39.0,31.14482300479488,{}
90,90,17.0,89.1403387922662,10.0,15.033296378372908,23.021728866442675,25.019992006393608,13.341664064126334,55.14526271584895,40.11234224026316,31.5,23.0,18.0,7.5,34.5,18.5,0.5,13.0,12.041594578792296,12.5,31.0,38.0,31.14482300479488,{}
91,91,17.0,90.08884503644168,10.04987562112089,15.033296378372908,23.021728866442675,25.019992006393608,14.142135623730953,56.1426753904728,41.10960958218893,32.5,23.0,19.0,7.0,35.0,18.0,1.0,12.0,11.04536101718726,11.5,32.0,40.0,31.14482300479488,{}
92,92,14.0,90.08884503644168,10.04987562112089,17.029386365926403,23.021728866442675,24.020824298928627,14.0356688476182,55.08175741568164,38.05259518088089,31.0,22.0,18.0,6.0,35.0,17.0,2.0,12.041594578792296,11.04536101718726,11.5,32.0,40.0,31.14482300479488,{}
93,93,14.0356688476182,88.09086218218096,10.0,16.0,23.021728866442675,25.019992006393608,14.142135623730953,54.08326913195984,38.11823710509184,31.0,23.0,19.0,7.0,33.0,16.0,1.0,12.0,12.041594578792296,12.5,31.0,39.0,32.14031735997639,{}
94,94,11.0,88.05112151472007,10.0,16.0312195418814,22.09072203437452,24.020824298928627,14.142135623730953,51.0881590977792,35.05709628591621,29.5,22.0,19.0,6.5,30.5,13.5,1.5,12.041594578792296,12.041594578792296,12.0,31.0,40.0,31.14482300479488,{}
95,95,4.0,86.09297300012354,10.04987562112089,16.0312195418814,21.02379604162864,22.02271554554524,16.0312195418814,46.09772228646444,30.066592756745816,28.0,24.0,20.0,6.0,24.0,7.0,3.0,12.041594578792296,11.04536101718726,11.5,30.0,39.0,31.25699921617557,{}
96,96,1.0,85.0235261559999,11.04536101718726,14.0356688476182,21.02379604162864,22.02271554554524,17.029386365926403,42.04759208325728,28.0178514522438,28.0,24.0,22.0,6.0,19.0,4.0,3.0,11.0,11.04536101718726,11.5,31.0,39.0,31.25699921617557,{}
97,97,0.0,84.09518416651456,11.0,15.0,22.02271554554524,23.021728866442675,16.1245154965971,42.04759208325728,27.073972741361768,27.0,25.0,21.0,7.0,19.0,3.0,3.0,5.0990195135927845,5.0,5.0,32.0,39.0,31.25699921617557,{}
98,98,1.0,85.0235261559999,12.0,14.0356688476182,21.02379604162864,23.021728866442675,16.0312195418814,41.04875150354759,27.018512172212592,27.5,25.0,23.0,8.0,17.0,2.0,2.0,2.8284271247461903,3.0,2.5,33.0,39.0,32.14031735997639,{}
99,99,1.0,85.09406559801923,12.0,15.033296378372908,21.02379604162864,23.08679276123039,16.0312195418814,42.04759208325728,27.018512172212592,27.5,27.0,23.0,9.0,17.0,2.0,2.0,2.8284271247461903,2.0,2.0,32.0,40.0,32.0624390837628,{}
100,100,1.0,83.21658488546619,11.04536101718726,15.033296378372908,22.09072203437452,23.08679276123039,17.11724276862369,42.190046219457976,27.16615541441225,27.5,29.0,23.0,9.0,16.0,1.0,0.0,3.605551275463989,4.0,3.5,30.0,39.0,31.14482300479488,{}
101,101,1.0,82.38931969618392,12.041594578792296,16.0312195418814,22.20360331117452,23.194827009486403,17.11724276862369,44.181444068749045,28.16025568065745,28.5,31.0,23.0,10.0,17.0,1.0,1.0,6.324555320336759,5.0990195135927845,5.5,30.0,41.0,31.25699921617557,{}
102,102,0.0,84.5931439302264,12.041594578792296,15.132745950421556,22.09072203437452,24.186773244895647,18.24828759089466,45.39823785126467,30.26549190084312,30.0,32.0,22.0,9.0,18.0,3.0,1.0,7.280109889280518,6.082762530298219,6.5,28.0,42.0,31.400636936215164,{}
103,103,4.123105625617661,81.88406438373708,11.180339887498947,15.132745950421556,22.36067977499789,23.345235059857504,19.235384061671343,49.64876634922564,34.52535300326414,32.0,34.0,22.0,9.0,21.0,6.0,1.0,7.280109889280518,6.082762530298219,6.5,26.0,44.0,31.575306807693888,{}
104,104,5.0990195135927845,78.26237921249263,12.041594578792296,15.297058540778355,20.223748416156685,22.20360331117452,18.43908891458577,50.80354318352215,35.510561809129406,32.5,36.0,22.0,11.0,21.0,6.0,2.0,8.246211251235321,7.280109889280518,7.0,26.0,45.0,31.78049716414141,{}
105,105,3.1622776601683795,78.08969202141856,11.180339887498947,14.142135623730953,20.39607805437113,21.213203435596427,19.4164878389476,47.8539444560216,33.734255586866,31.5,35.0,22.0,9.5,18.5,4.5,1.5,8.54400374531753,8.246211251235321,8.0,25.0,45.0,31.04834939252005,{}
106,106,0.0,77.27871634544663,11.180339887498947,13.341664064126334,20.223748416156685,21.37755832643195,20.39607805437113,44.91102314577124,31.575306807693888,31.0,36.0,22.0,9.0,15.0,3.0,1.0,9.486832980505138,9.486832980505138,9.0,26.0,46.0,32.01562118716424,{}
107,107,1.0,77.27871634544663,12.041594578792296,13.341664064126334,19.235384061671343,21.37755832643195,18.43908891458577,43.93176527297759,30.59411708155671,30.0,35.0,21.0,10.0,15.0,2.0,1.0,9.486832980505138,9.486832980505138,9.0,26.0,47.0,31.04834939252005,{}
108,108,1.0,80.06247560499239,11.180339887498947,15.132745950421556,20.39607805437113,21.37755832643195,20.39607805437113,46.87216658103186,31.78049716414141,31.0,36.0,23.0,9.5,16.5,2.5,1.5,10.198039027185567,9.219544457292889,9.0,25.0,45.0,32.01562118716424,{}
109,109,8.06225774829855,77.6659513557904,13.152946437965904,14.317821063276352,19.6468827043885,21.37755832643195,17.72004514666935,53.150729063673246,38.8329756778952,34.0,40.0,24.0,15.0,20.0,7.0,5.0,10.198039027185567,9.486832980505138,9.5,27.0,48.0,32.55764119219941,{}
110,110,13.038404810405298,84.52810183601665,12.16552506059644,17.26267650163207,21.587033144922906,24.515301344262525,18.68154169226941,61.0,43.73785545725808,36.5,42.0,26.0,16.0,26.0,10.0,6.0,10.44030650891055,9.219544457292889,9.5,26.0,47.0,32.7566787083184,{}
111,111,18.110770276274835,86.31338250816034,12.041594578792296,15.132745950421556,21.37755832643195,23.53720459187964,16.15549442140351,61.0,45.89117562233506,36.0,39.0,24.0,16.5,28.5,14.5,7.5,10.198039027185567,9.486832980505138,9.5,26.0,47.0,31.78049716414141,{}
112,112,17.029386365926403,87.47571091451616,11.04536101718726,15.297058540778355,22.36067977499789,24.33105012119288,16.76305461424021,59.84145720150872,44.553338819890925,35.5,38.0,22.0,14.0,29.0,15.0,6.0,11.180339887498947,10.44030650891055,10.5,26.0,48.0,32.984845004941285,{}
113,113,18.027756377319943,87.29833904490967,11.180339887498947,13.341664064126334,23.53720459187964,25.495097567963924,16.492422502470642,58.85575587824864,45.5411901469428,36.0,38.0,23.0,14.5,27.5,14.5,6.5,10.198039027185567,10.198039027185567,10.0,26.0,48.0,32.984845004941285,{}
114,114,5.0990195135927845,81.39410298049853,13.152946437965904,16.278820596099706,22.36067977499789,23.53720459187964,18.43908891458577,52.952809179494906,36.6742416417845,33.5,38.0,23.0,12.5,21.5,6.5,2.5,11.180339887498947,10.198039027185567,10.0,27.0,48.0,31.78049716414141,{}
115,115,3.605551275463989,80.89499366462674,12.041594578792296,14.142135623730953,20.223748416156685,21.37755832643195,19.4164878389476,48.83646178829912,34.713109915419565,32.5,33.0,21.0,8.0,21.0,7.0,1.0,11.180339887498947,10.198039027185567,10.0,27.0,46.0,32.984845004941285,{}
116,116,1.4142135623730951,78.91767862779544,12.041594578792296,13.152946437965904,20.223748416156685,22.36067977499789,19.6468827043885,45.89117562233506,32.7566787083184,31.5,33.0,21.0,8.0,18.0,4.0,1.0,11.180339887498947,10.198039027185567,10.0,27.0,45.0,32.7566787083184,{}
117,117,1.4142135623730951,82.87339742040264,11.04536101718726,14.142135623730953,21.37755832643195,22.36067977499789,19.6468827043885,45.89117562233506,31.78049716414141,30.5,33.0,21.0,8.0,18.0,4.0,0.0,11.180339887498947,10.198039027185567,10.0,27.0,46.0,33.734255586866,{}
118,118,5.0990195135927845,82.20097323024831,11.04536101718726,16.278820596099706,22.20360331117452,23.345235059857504,17.72004514666935,50.00999900019995,33.734255586866,30.5,35.0,21.0,11.0,21.0,6.0,3.0,10.198039027185567,10.44030650891055,10.0,28.0,46.0,32.7566787083184,{}
119,119,8.06225774829855,83.02409288875127,10.198039027185567,15.297058540778355,21.213203435596427,23.345235059857504,15.524174696260024,49.03060268852505,33.734255586866,29.0,33.0,20.0,11.5,21.5,6.5,3.5,10.198039027185567,9.219544457292889,9.5,27.0,46.0,32.7566787083184,{}
120,120,8.06225774829855,83.86298349093002,10.04987562112089,15.297058540778355,22.20360331117452,23.345235059857504,16.492422502470642,49.8196748283246,34.52535300326414,30.0,32.0,20.0,10.0,23.0,8.0,3.0,10.198039027185567,10.198039027185567,10.5,27.0,45.0,33.734255586866,{}
121,121,4.123105625617661,86.57944328765345,10.198039027185567,13.152946437965904,22.20360331117452,23.194827009486403,16.278820596099706,43.73785545725808,30.59411708155671,28.0,30.0,20.0,9.0,18.0,5.0,1.0,11.180339887498947,10.198039027185567,10.5,27.0,45.0,33.734255586866,{}
122,122,4.123105625617661,85.70880934886448,10.04987562112089,14.142135623730953,22.20360331117452,22.36067977499789,16.492422502470642,44.7213595499958,30.59411708155671,28.0,31.0,20.0,9.5,18.5,4.5,2.5,11.180339887498947,10.44030650891055,10.0,27.0,45.0,34.713109915419565,{}
123,123,10.04987562112089,87.69264507357501,9.219544457292889,15.132745950421556,23.345235059857504,24.33105012119288,16.278820596099706,50.635955604688654,35.510561809129406,30.0,31.0,20.0,9.5,24.5,9.5,3.5,10.198039027185567,10.198039027185567,10.0,27.0,44.0,32.7566787083184,{}
124,124,13.038404810405298,86.83317338436964,9.055385138137416,16.1245154965971,23.194827009486403,24.33105012119288,16.492422502470642,54.589376255824725,38.47076812334269,31.5,33.0,21.0,11.0,27.0,11.0,4.0,11.180339887498947,10.198039027185567,10.5,27.0,46.0,32.7566787083184,{}
125,125,13.038404810405298,86.97700845625813,9.055385138137416,17.11724276862369,23.345235059857504,24.33105012119288,15.524174696260024,54.589376255824725,37.48332962798263,30.5,33.0,20.0,11.5,27.5,11.5,4.5,12.041594578792296,11.180339887498947,11.0,28.0,47.0,32.984845004941285,{}
126,126,16.1245154965971,86.97700845625813,10.04987562112089,16.1245154965971,22.36067977499789,25.317977802344327,15.524174696260024,57.706152185014034,41.593268686170845,33.0,34.0,21.0,12.5,29.5,14.5,5.5,11.180339887498947,10.44030650891055,10.5,26.0,45.0,32.7566787083184,{}
127,127,18.027756377319943,86.97700845625813,9.055385138137416,16.1245154965971,22.36067977499789,24.515301344262525,15.524174696260024,58.54912467321779,42.42640687119285,33.0,34.0,21.0,12.5,30.5,15.5,5.5,11.180339887498947,11.180339887498947,11.0,27.0,47.0,32.7566787083184,{}
128,128,17.11724276862369,86.31338250816034,9.055385138137416,15.132745950421556,22.20360331117452,24.515301344262525,15.524174696260024,56.71860364994893,41.593268686170845,32.5,35.0,20.0,12.5,28.5,14.5,5.5,11.180339887498947,10.44030650891055,10.5,26.0,46.0,31.78049716414141,{}
129,129,14.0356688476182,86.97700845625813,10.198039027185567,15.132745950421556,22.36067977499789,24.515301344262525,15.524174696260024,54.74486277268398,39.6232255123179,32.0,33.0,20.0,11.5,27.5,12.5,4.5,12.041594578792296,11.40175425099138,11.5,27.0,46.0,31.78049716414141,{}
130,130,12.041594578792296,85.98837130682264,9.219544457292889,15.132745950421556,23.194827009486403,24.33105012119288,15.524174696260024,51.78802950489621,36.6742416417845,30.0,31.0,18.0,9.5,26.5,12.5,2.5,11.180339887498947,10.198039027185567,10.5,26.0,46.0,32.01562118716424,{}
131,131,10.04987562112089,85.0,10.04987562112089,16.1245154965971,22.36067977499789,24.33105012119288,15.524174696260024,51.62363799656123,35.510561809129406,30.0,31.0,18.0,9.5,26.5,10.5,2.5,11.180339887498947,11.180339887498947,11.0,27.0,46.0,31.78049716414141,{}
132,132,11.180339887498947,85.0,10.04987562112089,15.132745950421556,21.37755832643195,23.345235059857504,15.524174696260024,51.78802950489621,36.6742416417845,30.5,31.0,18.0,9.5,26.5,11.5,2.5,12.16552506059644,11.40175425099138,11.0,27.0,47.0,32.984845004941285,{}
133,133,10.04987562112089,84.8528137423857,10.198039027185567,15.132745950421556,21.213203435596427,23.345235059857504,15.297058540778355,50.635955604688654,35.510561809129406,30.0,30.0,18.0,9.0,26.0,11.0,2.0,11.180339887498947,10.198039027185567,11.0,26.0,46.0,32.7566787083184,{}
134,134,10.0,83.86298349093002,10.198039027185567,15.297058540778355,21.213203435596427,22.36067977499789,15.524174696260024,50.80354318352215,35.510561809129406,30.0,31.0,19.0,10.0,25.0,11.0,2.0,12.16552506059644,11.40175425099138,11.5,26.0,46.0,33.734255586866,{}
135,135,11.04536101718726,83.72574275573791,10.198039027185567,15.132745950421556,20.223748416156685,22.36067977499789,15.524174696260024,51.78802950489621,36.6742416417845,30.5,31.0,20.0,10.5,25.5,11.5,3.5,13.152946437965904,11.180339887498947,11.5,27.0,47.0,32.7566787083184,{}
136,136,13.038404810405298,82.87339742040264,9.055385138137416,15.297058540778355,21.37755832643195,22.20360331117452,15.524174696260024,52.773099207835045,37.48332962798263,30.5,32.0,20.0,11.0,26.0,12.0,5.0,12.16552506059644,11.180339887498947,11.5,27.0,46.0,31.78049716414141,{}
137,137,16.0312195418814,81.74350127074322,9.219544457292889,15.132745950421556,20.223748416156685,22.20360331117452,15.297058540778355,55.57877292636101,40.44749683231337,32.0,33.0,22.0,12.5,27.5,12.5,5.5,12.16552506059644,11.180339887498947,11.5,27.0,46.0,31.78049716414141,{}
138,138,16.0312195418814,82.60750571225353,9.055385138137416,14.142135623730953,21.095023109728988,23.194827009486403,16.492422502470642,55.57877292636101,41.43669871020132,33.0,33.0,23.0,12.0,27.0,13.0,5.0,8.246211251235321,7.280109889280518,7.5,27.0,43.0,31.78049716414141,{}
139,139,11.04536101718726,83.48652585896721,10.04987562112089,13.152946437965904,21.095023109728988,22.20360331117452,16.1245154965971,50.35871324805669,37.21558813185679,31.5,31.0,22.0,10.5,23.5,10.5,2.5,3.605551275463989,4.123105625617661,3.5,28.0,44.0,30.59411708155671,{}
140,140,3.1622776601683795,83.38465086573187,10.04987562112089,13.038404810405298,20.09975124224178,21.213203435596427,17.26267650163207,43.41658669218482,30.4138126514911,28.5,30.0,22.0,9.0,17.0,5.0,1.0,4.47213595499958,5.385164807134504,4.5,29.0,43.0,29.42787793912432,{}
141,141,3.1622776601683795,84.48076704197234,9.055385138137416,13.152946437965904,21.095023109728988,23.08679276123039,18.24828759089466,43.56604182158393,30.4138126514911,28.5,31.0,22.0,8.5,16.5,4.5,1.5,4.47213595499958,4.123105625617661,4.0,27.0,41.0,31.400636936215164,{}
142,142,7.071067811865476,85.47514258543241,10.04987562112089,15.132745950421556,22.09072203437452,23.194827009486403,16.278820596099706,48.507731342539614,33.37663853655727,29.5,31.0,22.0,10.5,21.5,6.5,2.5,4.47213595499958,4.123105625617661,4.0,26.0,39.0,32.55764119219941,{}
143,143,11.04536101718726,83.60023923410746,10.04987562112089,16.0312195418814,22.20360331117452,24.186773244895647,15.297058540778355,52.3450093132096,36.345563690772494,30.5,32.0,22.0,12.0,25.0,9.0,4.0,5.0,4.123105625617661,4.0,28.0,43.0,33.37663853655727,{}
144,144,11.0,81.74350127074322,10.04987562112089,17.11724276862369,21.213203435596427,23.194827009486403,16.492422502470642,54.45181356024793,37.33630940518894,31.5,35.0,24.0,13.5,24.5,7.5,5.5,5.0,5.0990195135927845,5.0,28.0,44.0,33.734255586866,{}
145,145,13.038404810405298,83.72574275573791,9.055385138137416,16.1245154965971,22.20360331117452,24.186773244895647,16.278820596099706,54.45181356024793,38.3275357934736,31.5,34.0,23.0,12.5,25.5,9.5,5.5,6.324555320336759,5.0990195135927845,5.5,28.0,43.0,33.54101966249684,{}
146,146,10.04987562112089,82.73451516749222,10.04987562112089,17.11724276862369,22.20360331117452,24.33105012119288,16.492422502470642,53.60037313302959,36.49657518178932,31.0,34.0,23.0,12.5,24.5,8.5,5.5,6.324555320336759,6.324555320336759,6.0,28.0,44.0,33.54101966249684,{}
147,147,12.041594578792296,82.60750571225353,9.055385138137416,16.1245154965971,21.213203435596427,23.194827009486403,16.278820596099706,53.46026561849464,37.33630940518894,31.0,33.0,23.0,12.0,25.0,9.0,5.0,8.246211251235321,8.246211251235321,8.0,28.0,45.0,30.59411708155671,{}
148,148,12.041594578792296,82.60750571225353,9.055385138137416,16.1245154965971,21.095023109728988,22.20360331117452,16.278820596099706,53.46026561849464,37.33630940518894,31.0,33.0,23.0,12.0,25.0,9.0,5.0,10.198039027185567,8.06225774829855,8.5,28.0,44.0,32.55764119219941,{}
149,149,13.038404810405298,81.74350127074322,9.055385138137416,16.1245154965971,21.213203435596427,23.194827009486403,16.278820596099706,54.45181356024793,38.3275357934736,31.5,33.0,22.0,11.5,26.5,10.5,4.5,9.219544457292889,8.06225774829855,8.5,28.0,44.0,31.575306807693888,{}
150,150,13.038404810405298,82.73451516749222,9.055385138137416,16.1245154965971,22.20360331117452,24.186773244895647,15.524174696260024,53.60037313302959,37.48332962798263,30.5,32.0,21.0,11.5,26.5,10.5,4.5,8.06225774829855,7.071067811865476,7.5,28.0,43.0,30.59411708155671,{}
151,151,12.041594578792296,82.73451516749222,10.04987562112089,16.1245154965971,22.36067977499789,24.186773244895647,15.524174696260024,53.60037313302959,37.48332962798263,31.0,33.0,22.0,12.5,25.5,9.5,5.5,9.219544457292889,8.06225774829855,8.0,28.0,43.0,30.59411708155671,{}
152,152,12.041594578792296,82.87339742040264,10.04987562112089,17.11724276862369,21.213203435596427,23.194827009486403,15.524174696260024,54.589376255824725,37.48332962798263,31.0,34.0,22.0,13.0,26.0,10.0,5.0,9.219544457292889,8.246211251235321,8.0,27.0,43.0,30.59411708155671,{}
153,153,14.142135623730953,82.73451516749222,9.055385138137416,17.11724276862369,22.20360331117452,24.186773244895647,16.492422502470642,56.71860364994893,39.6232255123179,32.0,34.0,23.0,12.5,27.5,10.5,5.5,9.219544457292889,9.219544457292889,9.0,27.0,42.0,30.59411708155671,{}
154,154,15.033296378372908,82.73451516749222,9.219544457292889,17.11724276862369,22.20360331117452,24.186773244895647,17.26267650163207,58.54912467321779,41.43669871020132,33.5,35.0,24.0,12.5,28.5,11.5,5.5,9.219544457292889,8.06225774829855,8.0,27.0,42.0,31.575306807693888,{}
155,155,17.11724276862369,82.60750571225353,10.04987562112089,17.029386365926403,22.20360331117452,24.186773244895647,16.278820596099706,60.40695324215582,43.41658669218482,34.5,35.0,25.0,14.0,30.0,13.0,7.0,10.04987562112089,10.04987562112089,10.0,29.0,44.0,31.575306807693888,{}
156,156,19.1049731745428,82.73451516749222,9.055385138137416,17.029386365926403,22.20360331117452,24.186773244895647,16.492422502470642,61.5223536610881,44.553338819890925,34.5,36.0,25.0,14.5,30.5,13.5,7.5,10.04987562112089,9.219544457292889,9.0,28.0,43.0,32.38826948140329,{}
157,157,19.1049731745428,82.60750571225353,10.04987562112089,17.029386365926403,22.09072203437452,25.179356624028344,16.278820596099706,62.39390995922599,45.39823785126467,35.5,37.0,27.0,16.0,30.0,13.0,8.0,10.198039027185567,9.219544457292889,9.5,28.0,42.0,32.38826948140329,{}
158,158,21.02379604162864,81.74350127074322,10.04987562112089,16.1245154965971,22.20360331117452,24.186773244895647,16.492422502470642,63.50590523722971,47.38143096192854,36.5,38.0,27.0,16.5,30.5,14.5,9.5,11.180339887498947,10.198039027185567,10.0,28.0,44.0,31.25699921617557,{}
159,159,22.02271554554524,81.49846624323675,10.04987562112089,16.1245154965971,22.20360331117452,24.186773244895647,15.297058540778355,63.38769596696192,47.265209192385896,36.0,37.0,28.0,17.5,30.5,13.5,9.5,10.198039027185567,9.055385138137416,9.5,29.0,43.0,30.26549190084312,{}
160,160,23.0,81.49846624323675,10.04987562112089,17.11724276862369,22.09072203437452,24.186773244895647,16.492422502470642,66.37017402418047,49.25444142409901,37.5,40.0,31.0,19.5,30.5,13.5,11.5,11.180339887498947,10.198039027185567,10.5,30.0,43.0,32.14031735997639,{}
161,161,26.019223662515376,81.39410298049853,10.0,16.0312195418814,23.08679276123039,25.179356624028344,16.492422502470642,68.26419266350405,52.23983154643591,39.0,41.0,33.0,21.0,31.0,14.0,13.0,12.041594578792296,11.04536101718726,11.0,30.0,42.0,31.25699921617557,{}
162,162,28.0,82.29823813423954,10.04987562112089,15.033296378372908,22.09072203437452,24.08318915758459,17.26267650163207,70.178344238091,55.14526271584895,41.0,41.0,34.0,20.5,32.5,16.5,12.5,11.180339887498947,10.198039027185567,10.0,31.0,42.0,31.25699921617557,{}
163,163,29.017236257093817,81.2219182240853,10.04987562112089,16.0312195418814,22.09072203437452,25.079872407968907,17.11724276862369,72.06247289678588,56.0357029044876,41.5,42.0,36.0,22.0,33.0,17.0,13.0,11.180339887498947,10.04987562112089,9.5,32.0,40.0,30.14962686336267,{}
164,164,31.0,82.09750300709517,9.0,16.0,22.09072203437452,25.019992006393608,18.24828759089466,74.06078584514209,58.077534382926416,42.5,42.0,38.0,22.0,34.0,16.0,14.0,11.04536101718726,10.0,10.0,32.0,39.0,32.14031735997639,{}
165,165,31.0,82.09750300709517,9.0,16.0,22.0,25.0,18.24828759089466,74.06078584514209,58.077534382926416,42.5,42.0,38.0,22.0,34.0,17.0,13.0,10.04987562112089,10.0,10.5,32.0,39.0,32.0624390837628,{}
166,166,33.015148038438355,82.05485969764375,9.055385138137416,16.0312195418814,22.0,24.020824298928627,18.110770276274835,76.05918747922567,60.03332407921454,43.5,42.0,39.0,22.5,35.5,17.5,13.5,10.04987562112089,10.0,10.0,33.0,39.0,31.064449134018133,{}
167,167,33.0,80.02499609497022,10.0,16.0,22.02271554554524,24.020824298928627,18.24828759089466,77.05841939723393,61.07372593840988,44.5,44.0,42.0,25.0,34.0,16.0,16.0,9.055385138137416,9.0,8.5,34.0,39.0,31.016124838541646,{}
168,168,33.0,82.02438661763951,10.0,16.0,22.02271554554524,24.0,19.026297590440446,78.00640999302557,62.00806399170998,45.5,44.0,42.0,24.0,35.0,18.0,15.0,5.0990195135927845,6.082762530298219,6.0,35.0,37.0,32.01562118716424,{}
169,169,33.0,84.00595217006948,10.0,17.0,23.0,26.0,19.026297590440446,79.00632886041473,62.00806399170998,45.5,43.0,42.0,23.5,36.5,18.5,13.5,5.0,5.0,5.0,33.0,35.0,33.015148038438355,{}
170,170,24.020824298928627,85.00588214941364,11.0,16.0,23.0,25.0,19.0,70.00714249274856,54.00925846556311,42.0,38.0,39.0,19.5,31.5,14.5,9.5,5.0990195135927845,4.123105625617661,4.0,36.0,37.0,32.0,{}
171,171,17.0,88.09086218218096,10.04987562112089,15.033296378372908,23.021728866442675,25.019992006393608,19.026297590440446,61.07372593840988,46.04345773288535,37.5,31.0,35.0,14.0,28.0,11.0,4.0,4.0,5.0990195135927845,5.0,30.0,29.0,30.0,{}
172,172,8.06225774829855,86.09297300012354,10.0,14.0,22.09072203437452,24.020824298928627,20.024984394500787,52.03844732503075,38.05259518088089,34.0,28.0,32.0,10.0,22.0,7.0,0.0,5.0990195135927845,4.123105625617661,4.5,30.0,26.0,29.017236257093817,{}
173,173,1.0,83.21658488546619,10.04987562112089,13.0,21.095023109728988,21.095023109728988,19.026297590440446,43.04648650006177,30.066592756745816,29.5,24.0,30.0,8.0,16.0,1.0,2.0,4.0,4.123105625617661,4.0,29.0,24.0,30.01666203960727,{}
174,174,1.4142135623730951,79.22752047110903,10.04987562112089,12.0,21.02379604162864,22.09072203437452,19.026297590440446,42.1070065428546,30.14962686336267,29.5,25.0,31.0,9.0,14.0,0.0,0.0,6.0,6.082762530298219,5.5,29.0,23.0,29.068883707497267,{}
175,175,3.0,78.31347265956222,8.06225774829855,13.038404810405298,21.095023109728988,22.02271554554524,21.095023109728988,45.17742799230607,32.14031735997639,30.5,26.0,33.0,8.5,15.5,0.5,0.5,6.0,7.071067811865476,7.0,28.0,21.0,31.064449134018133,{}
176,176,9.055385138137416,79.30952023559341,9.0,13.038404810405298,20.09975124224178,21.02379604162864,18.110770276274835,49.16299421312742,36.12478373637688,31.5,28.0,35.0,13.5,17.5,2.5,4.5,6.0,7.071067811865476,7.0,35.0,27.0,34.132096331752024,{}
177,177,12.041594578792296,79.30952023559341,7.071067811865476,13.038404810405298,21.02379604162864,22.09072203437452,18.027756377319943,50.15974481593781,37.12142238654117,31.0,28.0,35.0,13.5,18.5,4.5,6.5,8.0,8.06225774829855,8.0,30.0,23.0,31.064449134018133,{}
178,178,11.0,79.30952023559341,9.055385138137416,15.033296378372908,20.024984394500787,22.09072203437452,17.029386365926403,52.08646657242167,37.05401462729781,31.5,29.0,36.0,15.5,19.5,3.5,6.5,9.0,9.055385138137416,9.0,34.0,28.0,34.058772731852805,{}
179,179,12.041594578792296,81.2219182240853,9.055385138137416,15.033296378372908,21.095023109728988,23.021728866442675,18.027756377319943,54.147945482723536,39.11521443121589,33.0,29.0,35.0,14.0,22.0,5.0,5.0,9.0,9.055385138137416,9.0,30.0,24.0,31.064449134018133,{}
180,180,10.04987562112089,81.30190649671138,9.055385138137416,15.033296378372908,21.095023109728988,22.02271554554524,18.027756377319943,52.15361924162119,37.12142238654117,32.0,27.0,34.0,12.5,21.5,4.5,3.5,9.0,9.055385138137416,9.0,30.0,22.0,31.064449134018133,{}
181,181,10.04987562112089,81.2219182240853,10.0,15.033296378372908,20.09975124224178,22.09072203437452,19.1049731745428,54.147945482723536,39.11521443121589,34.0,30.0,36.0,14.0,21.0,4.0,4.0,9.0,9.055385138137416,8.5,39.0,32.0,32.0624390837628,{}
182,182,9.0,80.22468448052632,10.04987562112089,16.0312195418814,19.026297590440446,22.02271554554524,20.024984394500787,55.08175741568164,39.05124837953327,34.5,30.0,36.0,13.0,22.0,4.0,3.0,9.0,9.055385138137416,9.0,39.0,32.0,32.14031735997639,{}
183,183,9.0,78.10249675906654,10.04987562112089,15.033296378372908,20.024984394500787,21.0,21.02379604162864,55.08175741568164,40.049968789001575,35.5,31.0,35.0,12.0,22.0,5.0,2.0,10.0,10.04987562112089,10.0,39.0,32.0,33.06055050963308,{}
184,184,6.0,79.1012010022604,11.04536101718726,16.0312195418814,20.024984394500787,22.02271554554524,21.02379604162864,54.08326913195984,38.05259518088089,35.0,31.0,35.0,12.0,21.0,3.0,2.0,10.0,10.04987562112089,10.0,39.0,32.0,32.14031735997639,{}
185,185,6.082762530298219,77.1621668954417,10.0,16.0312195418814,19.026297590440446,20.0,21.02379604162864,53.08483775994799,37.05401462729781,34.0,30.0,35.0,11.5,20.5,3.5,1.5,11.04536101718726,10.04987562112089,10.0,39.0,31.0,32.14031735997639,{}
186,186,9.055385138137416,79.1012010022604,11.04536101718726,15.033296378372908,19.026297590440446,21.02379604162864,19.026297590440446,54.147945482723536,39.11521443121589,34.5,32.0,36.0,15.0,20.0,3.0,4.0,12.0,11.04536101718726,11.0,40.0,32.0,33.13608305156178,{}
187,187,9.055385138137416,79.1580697086532,10.0,15.033296378372908,21.095023109728988,22.09072203437452,19.1049731745428,53.150729063673246,38.11823710509184,33.5,31.0,36.0,14.5,19.5,2.5,4.5,11.0,11.04536101718726,11.0,39.0,31.0,34.132096331752024,{}
188,188,11.04536101718726,82.21921916437786,10.04987562112089,16.0312195418814,21.02379604162864,23.021728866442675,18.110770276274835,55.22680508593631,39.20459156782532,33.5,30.0,36.0,15.0,22.0,4.0,5.0,11.0,11.04536101718726,11.0,39.0,31.0,33.06055050963308,{}
189,189,12.041594578792296,82.15229759416349,9.055385138137416,15.033296378372908,21.02379604162864,22.02271554554524,19.1049731745428,55.22680508593631,40.19950248448356,34.0,31.0,36.0,14.5,21.5,5.5,5.5,11.0,11.04536101718726,10.5,40.0,32.0,32.14031735997639,{}
190,190,9.055385138137416,77.1621668954417,9.055385138137416,14.0356688476182,20.024984394500787,22.02271554554524,21.02379604162864,53.150729063673246,39.11521443121589,34.5,32.0,37.0,13.5,18.5,2.5,4.5,11.0,11.04536101718726,11.0,40.0,33.0,33.06055050963308,{}
191,191,3.1622776601683795,76.16429609731846,11.04536101718726,14.0356688476182,19.026297590440446,20.024984394500787,22.02271554554524,50.15974481593781,36.12478373637688,34.5,31.0,36.0,11.5,16.5,0.5,1.5,11.0,11.0,11.5,39.0,32.0,32.0624390837628,{}
192,192,1.4142135623730951,78.23042886243178,11.0,14.0356688476182,20.024984394500787,21.02379604162864,22.09072203437452,48.16637831516918,34.132096331752024,33.5,30.0,36.0,11.0,15.0,1.0,1.0,12.041594578792296,11.04536101718726,11.0,40.0,31.0,32.0624390837628,{}
193,193,1.0,79.22752047110903,12.041594578792296,15.033296378372908,19.026297590440446,20.024984394500787,21.095023109728988,49.16299421312742,34.132096331752024,33.5,30.0,36.0,12.0,16.0,1.0,1.0,11.0,11.04536101718726,11.0,39.0,32.0,32.14031735997639,{}
194,194,4.123105625617661,80.22468448052632,12.041594578792296,15.033296378372908,20.09975124224178,21.02379604162864,21.095023109728988,52.23983154643591,37.21558813185679,35.0,31.0,37.0,13.0,18.0,1.0,1.0,11.04536101718726,10.04987562112089,10.5,40.0,32.0,33.06055050963308,{}
195,195,8.06225774829855,82.29823813423954,11.04536101718726,16.0312195418814,20.09975124224178,22.02271554554524,20.223748416156685,55.326304774492215,39.319206502675,35.0,31.0,38.0,14.5,20.5,2.5,3.5,12.041594578792296,11.04536101718726,11.5,40.0,32.0,32.0624390837628,{}
196,196,11.04536101718726,82.21921916437786,11.0,16.1245154965971,21.095023109728988,23.021728866442675,19.235384061671343,57.3149195236284,41.19465984809196,35.5,32.0,38.0,16.0,22.0,4.0,5.0,12.041594578792296,12.041594578792296,11.5,40.0,32.0,33.13608305156178,{}
197,197,13.038404810405298,82.29823813423954,10.04987562112089,15.033296378372908,21.095023109728988,22.09072203437452,19.235384061671343,57.3149195236284,42.2965719651132,35.5,31.0,38.0,15.5,22.5,5.5,5.5,12.041594578792296,12.0,12.0,41.0,32.0,33.24154027718932,{}
198,198,16.1245154965971,83.2946576918352,10.04987562112089,14.0356688476182,21.095023109728988,23.08679276123039,19.1049731745428,59.30430001273095,45.27692569068709,37.0,32.0,39.0,16.5,23.5,8.5,6.5,12.041594578792296,11.04536101718726,11.5,41.0,31.0,32.14031735997639,{}
199,199,14.142135623730953,82.29823813423954,10.04987562112089,15.033296378372908,20.024984394500787,22.09072203437452,18.110770276274835,57.3149195236284,42.2965719651132,35.0,30.0,37.0,15.5,23.5,6.5,5.5,11.04536101718726,11.04536101718726,11.0,41.0,31.0,33.13608305156178,{}
200,200,15.033296378372908,82.21921916437786,9.055385138137416,14.0356688476182,21.02379604162864,22.09072203437452,19.1049731745428,57.21887800367987,43.18564576337837,35.5,31.0,37.0,15.0,23.0,7.0,6.0,12.041594578792296,11.0,11.5,41.0,31.0,34.23448553724738,{}
201,201,10.04987562112089,80.22468448052632,8.06225774829855,15.0,20.024984394500787,21.02379604162864,19.026297590440446,52.08646657242167,37.12142238654117,32.0,29.0,35.0,13.0,20.0,4.0,5.0,11.0,11.0,11.5,39.0,28.0,32.2490309931942,{}
202,202,10.0,77.23341245859851,8.06225774829855,13.038404810405298,19.1049731745428,20.09975124224178,18.027756377319943,49.09175083453431,36.05551275463989,31.0,27.0,33.0,12.0,19.0,4.0,4.0,11.04536101718726,10.0,10.5,40.0,32.0,32.14031735997639,{}
203,203,7.071067811865476,77.1621668954417,8.06225774829855,14.0,18.027756377319943,20.024984394500787,17.0,46.04345773288535,32.0624390837628,28.5,26.0,31.0,11.5,17.5,2.5,3.5,12.041594578792296,12.0,11.5,31.0,24.0,30.14962686336267,{}
204,204,10.0,78.05767098754612,7.071067811865476,14.0356688476182,19.026297590440446,20.024984394500787,18.0,49.04079934095692,35.0142828000232,30.0,27.0,30.0,10.5,20.5,4.5,3.5,11.04536101718726,11.0,11.0,39.0,33.0,33.015148038438355,{}
205,205,11.04536101718726,77.10382610480494,7.0,13.0,19.0,21.0,17.029386365926403,48.04164859785725,35.05709628591621,29.5,26.0,30.0,11.0,20.0,6.0,5.0,11.04536101718726,11.0,11.0,31.0,24.0,30.14962686336267,{}
206,206,10.04987562112089,78.05767098754612,7.0,15.033296378372908,19.026297590440446,20.024984394500787,18.0,50.039984012787215,35.0142828000232,30.0,27.0,30.0,10.5,21.5,5.5,3.5,11.0,10.0,10.5,39.0,35.0,33.015148038438355,{}
207,207,10.04987562112089,79.02531240052139,8.06225774829855,14.0,20.024984394500787,21.02379604162864,18.027756377319943,50.08991914547278,36.12478373637688,31.0,28.0,30.0,11.0,21.0,5.0,4.0,11.04536101718726,11.0,11.0,38.0,34.0,33.06055050963308,{}
208,208,9.0,80.05623023850174,8.06225774829855,15.033296378372908,20.024984394500787,21.0,18.0,50.039984012787215,35.0142828000232,30.5,27.0,30.0,10.5,21.5,5.5,2.5,12.041594578792296,11.0,11.0,39.0,34.0,33.015148038438355,{}
209,209,10.0,79.02531240052139,8.06225774829855,15.0,19.0,21.0,18.027756377319943,51.03920062069938,36.05551275463989,31.0,28.0,30.0,11.0,22.0,6.0,3.0,11.0,11.0,10.5,39.0,36.0,34.0147027033899,{}
210,210,7.0,81.05553651663777,10.04987562112089,16.0312195418814,21.02379604162864,22.0,18.0,51.03920062069938,35.0142828000232,31.5,26.0,29.0,9.5,23.5,5.5,0.5,12.0,11.04536101718726,11.0,39.0,35.0,34.058772731852805,{}
211,211,6.0,79.02531240052139,10.0,16.0312195418814,20.0,21.0,19.026297590440446,51.03920062069938,35.0142828000232,32.0,27.0,29.0,9.0,23.0,5.0,0.0,13.0,13.0,12.5,39.0,37.0,32.01562118716424,{}
212,212,6.0,79.02531240052139,11.0,16.0312195418814,20.024984394500787,22.0,19.026297590440446,52.03844732503075,36.013886210738214,33.0,28.0,30.0,10.0,23.0,5.0,0.0,12.0,12.041594578792296,12.0,39.0,37.0,32.0,{}
213,213,7.0,82.0,10.0,16.0,21.0,23.0,18.027756377319943,51.0098029794274,35.0142828000232,31.5,29.0,29.0,11.0,22.0,5.0,2.0,13.0,12.041594578792296,12.0,39.0,37.0,32.0,{}
214,214,8.0,82.0,10.0,16.0,21.0,22.0,18.027756377319943,52.009614495783374,36.013886210738214,32.0,28.0,28.0,10.0,24.0,7.0,1.0,12.0,11.04536101718726,11.5,37.0,37.0,32.01562118716424,{}
215,215,8.0,83.0,10.0,17.0,21.0,23.0,18.0,53.0,36.0,32.0,29.0,29.0,11.0,24.0,6.0,2.0,12.0,11.04536101718726,11.5,37.0,38.0,33.0,{}
216,216,8.0,80.0,10.0,17.0,21.0,23.0,17.029386365926403,52.009614495783374,35.0142828000232,31.0,29.0,29.0,12.0,23.0,5.0,3.0,12.0,12.0,12.0,36.0,38.0,33.0,{}
217,217,8.0,79.05694150420949,9.0,16.0312195418814,20.024984394500787,22.0,20.024984394500787,53.03772242470448,37.01351104664349,33.0,32.0,29.0,10.5,22.5,5.5,3.5,11.04536101718726,12.041594578792296,12.0,36.0,40.0,33.06055050963308,{}
218,218,2.0,75.05997601918082,9.055385138137416,15.0,19.026297590440446,20.09975124224178,22.02271554554524,48.04164859785725,33.06055050963308,32.0,31.0,28.0,7.5,18.5,2.5,0.5,12.0,12.041594578792296,12.0,35.0,40.0,33.06055050963308,{}
219,219,1.0,75.1065909225016,9.055385138137416,14.0356688476182,19.026297590440446,21.02379604162864,22.02271554554524,46.09772228646444,32.0624390837628,31.5,31.0,27.0,7.0,17.0,2.0,0.0,12.041594578792296,11.04536101718726,11.5,33.0,40.0,34.23448553724738,{}
220,220,2.23606797749979,75.16648189186454,10.0,16.0312195418814,19.026297590440446,21.095023109728988,22.09072203437452,50.15974481593781,34.132096331752024,33.0,32.0,27.0,7.5,20.5,3.5,0.5,13.0,11.04536101718726,11.5,33.0,41.0,32.2490309931942,{}
221,221,9.0,76.16429609731846,10.0,17.029386365926403,20.09975124224178,22.09072203437452,19.1049731745428,55.08175741568164,38.05259518088089,33.5,34.0,29.0,12.5,23.5,6.5,4.5,12.041594578792296,12.16552506059644,12.0,33.0,42.0,34.23448553724738,{}
222,222,13.0,78.16009211867653,8.0,17.029386365926403,21.02379604162864,23.08679276123039,18.110770276274835,56.08029957123981,39.05124837953327,32.5,33.0,28.0,12.5,25.5,7.5,5.5,12.0,11.04536101718726,11.5,33.0,42.0,33.13608305156178,{}
223,223,13.0,79.30952023559341,8.06225774829855,17.029386365926403,21.095023109728988,24.08318915758459,16.0312195418814,54.08326913195984,37.05401462729781,30.5,32.0,25.0,12.5,25.5,8.5,5.5,13.0,11.04536101718726,11.0,33.0,42.0,33.13608305156178,{}
224,224,10.0,82.15229759416349,8.06225774829855,15.033296378372908,21.095023109728988,23.08679276123039,16.1245154965971,49.16299421312742,34.132096331752024,29.0,29.0,24.0,10.5,22.5,7.5,4.5,12.041594578792296,11.04536101718726,11.5,33.0,41.0,33.13608305156178,{}
225,225,9.0,82.21921916437786,8.0,14.0356688476182,21.095023109728988,23.08679276123039,17.26267650163207,48.16637831516918,34.132096331752024,29.5,30.0,24.0,10.0,21.0,6.0,4.0,12.041594578792296,10.04987562112089,11.0,33.0,41.0,31.25699921617557,{}
226,226,10.0,81.15417426109393,8.06225774829855,15.033296378372908,22.09072203437452,23.021728866442675,16.0312195418814,49.09175083453431,34.058772731852805,29.0,28.0,23.0,9.5,23.5,8.5,3.5,13.038404810405298,12.041594578792296,12.0,32.0,40.0,32.14031735997639,{}
227,227,10.04987562112089,81.15417426109393,8.0,15.0,22.02271554554524,23.021728866442675,17.11724276862369,50.08991914547278,35.12833614050059,30.0,30.0,25.0,10.5,22.5,6.5,3.5,12.0,11.04536101718726,11.5,33.0,40.0,32.0624390837628,{}
228,228,10.04987562112089,81.09870529176159,9.0,16.0,21.02379604162864,23.021728866442675,16.0312195418814,51.03920062069938,35.05709628591621,30.0,30.0,26.0,12.0,23.0,7.0,4.0,12.0,11.04536101718726,11.5,33.0,39.0,34.058772731852805,{}
229,229,14.0,80.09993757800315,9.0,18.027756377319943,22.02271554554524,23.021728866442675,16.0312195418814,57.0350769263968,39.01281840626232,32.0,32.0,28.0,14.0,27.0,9.0,6.0,11.04536101718726,11.180339887498947,11.5,33.0,39.0,33.015148038438355,{}
230,230,15.0,77.10382610480494,9.0,15.033296378372908,20.024984394500787,22.09072203437452,15.033296378372908,54.037024344425184,39.01281840626232,31.5,31.0,27.0,14.0,25.0,9.0,6.0,11.04536101718726,11.04536101718726,11.0,35.0,42.0,31.14482300479488,{}
231,231,15.0,78.10249675906654,8.0,16.0312195418814,20.024984394500787,22.09072203437452,16.0312195418814,55.03635162326805,39.01281840626232,31.5,31.0,27.0,13.0,26.0,9.0,6.0,12.041594578792296,11.04536101718726,11.5,34.0,41.0,33.24154027718932,{}
232,232,13.0,79.1012010022604,8.06225774829855,16.0,20.024984394500787,22.02271554554524,16.0312195418814,53.03772242470448,37.05401462729781,30.5,30.0,26.0,12.0,25.0,8.0,5.0,12.0,11.180339887498947,11.5,34.0,40.0,31.14482300479488,{}
233,233,11.0,79.05694150420949,8.0,15.033296378372908,20.024984394500787,21.02379604162864,17.029386365926403,51.03920062069938,36.013886210738214,30.5,30.0,27.0,11.5,22.5,6.5,4.5,12.041594578792296,11.04536101718726,11.5,34.0,40.0,31.14482300479488,{}
234,234,9.0,78.10249675906654,8.0,14.0356688476182,20.024984394500787,21.02379604162864,17.11724276862369,48.0936586256442,34.058772731852805,29.5,30.0,26.0,11.0,20.0,5.0,5.0,12.041594578792296,11.04536101718726,11.0,33.0,39.0,32.0624390837628,{}
235,235,6.0,79.05694150420949,8.0,13.038404810405298,20.024984394500787,21.02379604162864,18.027756377319943,45.044422518220834,32.01562118716424,29.0,30.0,27.0,10.5,16.5,2.5,3.5,13.038404810405298,12.041594578792296,12.0,33.0,40.0,33.13608305156178,{}
236,236,4.0,79.1012010022604,8.0,13.038404810405298,19.1049731745428,21.02379604162864,18.110770276274835,43.10452412450461,30.066592756745816,28.0,29.0,25.0,9.0,16.0,3.0,3.0,13.038404810405298,11.04536101718726,11.5,32.0,40.0,33.13608305156178,{}
237,237,4.0,79.1012010022604,8.0,12.041594578792296,20.024984394500787,21.02379604162864,18.110770276274835,42.1070065428546,30.066592756745816,28.0,29.0,25.0,9.0,15.0,2.0,3.0,13.038404810405298,11.04536101718726,12.0,33.0,40.0,33.13608305156178,{}
238,238,4.0,78.10249675906654,8.0,12.041594578792296,20.024984394500787,20.024984394500787,19.1049731745428,43.10452412450461,31.064449134018133,29.0,30.0,26.0,9.0,15.0,2.0,3.0,13.038404810405298,11.180339887498947,11.5,33.0,40.0,31.14482300479488,{}
239,239,5.0,79.1012010022604,8.0,13.038404810405298,20.024984394500787,20.024984394500787,19.026297590440446,45.044422518220834,32.01562118716424,29.5,31.0,27.0,10.0,16.0,2.0,4.0,12.041594578792296,11.04536101718726,11.5,32.0,39.0,33.06055050963308,{}
240,240,12.0,79.1580697086532,9.0,15.033296378372908,20.024984394500787,22.09072203437452,17.11724276862369,53.08483775994799,38.05259518088089,32.0,32.0,27.0,12.5,23.5,8.5,5.5,12.0,11.04536101718726,11.5,33.0,40.0,32.14031735997639,{}
241,241,14.0356688476182,79.1580697086532,9.0,17.029386365926403,21.095023109728988,23.021728866442675,17.11724276862369,57.14017850864661,40.11234224026316,33.0,34.0,29.0,14.5,25.5,7.5,7.5,12.041594578792296,12.041594578792296,12.0,32.0,40.0,33.06055050963308,{}
242,242,13.038404810405298,80.09993757800315,9.0,17.0,22.02271554554524,24.08318915758459,18.027756377319943,57.0350769263968,40.049968789001575,33.5,34.0,30.0,14.0,25.0,7.0,6.0,12.0,12.041594578792296,12.0,34.0,41.0,33.06055050963308,{}
243,243,11.0,80.15609770940699,8.0,17.029386365926403,21.02379604162864,23.021728866442675,18.027756377319943,54.037024344425184,37.01351104664349,31.5,34.0,29.0,13.5,22.5,4.5,6.5,13.038404810405298,11.04536101718726,11.5,33.0,42.0,34.132096331752024,{}
244,244,9.0,78.16009211867653,8.0,15.033296378372908,21.02379604162864,22.02271554554524,18.027756377319943,50.039984012787215,35.0142828000232,30.5,32.0,27.0,11.5,20.5,5.5,5.5,8.06225774829855,8.0,8.0,24.0,30.0,30.01666203960727,{}
245,245,8.0,74.10802925459562,7.0,12.041594578792296,20.024984394500787,21.02379604162864,20.024984394500787,47.042533945356304,35.0142828000232,31.0,31.0,27.0,9.0,18.0,5.0,4.0,4.123105625617661,4.0,4.5,25.0,32.0,30.14962686336267,{}
246,246,4.0,75.16648189186454,9.0,14.0356688476182,19.1049731745428,21.095023109728988,20.09975124224178,47.09564735726647,33.06055050963308,31.0,31.0,26.0,8.5,18.5,3.5,1.5,5.0990195135927845,5.0,5.0,26.0,33.0,27.16615541441225,{}
247,247,2.0,72.11102550927978,10.04987562112089,15.033296378372908,18.027756377319943,20.09975124224178,21.02379604162864,48.0936586256442,33.06055050963308,32.0,32.0,28.0,9.0,18.0,2.0,1.0,5.385164807134504,5.0,5.0,28.0,35.0,29.154759474226505,{}
248,248,2.0,70.178344238091,11.0,16.0312195418814,19.026297590440446,19.026297590440446,21.02379604162864,50.039984012787215,34.0147027033899,33.0,34.0,29.0,10.5,18.5,1.5,1.5,6.082762530298219,5.0,5.5,26.0,32.0,28.16025568065745,{}
249,249,5.0,74.06078584514209,11.0,16.0312195418814,18.027756377319943,20.09975124224178,20.024984394500787,52.03844732503075,36.013886210738214,33.5,33.0,30.0,11.5,20.5,3.5,1.5,7.071067811865476,6.0,6.0,27.0,31.0,30.14962686336267,{}
250,250,9.0,76.05918747922567,9.0,16.0312195418814,20.024984394500787,22.02271554554524,19.1049731745428,53.08483775994799,37.05401462729781,32.5,33.0,30.0,12.5,21.5,4.5,4.5,8.06225774829855,7.0,7.0,25.0,30.0,31.14482300479488,{}
251,251,10.0,78.05767098754612,10.0,16.0312195418814,21.02379604162864,22.02271554554524,18.110770276274835,54.08326913195984,38.05259518088089,33.0,34.0,31.0,14.5,21.5,4.5,6.5,9.055385138137416,8.06225774829855,8.0,30.0,36.0,34.132096331752024,{}
252,252,9.0,77.02596964660685,10.0,15.0,20.024984394500787,21.02379604162864,18.027756377319943,52.009614495783374,37.01351104664349,32.5,34.0,32.0,15.0,19.0,3.0,6.0,9.055385138137416,9.0,9.0,34.0,41.0,34.058772731852805,{}
253,253,8.0,79.02531240052139,11.0,17.029386365926403,20.024984394500787,21.0,17.029386365926403,53.03772242470448,36.013886210738214,32.0,33.0,31.0,15.0,21.0,3.0,6.0,10.0,10.0,10.0,32.0,39.0,35.12833614050059,{}
254,254,8.0,79.02531240052139,10.0,16.0,20.024984394500787,22.0,19.1049731745428,53.03772242470448,37.05401462729781,33.0,34.0,32.0,14.0,20.0,3.0,5.0,10.04987562112089,10.0,10.5,34.0,39.0,33.06055050963308,{}
255,255,4.0,76.00657866263946,11.04536101718726,15.033296378372908,19.026297590440446,21.0,20.024984394500787,50.08991914547278,35.05709628591621,33.0,33.0,32.0,12.5,17.5,1.5,3.5,11.04536101718726,10.04987562112089,10.5,35.0,40.0,33.06055050963308,{}
256,256,1.0,78.02563681252464,11.0,15.0,20.0,21.0,20.024984394500787,47.01063709417264,32.01562118716424,31.5,32.0,30.0,11.0,16.0,1.0,1.0,12.0,10.0,10.5,25.0,29.0,34.058772731852805,{}
257,257,0.0,76.02631123499285,13.038404810405298,16.0,19.026297590440446,20.024984394500787,20.024984394500787,49.04079934095692,33.06055050963308,33.0,34.0,32.0,13.0,16.0,1.0,2.0,10.04987562112089,9.055385138137416,10.0,35.0,40.0,33.06055050963308,{}
258,258,5.0,76.02631123499285,12.0,17.0,19.1049731745428,21.02379604162864,21.02379604162864,55.00909015790027,38.01315561749642,35.5,36.0,34.0,14.0,20.0,2.0,4.0,11.04536101718726,11.04536101718726,11.0,36.0,40.0,33.06055050963308,{}
259,259,9.0,78.05767098754612,11.0,17.0,20.024984394500787,22.02271554554524,19.026297590440446,56.00892785976178,39.01281840626232,34.5,37.0,34.0,16.5,20.5,2.5,6.5,11.04536101718726,11.0,11.0,36.0,40.0,34.058772731852805,{}
260,260,10.04987562112089,78.00640999302557,10.04987562112089,17.0,20.024984394500787,22.02271554554524,19.0,56.0,39.0,34.0,35.0,34.0,15.5,21.5,3.5,6.5,12.041594578792296,10.0,11.0,36.0,41.0,33.06055050963308,{}
261,261,11.04536101718726,79.00632886041473,10.0,16.0,20.024984394500787,22.02271554554524,18.027756377319943,55.0,39.0,33.5,33.0,32.0,14.5,22.5,5.5,5.5,11.04536101718726,10.04987562112089,10.5,36.0,41.0,33.06055050963308,{}
262,262,7.0,78.00640999302557,11.0,17.0,20.024984394500787,22.0,19.026297590440446,54.00925846556311,37.01351104664349,33.5,33.0,32.0,13.5,21.5,3.5,4.5,12.0,11.0,11.5,36.0,41.0,33.06055050963308,{}
263,263,7.0,79.00632886041473,10.0,15.0,20.0,22.0,20.024984394500787,52.009614495783374,37.01351104664349,33.5,32.0,31.0,11.5,20.5,3.5,2.5,12.0,10.0,11.0,35.0,40.0,31.064449134018133,{}
264,264,5.0,79.00632886041473,11.0,16.0,20.024984394500787,22.0,19.026297590440446,51.0098029794274,35.0142828000232,32.5,31.0,30.0,11.5,20.5,3.5,2.5,12.0,11.0,11.5,36.0,39.0,33.06055050963308,{}
265,265,5.0,79.0,11.0,16.0,20.0,22.0,19.026297590440446,51.0098029794274,35.0142828000232,32.5,31.0,31.0,12.0,20.0,3.0,2.0,12.0,11.04536101718726,11.0,36.0,40.0,33.06055050963308,{}
266,266,4.0,80.02499609497022,11.0,15.0,20.0,22.0,20.024984394500787,50.00999900019995,35.0142828000232,33.0,29.0,31.0,10.0,20.0,3.0,0.0,13.0,12.041594578792296,12.0,37.0,38.0,33.0,{}
267,267,4.123105625617661,80.05623023850174,11.0,15.0,20.024984394500787,21.02379604162864,19.0,49.01020301937138,34.0147027033899,32.0,27.0,30.0,9.5,20.5,3.5,0.5,12.0,12.0,12.0,29.0,28.0,30.01666203960727,{}
268,268,4.123105625617661,79.05694150420949,11.0,15.0,20.0,20.0,20.024984394500787,50.0,35.0,33.0,29.0,32.0,10.5,19.5,2.5,0.5,12.0,10.0,10.5,38.0,36.0,32.0,{}
269,269,4.0,78.05767098754612,11.0,16.0312195418814,20.024984394500787,21.02379604162864,19.0,50.00999900019995,34.0,32.0,28.0,31.0,10.5,20.5,2.5,0.5,12.0,11.0,11.5,38.0,36.0,33.0,{}
270,270,6.0,80.05623023850174,10.0,15.0,20.0,22.02271554554524,19.0,50.0,35.0,32.0,28.0,31.0,10.5,20.5,3.5,1.5,12.0,12.0,12.0,35.0,31.0,36.013886210738214,{}
271,271,6.082762530298219,81.15417426109393,10.0,15.033296378372908,20.024984394500787,21.02379604162864,19.0,50.039984012787215,35.0142828000232,32.0,27.0,32.0,10.5,20.5,3.5,1.5,12.0,11.0,11.5,30.0,27.0,33.015148038438355,{}
272,272,3.1622776601683795,80.09993757800315,10.0,16.0312195418814,20.024984394500787,21.02379604162864,19.0,48.04164859785725,32.01562118716424,30.5,28.0,32.0,11.0,18.0,1.0,1.0,12.0,11.0,11.5,34.0,29.0,33.015148038438355,{}
273,273,2.23606797749979,80.22468448052632,10.04987562112089,15.0,19.026297590440446,21.095023109728988,19.0,46.04345773288535,31.064449134018133,30.0,27.0,33.0,11.0,16.0,1.0,2.0,12.0,11.0,11.5,34.0,25.0,33.24154027718932,{}
274,274,3.1622776601683795,79.22752047110903,10.0,15.033296378372908,20.09975124224178,21.095023109728988,19.026297590440446,47.09564735726647,32.0624390837628,30.5,28.0,34.0,12.0,16.0,1.0,2.0,11.0,10.04987562112089,10.5,39.0,33.0,31.064449134018133,{}
275,275,7.0,78.23042886243178,8.0,14.0356688476182,19.1049731745428,20.024984394500787,19.1049731745428,48.0936586256442,34.058772731852805,30.5,28.0,34.0,12.0,17.0,1.0,4.0,12.0,11.0,11.5,35.0,26.0,32.2490309931942,{}
276,276,8.0,79.1580697086532,8.06225774829855,13.038404810405298,20.024984394500787,21.02379604162864,19.0,48.04164859785725,35.0142828000232,31.0,28.0,33.0,11.5,17.5,1.5,4.5,12.041594578792296,11.0,11.5,31.0,24.0,30.066592756745816,{}
277,277,2.23606797749979,79.22752047110903,12.0,15.033296378372908,20.024984394500787,21.02379604162864,19.026297590440446,48.0936586256442,33.06055050963308,32.0,27.0,33.0,11.0,18.0,0.0,0.0,12.0,12.0,12.0,31.0,24.0,30.14962686336267,{}
278,278,1.0,79.1580697086532,12.041594578792296,15.033296378372908,20.024984394500787,22.02271554554524,19.026297590440446,47.09564735726647,32.0624390837628,31.5,27.0,32.0,10.5,17.5,0.5,0.5,12.0,12.0,12.0,31.0,25.0,30.01666203960727,{}
279,279,3.0,78.16009211867653,11.04536101718726,15.033296378372908,20.024984394500787,21.02379604162864,20.024984394500787,49.09175083453431,34.058772731852805,32.5,29.0,34.0,11.5,17.5,0.5,0.5,12.0,11.0,11.0,30.0,25.0,30.066592756745816,{}
280,280,7.071067811865476,79.1580697086532,11.0,16.0312195418814,20.0,22.0,19.1049731745428,53.150729063673246,37.12142238654117,33.5,30.0,35.0,13.5,20.5,2.5,3.5,12.041594578792296,12.0,11.5,34.0,27.0,31.064449134018133,{}
281,281,9.055385138137416,78.16009211867653,11.0,16.0312195418814,21.02379604162864,22.02271554554524,18.027756377319943,54.08326913195984,38.05259518088089,33.5,31.0,36.0,15.5,20.5,2.5,4.5,10.0,10.04987562112089,10.0,40.0,35.0,32.0624390837628,{}
282,282,9.055385138137416,79.1580697086532,10.04987562112089,16.0312195418814,20.024984394500787,22.02271554554524,18.027756377319943,53.150729063673246,37.12142238654117,32.5,30.0,35.0,14.5,20.5,2.5,4.5,11.04536101718726,10.04987562112089,11.0,40.0,35.0,32.01562118716424,{}
283,283,3.1622776601683795,80.22468448052632,10.0,14.0,21.02379604162864,22.02271554554524,19.1049731745428,46.09772228646444,32.14031735997639,30.5,27.0,33.0,11.0,16.0,0.0,2.0,12.041594578792296,11.0,11.5,35.0,30.0,35.0,{}
284,284,2.23606797749979,78.23042886243178,10.0,14.0356688476182,20.024984394500787,21.02379604162864,19.1049731745428,45.17742799230607,31.14482300479488,30.0,27.0,33.0,11.0,15.0,1.0,2.0,11.04536101718726,10.0,10.5,40.0,34.0,33.015148038438355,{}
285,285,2.23606797749979,77.31752712031083,10.04987562112089,14.0356688476182,20.024984394500787,21.095023109728988,19.1049731745428,45.27692569068709,31.25699921617557,30.0,27.0,34.0,11.5,14.5,1.5,2.5,11.04536101718726,11.04536101718726,11.5,40.0,32.0,33.13608305156178,{}
286,286,3.1622776601683795,78.40918313565064,10.04987562112089,14.0356688476182,20.09975124224178,21.095023109728988,19.1049731745428,46.2709412050371,32.2490309931942,30.5,27.0,35.0,12.0,15.0,1.0,2.0,11.04536101718726,11.04536101718726,11.5,40.0,32.0,31.14482300479488,{}
287,287,7.071067811865476,78.40918313565064,10.0,15.132745950421556,19.1049731745428,21.095023109728988,18.110770276274835,50.24937810560445,35.12833614050059,31.5,27.0,35.0,13.0,19.0,2.0,3.0,12.041594578792296,11.04536101718726,11.5,41.0,33.0,32.14031735997639,{}
288,288,9.055385138137416,79.40403012442127,9.0,15.132745950421556,20.09975124224178,22.09072203437452,18.24828759089466,51.35172830587107,36.22154055254967,31.5,26.0,34.0,12.0,21.0,3.0,3.0,12.041594578792296,11.04536101718726,11.5,41.0,32.0,33.06055050963308,{}
289,289,8.06225774829855,77.41446893184762,9.055385138137416,15.033296378372908,19.026297590440446,21.095023109728988,18.027756377319943,50.15974481593781,35.12833614050059,31.0,26.0,34.0,12.0,20.0,3.0,3.0,12.041594578792296,12.041594578792296,12.5,40.0,31.0,34.132096331752024,{}
290,290,7.071067811865476,76.4198926981712,9.0,14.142135623730953,18.027756377319943,20.09975124224178,17.11724276862369,47.265209192385896,33.13608305156178,29.5,24.0,32.0,11.0,19.0,3.0,3.0,12.041594578792296,12.041594578792296,12.0,40.0,32.0,31.14482300479488,{}
291,291,7.071067811865476,77.31752712031083,9.055385138137416,15.132745950421556,20.09975124224178,21.095023109728988,17.029386365926403,48.25971404805462,33.13608305156178,29.5,26.0,33.0,12.5,18.5,1.5,3.5,12.041594578792296,12.041594578792296,12.0,40.0,30.0,31.14482300479488,{}
292,292,9.055385138137416,77.31752712031083,8.06225774829855,14.142135623730953,20.09975124224178,21.095023109728988,17.029386365926403,48.25971404805462,34.132096331752024,29.5,26.0,33.0,12.5,18.5,2.5,4.5,12.041594578792296,11.04536101718726,11.5,40.0,32.0,32.14031735997639,{}
293,293,11.04536101718726,77.31752712031083,7.071067811865476,15.132745950421556,19.1049731745428,21.02379604162864,17.029386365926403,50.24937810560445,35.12833614050059,29.5,26.0,33.0,12.5,20.5,3.5,5.5,12.041594578792296,12.041594578792296,12.0,33.0,22.0,31.14482300479488,{}
294,294,11.04536101718726,76.32168761236873,8.06225774829855,16.0312195418814,19.1049731745428,21.095023109728988,16.0312195418814,51.15662224971465,35.12833614050059,29.5,27.0,34.0,14.5,20.5,2.5,5.5,12.041594578792296,11.04536101718726,11.0,40.0,30.0,32.14031735997639,{}
295,295,13.038404810405298,75.32595834106593,8.0,15.132745950421556,19.026297590440446,21.095023109728988,17.029386365926403,53.150729063673246,38.05259518088089,31.5,28.0,35.0,14.5,21.5,3.5,6.5,12.0,12.041594578792296,11.5,40.0,32.0,31.064449134018133,{}
296,296,11.180339887498947,77.31752712031083,9.0,17.029386365926403,19.026297590440446,20.09975124224178,17.11724276862369,54.230987451824994,37.21558813185679,31.5,28.0,35.0,14.5,22.5,3.5,5.5,12.0,12.041594578792296,12.0,40.0,33.0,31.14482300479488,{}
297,297,13.038404810405298,78.31347265956222,8.0,16.1245154965971,20.024984394500787,22.02271554554524,18.110770276274835,55.22680508593631,39.11521443121589,32.5,28.0,35.0,13.5,23.5,5.5,5.5,12.041594578792296,12.041594578792296,12.0,40.0,32.0,31.064449134018133,{}
298,298,12.041594578792296,78.31347265956222,9.055385138137416,16.0312195418814,20.024984394500787,22.09072203437452,17.029386365926403,54.147945482723536,38.11823710509184,32.0,28.0,35.0,14.5,22.5,4.5,5.5,12.041594578792296,12.041594578792296,12.5,40.0,32.0,32.14031735997639,{}
299,299,12.041594578792296,79.30952023559341,10.04987562112089,17.029386365926403,20.09975124224178,22.02271554554524,17.029386365926403,56.1426753904728,39.11521443121589,33.0,28.0,35.0,14.5,24.5,5.5,4.5,12.041594578792296,11.04536101718726,11.0,40.0,30.0,32.14031735997639,{}
300,300,14.0356688476182,79.22752047110903,10.04987562112089,18.027756377319943,20.09975124224178,22.09072203437452,17.029386365926403,59.13543776789008,41.10960958218893,34.0,30.0,36.0,16.0,26.0,6.0,6.0,12.041594578792296,12.041594578792296,12.5,40.0,32.0,33.13608305156178,{}
301,301,16.0312195418814,83.2946576918352,10.0,18.027756377319943,22.02271554554524,24.08318915758459,17.11724276862369,61.1310068623117,43.10452412450461,35.0,30.0,37.0,16.5,27.5,7.5,6.5,12.0,11.04536101718726,11.5,36.0,28.0,35.12833614050059,{}
302,302,18.027756377319943,83.15046602394962,10.04987562112089,17.029386365926403,22.02271554554524,23.08679276123039,17.11724276862369,62.20128616033595,45.17742799230607,36.0,31.0,36.0,16.5,28.5,8.5,6.5,12.041594578792296,11.04536101718726,11.5,40.0,32.0,34.132096331752024,{}
303,303,19.026297590440446,84.09518416651456,10.04987562112089,17.029386365926403,22.09072203437452,24.020824298928627,17.029386365926403,63.12685640834652,46.09772228646444,36.5,32.0,36.0,17.0,29.0,9.0,7.0,12.041594578792296,11.04536101718726,11.5,40.0,34.0,33.06055050963308,{}
304,304,18.027756377319943,85.09406559801923,10.0,18.110770276274835,23.021728866442675,25.019992006393608,17.029386365926403,63.12685640834652,45.044422518220834,36.0,32.0,36.0,17.0,29.0,9.0,7.0,12.0,11.0,11.5,39.0,33.0,32.0624390837628,{}
305,305,19.026297590440446,86.09297300012354,10.04987562112089,17.029386365926403,22.02271554554524,25.019992006393608,18.027756377319943,64.1248781675256,47.09564735726647,37.5,33.0,37.0,17.0,29.0,10.0,7.0,12.0,11.04536101718726,11.5,41.0,34.0,34.132096331752024,{}
306,306,20.0,85.14693182963201,10.04987562112089,16.1245154965971,22.09072203437452,24.020824298928627,18.027756377319943,64.1248781675256,48.04164859785725,38.0,31.0,36.0,15.5,30.5,12.5,5.5,12.041594578792296,11.04536101718726,11.5,41.0,34.0,32.14031735997639,{}
307,307,15.033296378372908,82.09750300709517,11.0,17.029386365926403,23.08679276123039,24.020824298928627,17.029386365926403,60.07495318350236,43.04648650006177,35.5,30.0,34.0,15.0,28.0,9.0,4.0,11.04536101718726,11.04536101718726,11.0,41.0,34.0,33.13608305156178,{}
308,308,13.152946437965904,81.15417426109393,10.0,18.0,22.09072203437452,23.08679276123039,19.026297590440446,60.07495318350236,42.1070065428546,35.5,29.0,34.0,12.5,28.5,8.5,2.5,13.0,12.0,12.0,30.0,22.0,32.0624390837628,{}
309,309,8.06225774829855,76.23647421018367,12.0,15.033296378372908,20.024984394500787,21.02379604162864,19.026297590440446,54.08326913195984,39.05124837953327,35.0,29.0,35.0,13.0,22.0,5.0,1.0,12.041594578792296,11.04536101718726,11.5,42.0,35.0,33.06055050963308,{}
310,310,2.0,70.178344238091,12.041594578792296,14.0356688476182,19.026297590440446,20.024984394500787,21.02379604162864,49.09175083453431,35.05709628591621,34.0,29.0,34.0,10.5,17.5,0.5,0.5,12.041594578792296,11.0,11.5,42.0,35.0,31.064449134018133,{}
311,311,1.0,69.18092222571191,13.038404810405298,13.038404810405298,18.0,19.026297590440446,20.0,47.042533945356304,34.0147027033899,33.5,29.0,34.0,11.5,15.5,0.5,0.5,11.04536101718726,11.04536101718726,11.0,42.0,35.0,33.13608305156178,{}
312,312,1.0,71.11258679024411,13.038404810405298,14.0356688476182,19.026297590440446,20.024984394500787,21.02379604162864,49.09175083453431,35.05709628591621,34.5,31.0,35.0,12.0,16.0,1.0,0.0,12.041594578792296,12.041594578792296,12.0,42.0,35.0,31.064449134018133,{}
313,313,5.0990195135927845,75.16648189186454,12.041594578792296,16.0312195418814,20.0,21.02379604162864,20.024984394500787,53.150729063673246,37.12142238654117,34.5,31.0,36.0,13.5,19.5,1.5,2.5,12.041594578792296,12.041594578792296,12.5,42.0,36.0,33.06055050963308,{}
314,314,16.0312195418814,78.10249675906654,10.04987562112089,16.1245154965971,22.02271554554524,24.0,18.110770276274835,60.29925372672534,44.181444068749045,36.0,32.0,36.0,16.0,26.0,9.0,7.0,11.04536101718726,11.04536101718726,12.0,42.0,36.0,33.06055050963308,{}
315,315,20.024984394500787,83.09632964216891,9.055385138137416,15.033296378372908,22.02271554554524,25.019992006393608,17.029386365926403,61.1310068623117,46.09772228646444,36.0,31.0,35.0,16.0,28.0,12.0,7.0,12.0,11.04536101718726,12.0,41.0,36.0,33.13608305156178,{}
316,316,19.026297590440446,83.15046602394962,9.055385138137416,15.033296378372908,22.02271554554524,24.020824298928627,17.11724276862369,60.20797289396148,45.17742799230607,35.5,29.0,34.0,14.5,28.5,12.5,5.5,12.041594578792296,11.0,11.5,41.0,36.0,32.0624390837628,{}
317,317,15.033296378372908,82.15229759416349,8.06225774829855,16.0312195418814,22.02271554554524,24.0,17.029386365926403,56.1426753904728,40.11234224026316,32.5,27.0,32.0,12.5,26.5,8.5,4.5,13.038404810405298,11.0,11.5,33.0,25.0,33.13608305156178,{}
318,318,12.041594578792296,80.09993757800315,8.06225774829855,16.0312195418814,21.02379604162864,23.021728866442675,16.0312195418814,52.15361924162119,36.12478373637688,30.0,26.0,30.0,12.0,24.0,7.0,4.0,12.041594578792296,12.0,12.0,41.0,36.0,33.06055050963308,{}
319,319,12.041594578792296,81.09870529176159,8.0,16.0312195418814,21.02379604162864,22.0,16.0312195418814,52.08646657242167,36.05551275463989,30.0,26.0,30.0,12.0,24.0,7.0,4.0,12.0,11.0,11.0,40.0,36.0,33.015148038438355,{}
320,320,11.04536101718726,77.02596964660685,8.06225774829855,15.033296378372908,20.024984394500787,22.02271554554524,15.0,49.09175083453431,34.058772731852805,28.5,26.0,28.0,12.0,22.0,5.0,4.0,11.04536101718726,11.04536101718726,11.5,40.0,36.0,32.01562118716424,{}
321,321,10.04987562112089,79.05694150420949,8.0,16.0312195418814,21.0,22.02271554554524,16.0,50.039984012787215,34.0147027033899,29.0,26.0,29.0,11.5,22.5,4.5,4.5,12.0,12.0,12.5,40.0,37.0,31.064449134018133,{}
322,322,12.041594578792296,79.00632886041473,9.0,16.0,21.0,23.0,14.0356688476182,51.0,35.0,29.0,26.0,27.0,12.5,24.5,6.5,4.5,13.0,12.041594578792296,12.5,39.0,37.0,32.01562118716424,{}
323,323,18.027756377319943,83.0,8.0,16.0,23.0,24.020824298928627,14.0,56.00892785976178,40.01249804748511,31.0,26.0,26.0,12.0,30.0,12.0,4.0,11.04536101718726,11.0,11.5,38.0,37.0,32.01562118716424,{}
324,324,21.02379604162864,84.00595217006948,8.0,14.0,22.0,25.019992006393608,15.033296378372908,58.034472514187634,44.04543109109048,33.5,27.0,26.0,11.5,31.5,16.5,3.5,13.0,12.0,12.0,37.0,38.0,30.01666203960727,{}
325,325,21.0,84.00595217006948,8.0,14.0,22.02271554554524,24.0,15.033296378372908,58.00862004909271,44.01136216933077,33.5,26.0,25.0,10.5,32.5,17.5,3.5,12.0,12.0,12.0,37.0,38.0,32.01562118716424,{}
326,326,21.02379604162864,84.00595217006948,7.0,13.0,23.021728866442675,24.020824298928627,16.0312195418814,57.0350769263968,44.04543109109048,33.5,26.0,25.0,9.5,31.5,17.5,3.5,13.0,11.0,12.0,37.0,39.0,32.0,{}
327,327,11.0,83.00602387778854,8.0,16.0,22.0,23.021728866442675,16.0,51.0,35.0,29.5,25.0,24.0,8.5,26.5,9.5,1.5,12.0,12.041594578792296,12.0,37.0,39.0,31.0,{}
328,328,12.0,80.02499609497022,8.0,14.0,21.0,22.02271554554524,16.0,50.0,36.0,30.0,26.0,24.0,9.0,25.0,9.0,2.0,13.0,12.0,12.5,37.0,39.0,34.0,{}
329,329,10.0,75.05997601918082,7.0,14.0,19.0,21.02379604162864,17.029386365926403,48.010415536631214,34.0147027033899,29.0,27.0,24.0,8.5,22.5,7.5,2.5,12.0,11.0,11.0,35.0,38.0,32.0,{}
330,330,10.0,74.02702209328699,7.0,13.0,20.0,22.02271554554524,17.0,47.0,34.0,29.0,27.0,25.0,9.0,21.0,7.0,3.0,11.0,10.0,10.5,36.0,39.0,32.01562118716424,{}
331,331,9.0,75.05997601918082,8.0,13.038404810405298,19.0,21.02379604162864,17.0,47.01063709417264,34.0,29.5,28.0,25.0,9.5,20.5,6.5,2.5,8.06225774829855,7.071067811865476,7.0,36.0,38.0,31.016124838541646,{}
332,332,10.04987562112089,75.02666192761077,6.082762530298219,14.0,19.026297590440446,20.024984394500787,17.0,47.0,33.0,28.0,26.0,24.0,8.0,22.0,7.0,3.0,4.123105625617661,4.123105625617661,4.0,37.0,39.0,32.0,{}
333,333,11.04536101718726,80.02499609497022,7.071067811865476,14.0356688476182,19.026297590440446,21.02379604162864,16.0312195418814,48.0,34.0147027033899,28.5,25.0,23.0,8.0,24.0,8.0,2.0,2.23606797749979,2.23606797749979,2.0,38.0,40.0,32.01562118716424,{}
334,334,12.0,80.02499609497022,7.0,14.0,20.024984394500787,21.0,17.0,50.0,36.0,30.0,27.0,25.0,9.0,24.0,9.0,3.0,3.1622776601683795,3.1622776601683795,2.5,37.0,39.0,30.0,{}
335,335,10.0,77.02596964660685,7.0,15.0,20.0,21.02379604162864,16.0,48.0,33.0,28.0,26.0,24.0,9.0,23.0,7.0,3.0,5.0990195135927845,3.1622776601683795,3.5,37.0,39.0,30.0,{}
336,336,8.06225774829855,78.00640999302557,8.0,14.0,21.0,22.02271554554524,17.029386365926403,47.0,33.0,29.0,26.0,25.0,8.5,21.5,5.5,1.5,6.0,5.0990195135927845,5.5,36.0,38.0,31.016124838541646,{}
337,337,2.0,80.00624975587844,11.0,16.0,21.02379604162864,22.02271554554524,18.027756377319943,47.01063709417264,31.016124838541646,30.0,28.0,27.0,9.5,19.5,2.5,0.5,9.055385138137416,8.0,7.5,35.0,36.0,33.015148038438355,{}
338,338,1.0,80.00624975587844,11.0,15.033296378372908,21.0,22.02271554554524,18.027756377319943,45.044422518220834,30.01666203960727,29.5,28.0,27.0,9.5,17.5,1.5,0.5,9.0,9.0,8.5,36.0,37.0,32.0,{}
339,339,1.0,81.00617260431454,11.0,15.0,21.0,22.02271554554524,19.026297590440446,44.01136216933077,29.017236257093817,29.5,28.0,27.0,8.5,16.5,0.5,0.5,10.0,10.04987562112089,10.0,35.0,37.0,33.015148038438355,{}
340,340,0.0,80.02499609497022,11.0,15.0,21.0,21.0,17.029386365926403,43.01162633521314,28.0178514522438,28.0,28.0,26.0,10.0,16.0,0.0,0.0,11.0,10.0,10.0,35.0,37.0,33.0,{}
341,341,0.0,81.00617260431454,11.0,15.033296378372908,21.0,22.02271554554524,18.027756377319943,44.04543109109048,29.017236257093817,29.0,27.0,26.0,8.5,17.5,1.5,0.5,11.0,10.0,10.0,35.0,38.0,33.0,{}
342,342,1.0,82.00609733428362,12.0,15.0,20.024984394500787,21.02379604162864,18.027756377319943,44.01136216933077,29.017236257093817,29.5,28.0,27.0,9.5,16.5,0.5,0.5,12.0,12.0,12.0,35.0,38.0,33.015148038438355,{}
343,343,0.0,82.0,11.0,15.0,20.0,20.0,18.027756377319943,44.01136216933077,29.017236257093817,29.0,28.0,28.0,10.0,16.0,0.0,0.0,12.0,11.0,11.5,36.0,38.0,33.0,{}
344,344,0.0,83.0,11.0,15.0,21.0,21.0,18.0,44.0,29.0,29.0,28.0,28.0,10.0,16.0,0.0,0.0,12.0,11.04536101718726,11.0,35.0,38.0,32.0,{}
345,345,1.0,83.00602387778854,11.0,15.0,20.024984394500787,21.0,18.027756377319943,43.01162633521314,28.0178514522438,28.5,27.0,28.0,9.5,15.5,0.5,0.5,12.0,10.04987562112089,10.5,35.0,38.0,31.0,{}
346,346,0.0,84.00595217006948,12.0,15.0,22.02271554554524,22.0,17.029386365926403,44.01136216933077,29.017236257093817,29.0,27.0,28.0,10.5,16.5,0.5,0.5,12.041594578792296,11.04536101718726,11.0,35.0,37.0,32.0,{}
347,347,1.4142135623730951,86.02325267042627,11.0,15.0,21.0,21.0,17.029386365926403,44.0,29.0,28.5,26.0,28.0,10.0,17.0,1.0,0.0,12.0,11.04536101718726,11.5,36.0,38.0,31.016124838541646,{}
348,348,1.0,84.02380615040002,11.0,16.0,20.0,21.0,17.0,44.01136216933077,28.0178514522438,28.0,26.0,28.0,10.0,17.0,0.0,0.0,12.0,11.0,11.5,35.0,37.0,32.0,{}
349,349,1.0,84.00595217006948,10.0,15.0,21.0,22.0,18.0,44.0,29.0,28.5,27.0,28.0,9.5,16.5,0.5,0.5,12.0,11.04536101718726,11.5,35.0,37.0,32.0,{}
350,350,1.0,84.00595217006948,10.0,15.0,21.02379604162864,22.0,18.0,44.0,29.0,28.5,27.0,28.0,9.5,16.5,0.5,0.5,12.0,12.0,12.0,36.0,37.0,31.0,{}
351,351,1.0,84.00595217006948,11.0,16.0,21.0,22.0,18.0,45.0111097397076,29.017236257093817,29.0,28.0,29.0,10.5,16.5,0.5,0.5,12.0,10.04987562112089,10.5,34.0,36.0,32.0,{}
352,352,1.0,84.00595217006948,11.0,15.0,21.0,22.0,18.0,44.01136216933077,29.017236257093817,29.0,28.0,29.0,10.5,15.5,0.5,0.5,12.0,11.0,11.0,34.0,36.0,32.0,{}
353,353,0.0,82.00609733428362,11.0,15.0,19.0,21.0,18.0,44.0,29.0,29.0,28.0,29.0,10.5,15.5,0.5,0.5,12.0,11.04536101718726,11.5,34.0,36.0,31.0,{}
354,354,0.0,81.0,11.0,15.0,19.026297590440446,21.02379604162864,18.0,44.0,29.0,29.0,29.0,29.0,11.0,15.0,1.0,1.0,12.041594578792296,11.04536101718726,11.5,34.0,37.0,32.0,{}
355,355,1.0,81.00617260431454,12.0,15.033296378372908,20.0,21.0,17.029386365926403,44.01136216933077,29.0,29.0,28.0,29.0,11.5,15.5,1.5,1.5,12.0,11.04536101718726,11.0,35.0,37.0,32.01562118716424,{}
356,356,1.0,81.0,11.0,15.033296378372908,20.0,21.0,18.0,44.0,29.017236257093817,29.0,29.0,29.0,11.0,15.0,1.0,1.0,12.0,11.04536101718726,11.0,34.0,37.0,32.0,{}
357,357,1.0,81.00617260431454,11.0,14.0,19.0,21.0,18.0,44.0,30.0,29.5,29.0,30.0,11.5,14.5,1.5,1.5,12.0,11.0,11.5,34.0,36.0,31.0,{}
358,358,1.0,80.0,11.0,15.0,19.026297590440446,20.024984394500787,18.027756377319943,45.0111097397076,30.01666203960727,29.5,30.0,30.0,12.0,15.0,1.0,1.0,12.0,11.0,11.5,34.0,36.0,31.016124838541646,{}
359,359,1.4142135623730951,78.00640999302557,12.0,16.0,19.026297590440446,20.0,18.0,47.01063709417264,31.016124838541646,30.5,30.0,31.0,12.5,16.5,0.5,1.5,12.041594578792296,12.041594578792296,12.0,35.0,36.0,32.01562118716424,{}
360,360,5.0990195135927845,81.0,10.0,16.0,20.0,21.0,19.0,50.00999900019995,34.0147027033899,31.5,32.0,32.0,13.0,18.0,1.0,4.0,12.0,12.0,12.0,35.0,36.0,31.0,{}
361,361,11.0,81.02468759581859,9.055385138137416,15.033296378372908,20.024984394500787,21.02379604162864,19.026297590440446,54.00925846556311,39.0,33.5,32.0,34.0,14.0,21.0,4.0,5.0,12.0,12.0,12.5,35.0,36.0,30.0,{}
362,362,11.04536101718726,81.00617260431454,11.0,16.0,20.024984394500787,21.0,17.0,55.00909015790027,39.01281840626232,33.5,33.0,34.0,16.5,21.5,4.5,5.5,12.041594578792296,12.0,12.0,34.0,36.0,31.0,{}
363,363,12.0,80.00624975587844,11.0,17.0,19.026297590440446,22.0,18.0,58.0,41.0,35.0,35.0,36.0,17.5,22.5,4.5,6.5,12.0,12.0,11.5,35.0,36.0,32.01562118716424,{}
364,364,15.033296378372908,81.00617260431454,11.0,18.0,20.0,23.021728866442675,18.0,62.00806399170998,44.01136216933077,36.5,37.0,38.0,19.5,24.5,5.5,9.5,12.0,11.0,11.0,34.0,35.0,33.015148038438355,{}
365,365,16.0,82.00609733428362,12.041594578792296,18.0,22.0,24.0,18.0,64.00781202322104,46.01086828130936,38.0,39.0,38.0,20.5,25.5,6.5,9.5,10.04987562112089,10.04987562112089,10.0,35.0,35.0,32.01562118716424,{}
366,366,19.0,82.00609733428362,11.04536101718726,18.0,22.02271554554524,24.0,19.0,67.00746227100382,49.01020301937138,39.5,39.0,40.0,20.5,27.5,7.5,9.5,4.123105625617661,4.123105625617661,3.5,33.0,34.0,33.0,{}
367,367,20.024984394500787,81.00617260431454,11.0,18.0,22.02271554554524,24.0,19.0,68.00735254367721,50.00999900019995,40.0,39.0,40.0,20.5,28.5,8.5,9.5,3.0,3.1622776601683795,3.5,40.0,40.0,32.0,{}
368,368,23.0,82.02438661763951,11.04536101718726,17.029386365926403,23.0,24.020824298928627,18.0,69.02897942168927,52.009614495783374,40.5,38.0,40.0,21.0,30.0,11.0,10.0,3.1622776601683795,3.605551275463989,3.0,40.0,37.0,33.015148038438355,{}
369,369,22.02271554554524,81.05553651663777,12.041594578792296,17.029386365926403,23.021728866442675,26.0,18.0,69.06518659932803,52.03844732503075,41.0,39.0,42.0,22.5,28.5,9.5,10.5,4.123105625617661,3.1622776601683795,3.0,40.0,36.0,35.05709628591621,{}
370,370,25.019992006393608,82.09750300709517,10.0,17.029386365926403,22.02271554554524,25.019992006393608,19.026297590440446,71.06335201775947,54.037024344425184,41.5,39.0,43.0,22.0,30.0,11.0,11.0,6.082762530298219,5.385164807134504,5.0,36.0,31.0,33.13608305156178,{}
371,371,22.02271554554524,82.09750300709517,11.0,18.027756377319943,23.021728866442675,25.019992006393608,19.026297590440446,70.06425622241343,52.03844732503075,41.0,39.0,43.0,22.0,29.0,9.0,11.0,6.0,6.324555320336759,6.0,38.0,33.0,32.0624390837628,{}
372,372,23.0,82.15229759416349,11.04536101718726,18.027756377319943,22.02271554554524,24.020824298928627,18.110770276274835,70.11419257183242,52.08646657242167,40.5,38.0,43.0,22.5,29.5,9.5,11.5,7.0,7.280109889280518,7.0,37.0,32.0,33.13608305156178,{}
373,373,24.020824298928627,80.22468448052632,11.04536101718726,17.029386365926403,22.02271554554524,24.020824298928627,18.110770276274835,70.178344238091,53.150729063673246,41.0,38.0,44.0,23.0,29.0,9.0,12.0,7.0,7.280109889280518,7.0,38.0,32.0,35.12833614050059,{}
374,374,22.02271554554524,81.15417426109393,11.0,18.110770276274835,22.02271554554524,24.020824298928627,19.1049731745428,70.178344238091,52.08646657242167,41.0,39.0,44.0,22.5,28.5,8.5,11.5,8.0,8.06225774829855,8.5,38.0,31.0,34.23448553724738,{}
375,375,24.020824298928627,81.15417426109393,11.04536101718726,17.029386365926403,22.09072203437452,24.020824298928627,18.110770276274835,70.178344238091,53.150729063673246,41.0,39.0,44.0,23.5,28.5,9.5,11.5,8.0,9.055385138137416,9.0,37.0,29.0,33.24154027718932,{}
376,376,23.08679276123039,81.15417426109393,10.0,18.027756377319943,22.02271554554524,25.079872407968907,19.235384061671343,70.25667228100119,52.23983154643591,40.5,38.0,43.0,21.5,29.5,9.5,11.5,8.06225774829855,8.06225774829855,8.0,38.0,30.0,32.2490309931942,{}
377,377,24.020824298928627,81.30190649671138,10.04987562112089,17.11724276862369,22.09072203437452,24.020824298928627,19.1049731745428,70.25667228100119,53.150729063673246,41.0,37.0,44.0,21.5,29.5,9.5,10.5,9.0,9.219544457292889,9.5,39.0,30.0,34.23448553724738,{}
378,378,23.021728866442675,80.30566605165541,11.04536101718726,17.11724276862369,22.09072203437452,24.020824298928627,18.24828759089466,69.35416353759881,52.23983154643591,40.5,37.0,44.0,22.5,28.5,9.5,10.5,9.055385138137416,9.219544457292889,9.0,40.0,30.0,33.24154027718932,{}
379,379,22.09072203437452,81.30190649671138,11.04536101718726,17.11724276862369,22.09072203437452,24.08318915758459,19.1049731745428,69.35416353759881,52.23983154643591,41.0,37.0,44.0,21.5,28.5,9.5,10.5,9.055385138137416,10.198039027185567,10.0,40.0,30.0,33.13608305156178,{}
380,380,21.095023109728988,79.30952023559341,11.04536101718726,18.110770276274835,22.09072203437452,24.08318915758459,19.1049731745428,69.35416353759881,51.24451190127583,40.5,37.0,44.0,21.5,28.5,8.5,10.5,9.055385138137416,9.219544457292889,9.5,41.0,30.0,33.24154027718932,{}
381,381,17.11724276862369,79.40403012442127,11.04536101718726,18.027756377319943,21.095023109728988,23.08679276123039,19.1049731745428,65.27633568147036,47.265209192385896,38.5,35.0,43.0,20.0,26.0,6.0,9.0,10.04987562112089,10.198039027185567,10.0,41.0,29.0,33.24154027718932,{}
382,382,9.055385138137416,77.41446893184762,14.0356688476182,19.1049731745428,20.09975124224178,22.09072203437452,19.235384061671343,61.40032573203501,42.2965719651132,37.5,34.0,42.0,19.0,23.0,3.0,5.0,11.180339887498947,10.198039027185567,10.5,42.0,31.0,33.24154027718932,{}
383,383,5.385164807134504,76.4198926981712,12.0,16.0312195418814,20.09975124224178,21.095023109728988,21.213203435596427,54.3323108288245,38.3275357934736,35.5,32.0,40.0,15.0,18.0,0.0,3.0,11.04536101718726,10.04987562112089,10.5,43.0,31.0,32.38826948140329,{}
384,384,1.0,78.31347265956222,13.038404810405298,15.132745950421556,20.09975124224178,21.095023109728988,21.213203435596427,50.35871324805669,35.22782990761707,34.5,31.0,38.0,13.5,15.5,1.5,1.5,10.04987562112089,10.04987562112089,10.5,42.0,32.0,30.4138126514911,{}
385,385,1.0,77.41446893184762,12.041594578792296,14.142135623730953,19.235384061671343,20.09975124224178,22.09072203437452,48.373546489791295,34.23448553724738,34.0,30.0,38.0,12.0,14.0,2.0,0.0,10.04987562112089,10.04987562112089,10.0,42.0,31.0,31.25699921617557,{}
386,386,1.0,79.40403012442127,12.0,14.142135623730953,20.223748416156685,21.095023109728988,22.20360331117452,48.373546489791295,34.23448553724738,34.0,30.0,38.0,12.0,14.0,2.0,0.0,11.180339887498947,11.04536101718726,11.0,41.0,30.0,32.2490309931942,{}
387,387,4.123105625617661,77.23341245859851,12.041594578792296,18.110770276274835,20.024984394500787,22.02271554554524,20.09975124224178,54.3323108288245,36.22154055254967,34.0,31.0,37.0,14.0,20.0,0.0,2.0,11.180339887498947,10.198039027185567,10.5,42.0,31.0,32.2490309931942,{}
388,388,11.04536101718726,80.30566605165541,12.041594578792296,17.11724276862369,21.095023109728988,23.08679276123039,18.110770276274835,58.30951894845301,41.19465984809196,35.5,30.0,37.0,15.5,24.5,5.5,3.5,11.04536101718726,10.04987562112089,10.5,42.0,32.0,31.14482300479488,{}
389,389,20.024984394500787,82.29823813423954,9.055385138137416,15.132745950421556,21.02379604162864,23.021728866442675,18.24828759089466,62.39390995922599,47.265209192385896,37.0,31.0,38.0,16.5,27.5,11.5,7.5,11.180339887498947,10.04987562112089,10.5,42.0,31.0,32.38826948140329,{}
390,390,20.09975124224178,82.29823813423954,10.04987562112089,14.142135623730953,21.02379604162864,24.08318915758459,16.278820596099706,60.53098380168623,46.389654018972806,36.0,29.0,36.0,16.5,27.5,11.5,6.5,11.180339887498947,11.04536101718726,11.5,43.0,32.0,31.14482300479488,{}
391,391,17.029386365926403,84.38009243891595,9.055385138137416,15.132745950421556,22.09072203437452,23.021728866442675,18.24828759089466,59.4138031100518,44.28317965096906,35.5,28.0,36.0,14.0,27.0,11.0,5.0,12.041594578792296,11.180339887498947,11.5,43.0,33.0,32.2490309931942,{}
392,392,18.110770276274835,84.48076704197234,8.06225774829855,13.152946437965904,22.09072203437452,24.08318915758459,16.278820596099706,55.57877292636101,42.42640687119285,33.0,25.0,34.0,13.5,25.5,10.5,4.5,11.04536101718726,11.180339887498947,11.5,43.0,33.0,31.14482300479488,{}
393,393,16.1245154965971,85.37564055396598,9.055385138137416,13.152946437965904,21.095023109728988,23.08679276123039,17.11724276862369,55.44366510251645,42.2965719651132,34.0,26.0,34.0,13.0,25.0,10.0,4.0,12.041594578792296,11.04536101718726,11.5,42.0,31.0,31.400636936215164,{}
394,394,14.142135623730953,85.47514258543241,10.04987562112089,15.132745950421556,22.09072203437452,24.08318915758459,16.1245154965971,55.44366510251645,40.311288741492746,33.0,25.0,34.0,13.5,25.5,8.5,3.5,12.16552506059644,11.04536101718726,11.5,42.0,31.0,29.42787793912432,{}
395,395,16.1245154965971,83.38465086573187,9.055385138137416,13.152946437965904,21.095023109728988,23.08679276123039,16.278820596099706,54.589376255824725,41.43669871020132,33.0,25.0,33.0,13.0,25.0,10.0,4.0,12.16552506059644,11.180339887498947,11.5,42.0,32.0,30.26549190084312,{}
396,396,15.033296378372908,82.38931969618392,9.055385138137416,13.152946437965904,21.02379604162864,23.08679276123039,16.278820596099706,53.46026561849464,40.311288741492746,32.5,26.0,34.0,14.0,23.0,9.0,5.0,12.041594578792296,11.04536101718726,11.5,42.0,32.0,30.26549190084312,{}
397,397,14.142135623730953,80.30566605165541,8.06225774829855,14.0356688476182,21.095023109728988,23.021728866442675,17.11724276862369,53.33854141237835,39.319206502675,32.0,26.0,33.0,12.5,23.5,7.5,3.5,12.041594578792296,11.04536101718726,11.5,42.0,32.0,31.25699921617557,{}
398,398,9.055385138137416,80.50465825031493,9.055385138137416,15.132745950421556,20.09975124224178,22.20360331117452,17.11724276862369,50.35871324805669,35.22782990761707,30.5,25.0,34.0,12.5,20.5,3.5,3.5,12.041594578792296,11.180339887498947,11.5,42.0,32.0,30.14962686336267,{}
399,399,9.219544457292889,78.40918313565064,9.055385138137416,15.033296378372908,20.09975124224178,21.213203435596427,16.1245154965971,49.36598018878993,34.36568055487916,29.5,26.0,34.0,14.0,19.0,2.0,4.0,11.04536101718726,11.180339887498947,11.5,42.0,31.0,31.25699921617557,{}
400,400,11.04536101718726,77.52418977325722,8.06225774829855,13.152946437965904,19.1049731745428,22.09072203437452,17.11724276862369,49.36598018878993,36.22154055254967,30.5,26.0,35.0,13.5,18.5,3.5,4.5,12.16552506059644,11.180339887498947,11.5,42.0,31.0,31.25699921617557,{}
401,401,6.324555320336759,77.52418977325722,8.0,15.132745950421556,20.09975124224178,21.095023109728988,18.24828759089466,47.51841748206689,32.38826948140329,29.0,25.0,34.0,11.5,17.5,0.5,3.5,12.041594578792296,11.04536101718726,11.0,42.0,31.0,31.14482300479488,{}
402,402,8.246211251235321,77.52418977325722,8.06225774829855,14.0356688476182,20.223748416156685,21.095023109728988,17.11724276862369,47.38143096192854,33.37663853655727,29.0,24.0,33.0,11.5,18.5,2.5,2.5,12.041594578792296,11.04536101718726,11.5,43.0,32.0,30.26549190084312,{}
403,403,8.06225774829855,77.52418977325722,9.055385138137416,13.152946437965904,19.1049731745428,21.095023109728988,17.26267650163207,47.51841748206689,34.36568055487916,30.0,24.0,33.0,11.5,18.5,3.5,2.5,12.041594578792296,11.04536101718726,11.0,42.0,31.0,30.26549190084312,{}
404,404,6.324555320336759,78.77182237323191,9.055385138137416,14.0356688476182,20.223748416156685,21.213203435596427,17.11724276862369,46.389654018972806,32.38826948140329,29.0,22.0,33.0,10.5,18.5,2.5,0.5,11.04536101718726,11.04536101718726,11.5,42.0,32.0,30.26549190084312,{}
405,405,7.280109889280518,77.64663547121665,8.0,13.152946437965904,19.235384061671343,20.09975124224178,18.24828759089466,46.52956049652737,33.37663853655727,29.5,23.0,33.0,10.0,18.0,3.0,1.0,12.16552506059644,11.04536101718726,11.0,42.0,32.0,30.14962686336267,{}
406,406,7.280109889280518,77.52418977325722,9.055385138137416,13.152946437965904,20.09975124224178,21.213203435596427,17.11724276862369,46.52956049652737,33.37663853655727,29.5,23.0,32.0,10.5,18.5,2.5,1.5,12.16552506059644,12.041594578792296,12.0,41.0,31.0,32.2490309931942,{}
407,407,7.280109889280518,77.64663547121665,9.055385138137416,13.152946437965904,19.235384061671343,20.223748416156685,17.11724276862369,46.52956049652737,33.37663853655727,29.5,22.0,32.0,10.0,19.0,4.0,0.0,12.041594578792296,10.04987562112089,10.5,43.0,32.0,30.26549190084312,{}
408,408,6.082762530298219,77.64663547121665,10.04987562112089,14.142135623730953,20.223748416156685,20.223748416156685,17.11724276862369,47.38143096192854,33.24154027718932,30.0,22.0,32.0,10.0,20.0,4.0,1.0,12.041594578792296,12.041594578792296,12.5,42.0,31.0,31.25699921617557,{}
409,409,5.385164807134504,76.6550715869472,11.04536101718726,14.0356688476182,19.235384061671343,21.213203435596427,17.11724276862369,47.38143096192854,33.37663853655727,30.5,22.0,32.0,10.0,20.0,3.0,1.0,13.152946437965904,11.04536101718726,11.5,43.0,33.0,31.25699921617557,{}
410,410,5.0990195135927845,76.6550715869472,10.04987562112089,14.142135623730953,19.235384061671343,20.223748416156685,18.027756377319943,47.265209192385896,33.13608305156178,30.5,22.0,32.0,9.0,20.0,4.0,1.0,13.038404810405298,12.041594578792296,12.5,42.0,32.0,31.14482300479488,{}
411,411,6.082762530298219,75.53806987208503,10.04987562112089,13.152946437965904,18.110770276274835,20.09975124224178,17.029386365926403,46.2709412050371,33.13608305156178,30.0,23.0,32.0,10.5,18.5,2.5,0.5,12.041594578792296,11.04536101718726,11.5,43.0,32.0,29.27456233660889,{}
412,412,5.0990195135927845,78.63841300535,11.04536101718726,14.142135623730953,20.09975124224178,20.223748416156685,17.11724276862369,47.38143096192854,33.24154027718932,30.5,21.0,31.0,9.0,21.0,4.0,2.0,13.038404810405298,11.04536101718726,11.5,42.0,31.0,31.25699921617557,{}
413,413,5.385164807134504,78.5175139698144,11.04536101718726,14.142135623730953,19.235384061671343,19.235384061671343,17.029386365926403,47.38143096192854,33.24154027718932,30.5,22.0,31.0,9.5,20.5,3.5,1.5,13.152946437965904,11.180339887498947,11.5,43.0,32.0,30.14962686336267,{}
414,414,5.0990195135927845,76.53103945458993,11.04536101718726,14.142135623730953,18.110770276274835,20.223748416156685,17.11724276862369,47.38143096192854,33.24154027718932,30.5,22.0,31.0,9.5,20.5,3.5,1.5,12.16552506059644,11.04536101718726,11.5,43.0,32.0,29.27456233660889,{}
415,415,5.385164807134504,76.53103945458993,10.04987562112089,14.0356688476182,18.110770276274835,20.09975124224178,17.029386365926403,46.2709412050371,32.2490309931942,29.5,22.0,31.0,9.5,19.5,3.5,0.5,13.152946437965904,11.04536101718726,11.5,42.0,31.0,30.26549190084312,{}
416,416,5.0990195135927845,78.63841300535,11.04536101718726,14.142135623730953,20.223748416156685,21.213203435596427,17.26267650163207,47.51841748206689,33.37663853655727,30.5,22.0,32.0,10.0,20.0,3.0,1.0,12.16552506059644,12.041594578792296,12.5,42.0,32.0,29.27456233660889,{}
417,417,7.071067811865476,80.62257748298549,10.04987562112089,15.132745950421556,19.235384061671343,21.213203435596427,17.029386365926403,49.25444142409901,34.132096331752024,30.5,22.0,32.0,10.0,22.0,5.0,1.0,12.16552506059644,12.041594578792296,12.0,42.0,31.0,31.400636936215164,{}
418,418,9.055385138137416,78.40918313565064,11.04536101718726,16.1245154965971,20.223748416156685,22.20360331117452,16.1245154965971,52.3450093132096,36.22154055254967,31.5,24.0,32.0,12.0,24.0,5.0,1.0,12.16552506059644,12.041594578792296,12.5,42.0,32.0,31.25699921617557,{}
419,419,10.04987562112089,80.39900496896712,11.04536101718726,17.11724276862369,20.09975124224178,23.08679276123039,16.1245154965971,54.3323108288245,37.21558813185679,32.0,25.0,33.0,13.0,25.0,5.0,2.0,12.041594578792296,11.04536101718726,12.0,42.0,32.0,31.25699921617557,{}
420,420,15.033296378372908,82.38931969618392,10.04987562112089,17.11724276862369,21.095023109728988,23.08679276123039,16.1245154965971,58.30951894845301,41.19465984809196,33.5,26.0,34.0,14.0,28.0,9.0,3.0,12.16552506059644,12.041594578792296,12.0,42.0,33.0,31.14482300479488,{}
421,421,12.16552506059644,82.38931969618392,11.0,18.027756377319943,21.095023109728988,23.08679276123039,16.1245154965971,57.21887800367987,39.20459156782532,33.0,27.0,35.0,15.0,26.0,6.0,4.0,12.16552506059644,12.041594578792296,12.0,42.0,33.0,31.14482300479488,{}
422,422,12.041594578792296,83.2946576918352,11.04536101718726,18.110770276274835,23.08679276123039,25.079872407968907,16.1245154965971,57.3149195236284,39.20459156782532,33.0,27.0,34.0,14.5,26.5,6.5,3.5,11.04536101718726,11.04536101718726,11.5,41.0,33.0,32.14031735997639,{}
423,423,13.152946437965904,83.2946576918352,10.0,17.029386365926403,21.095023109728988,24.08318915758459,17.11724276862369,57.21887800367987,40.19950248448356,33.5,27.0,34.0,13.5,26.5,7.5,3.5,10.0,10.04987562112089,10.0,41.0,34.0,32.0624390837628,{}
424,424,14.0356688476182,83.21658488546619,10.04987562112089,16.0312195418814,21.02379604162864,23.08679276123039,17.11724276862369,57.21887800367987,41.19465984809196,34.0,27.0,33.0,13.0,27.0,9.0,3.0,11.04536101718726,10.0,10.0,41.0,35.0,32.0624390837628,{}
425,425,15.033296378372908,83.15046602394962,10.0,15.033296378372908,23.021728866442675,25.019992006393608,19.026297590440446,59.07622195096772,44.04543109109048,36.5,29.0,34.0,12.5,27.5,10.5,3.5,12.041594578792296,11.04536101718726,11.0,39.0,34.0,34.058772731852805,{}
426,426,8.06225774829855,80.02499609497022,11.0,17.0,21.0,22.0,19.0,55.00909015790027,38.01315561749642,34.0,31.0,33.0,13.0,23.0,4.0,3.0,11.0,11.0,11.0,39.0,37.0,33.015148038438355,{}
427,427,3.0,78.00640999302557,12.0,16.0,20.0,21.0,20.0,51.0,35.0,33.5,31.0,30.0,10.5,20.5,3.5,0.5,11.04536101718726,11.0,11.0,38.0,38.0,33.0,{}
428,428,2.0,78.02563681252464,11.0,14.0356688476182,19.0,20.024984394500787,21.02379604162864,48.04164859785725,34.0147027033899,33.0,32.0,30.0,10.0,17.0,1.0,0.0,12.0,11.0,11.0,36.0,40.0,32.01562118716424,{}
429,429,1.0,77.10382610480494,12.0,15.033296378372908,20.024984394500787,22.02271554554524,20.024984394500787,47.09564735726647,32.0624390837628,32.0,33.0,29.0,11.0,16.0,0.0,1.0,12.0,11.04536101718726,11.5,34.0,41.0,32.0624390837628,{}
430,430,1.0,80.15609770940699,12.0,15.033296378372908,21.095023109728988,22.09072203437452,19.026297590440446,47.042533945356304,32.01562118716424,31.5,34.0,29.0,12.5,15.5,0.5,2.5,12.0,12.0,12.0,34.0,41.0,33.06055050963308,{}
431,431,4.0,79.22752047110903,11.0,16.0312195418814,21.095023109728988,22.09072203437452,19.026297590440446,50.039984012787215,34.0147027033899,32.0,36.0,30.0,14.0,17.0,1.0,5.0,12.0,12.041594578792296,12.0,32.0,40.0,32.0624390837628,{}
432,432,7.0,80.15609770940699,10.04987562112089,16.0312195418814,21.02379604162864,23.021728866442675,18.027756377319943,51.0881590977792,35.05709628591621,31.5,36.0,31.0,15.5,17.5,1.5,7.5,12.041594578792296,11.0,11.5,32.0,41.0,32.0624390837628,{}
433,433,9.0,81.30190649671138,11.0,16.1245154965971,21.095023109728988,22.09072203437452,17.029386365926403,53.08483775994799,37.01351104664349,32.5,37.0,30.0,16.5,19.5,3.5,7.5,12.041594578792296,12.041594578792296,12.0,32.0,41.0,33.06055050963308,{}
434,434,9.0,82.29823813423954,10.04987562112089,16.0312195418814,21.095023109728988,23.08679276123039,17.029386365926403,52.08646657242167,36.05551275463989,31.5,35.0,28.0,14.5,20.5,4.5,5.5,11.04536101718726,11.04536101718726,11.0,33.0,42.0,31.064449134018133,{}
435,435,8.0,82.21921916437786,10.04987562112089,16.0312195418814,20.09975124224178,23.08679276123039,18.027756377319943,52.08646657242167,36.05551275463989,32.0,35.0,29.0,14.0,20.0,4.0,6.0,12.041594578792296,11.04536101718726,11.5,31.0,40.0,31.14482300479488,{}
436,436,8.0,81.2219182240853,11.04536101718726,17.029386365926403,21.095023109728988,23.08679276123039,17.029386365926403,53.08483775994799,36.05551275463989,32.0,34.0,28.0,14.0,22.0,4.0,5.0,12.0,12.041594578792296,12.0,33.0,41.0,32.14031735997639,{}
437,437,10.0,83.21658488546619,11.04536101718726,16.0312195418814,20.09975124224178,23.08679276123039,17.029386365926403,54.08326913195984,38.05259518088089,33.0,34.0,28.0,14.0,23.0,6.0,5.0,12.041594578792296,12.16552506059644,12.5,33.0,41.0,31.14482300479488,{}
438,438,10.0,82.21921916437786,10.04987562112089,16.0312195418814,21.02379604162864,23.08679276123039,17.029386365926403,53.08483775994799,37.05401462729781,32.0,34.0,28.0,14.0,22.0,5.0,5.0,13.038404810405298,11.04536101718726,11.5,33.0,42.0,32.14031735997639,{}
439,439,11.0,81.2219182240853,9.055385138137416,16.0312195418814,21.095023109728988,23.08679276123039,18.027756377319943,54.08326913195984,38.05259518088089,32.5,34.0,28.0,13.0,23.0,7.0,6.0,12.041594578792296,12.041594578792296,12.0,33.0,42.0,32.14031735997639,{}
440,440,10.0,80.22468448052632,9.0,16.0312195418814,21.02379604162864,22.09072203437452,18.027756377319943,53.03772242470448,37.01351104664349,32.0,34.0,28.0,13.0,22.0,5.0,5.0,13.038404810405298,12.041594578792296,12.0,33.0,42.0,33.13608305156178,{}
441,441,9.0,80.30566605165541,9.055385138137416,16.0312195418814,21.02379604162864,23.08679276123039,18.027756377319943,52.08646657242167,36.05551275463989,31.5,35.0,28.0,13.5,20.5,4.5,5.5,12.041594578792296,12.041594578792296,12.0,33.0,42.0,32.14031735997639,{}
442,442,10.0,79.22752047110903,9.055385138137416,15.033296378372908,20.09975124224178,22.09072203437452,18.110770276274835,52.15361924162119,37.12142238654117,32.0,34.0,28.0,13.0,21.0,5.0,6.0,12.041594578792296,11.04536101718726,12.0,33.0,43.0,32.2490309931942,{}
443,443,11.0,78.23042886243178,9.055385138137416,14.0356688476182,19.026297590440446,22.09072203437452,18.110770276274835,52.15361924162119,38.11823710509184,32.5,34.0,28.0,13.0,21.0,6.0,5.0,13.038404810405298,12.041594578792296,12.5,33.0,42.0,34.132096331752024,{}
444,444,11.0,78.31347265956222,9.055385138137416,15.033296378372908,19.026297590440446,21.213203435596427,17.26267650163207,52.23983154643591,37.21558813185679,31.5,34.0,27.0,13.5,21.5,6.5,5.5,12.041594578792296,12.16552506059644,12.0,33.0,43.0,32.14031735997639,{}
445,445,11.0,79.30952023559341,9.055385138137416,15.033296378372908,20.09975124224178,22.09072203437452,17.11724276862369,52.15361924162119,37.12142238654117,31.5,34.0,27.0,13.5,21.5,5.5,6.5,12.041594578792296,12.041594578792296,12.0,33.0,44.0,33.24154027718932,{}
446,446,12.0,80.30566605165541,8.06225774829855,15.132745950421556,20.09975124224178,22.20360331117452,19.1049731745428,54.230987451824994,39.11521443121589,33.0,36.0,29.0,13.5,21.5,5.5,6.5,12.16552506059644,11.180339887498947,11.5,32.0,43.0,33.24154027718932,{}
447,447,12.041594578792296,80.30566605165541,9.0,16.0312195418814,20.09975124224178,22.09072203437452,18.110770276274835,55.14526271584895,39.11521443121589,33.0,36.0,29.0,14.5,22.5,6.5,6.5,13.152946437965904,12.041594578792296,12.0,31.0,43.0,33.37663853655727,{}
448,448,14.0,81.30190649671138,10.04987562112089,18.110770276274835,21.095023109728988,23.08679276123039,17.26267650163207,59.30430001273095,41.19465984809196,34.0,36.0,29.0,15.5,26.5,8.5,6.5,13.038404810405298,12.16552506059644,12.5,32.0,44.0,32.2490309931942,{}
449,449,16.0,80.39900496896712,11.04536101718726,16.1245154965971,21.095023109728988,23.08679276123039,16.492422502470642,59.4138031100518,43.28972164382672,35.0,36.0,28.0,16.0,27.0,10.0,7.0,13.152946437965904,11.180339887498947,11.5,32.0,44.0,34.23448553724738,{}
450,450,18.027756377319943,83.2946576918352,10.04987562112089,18.027756377319943,21.213203435596427,24.08318915758459,17.26267650163207,63.28506932918696,45.27692569068709,36.0,36.0,29.0,15.5,30.5,12.5,7.5,12.041594578792296,12.16552506059644,12.0,31.0,43.0,33.37663853655727,{}
451,451,17.0,83.2946576918352,10.04987562112089,17.029386365926403,21.095023109728988,23.194827009486403,17.46424919657298,61.29437168288782,44.28317965096906,35.5,35.0,28.0,14.5,29.5,12.5,6.5,13.152946437965904,12.041594578792296,12.0,31.0,43.0,34.36568055487916,{}
452,452,12.041594578792296,82.29823813423954,10.0,17.029386365926403,21.095023109728988,22.09072203437452,17.46424919657298,56.32051136131489,39.319206502675,33.0,34.0,27.0,13.5,25.5,8.5,4.5,13.038404810405298,12.16552506059644,12.5,32.0,44.0,32.38826948140329,{}
453,453,11.04536101718726,82.29823813423954,9.0,17.029386365926403,21.213203435596427,23.08679276123039,17.26267650163207,54.230987451824994,37.21558813185679,31.5,33.0,26.0,12.5,24.5,7.5,5.5,13.038404810405298,11.04536101718726,11.5,31.0,44.0,32.38826948140329,{}
454,454,9.0,82.29823813423954,9.055385138137416,15.132745950421556,20.09975124224178,22.09072203437452,18.24828759089466,51.35172830587107,36.22154055254967,31.5,32.0,25.0,10.5,22.5,6.5,3.5,11.04536101718726,10.198039027185567,10.5,31.0,43.0,31.400636936215164,{}
455,455,8.06225774829855,82.38931969618392,9.055385138137416,16.0312195418814,21.095023109728988,22.20360331117452,18.24828759089466,51.35172830587107,35.35533905932738,31.0,32.0,24.0,10.0,23.0,7.0,3.0,5.0990195135927845,6.082762530298219,5.5,23.0,37.0,30.59411708155671,{}
456,456,7.0,81.39410298049853,9.055385138137416,15.132745950421556,21.095023109728988,22.20360331117452,18.24828759089466,49.36598018878993,34.23448553724738,30.5,32.0,24.0,10.0,21.0,6.0,3.0,5.0990195135927845,5.0,4.5,25.0,36.0,27.459060435491963,{}
457,457,6.0,79.40403012442127,9.055385138137416,14.142135623730953,20.09975124224178,22.20360331117452,18.24828759089466,47.38143096192854,33.24154027718932,30.0,31.0,23.0,9.0,20.0,6.0,2.0,5.0990195135927845,5.0990195135927845,5.0,25.0,36.0,28.442925306655784,{}
458,458,3.1622776601683795,79.40403012442127,9.0,14.0356688476182,21.095023109728988,21.095023109728988,19.235384061671343,45.27692569068709,31.25699921617557,29.5,30.0,22.0,7.0,19.0,4.0,0.0,5.385164807134504,5.0,4.5,23.0,35.0,28.442925306655784,{}
459,459,2.0,79.40403012442127,10.04987562112089,14.0356688476182,20.223748416156685,21.095023109728988,19.4164878389476,45.39823785126467,31.400636936215164,30.0,31.0,23.0,8.0,18.0,3.0,1.0,4.47213595499958,5.0990195135927845,4.5,25.0,39.0,32.7566787083184,{}
460,460,1.0,78.31347265956222,10.04987562112089,15.132745950421556,20.223748416156685,21.095023109728988,19.235384061671343,45.39823785126467,30.26549190084312,29.5,30.0,23.0,7.5,18.5,3.5,0.5,6.082762530298219,5.0990195135927845,5.5,26.0,39.0,34.52535300326414,{}
461,461,2.23606797749979,77.41446893184762,10.0,15.033296378372908,19.1049731745428,21.095023109728988,20.39607805437113,47.38143096192854,32.38826948140329,31.0,32.0,24.0,8.0,19.0,4.0,1.0,7.280109889280518,6.082762530298219,6.0,31.0,42.0,34.36568055487916,{}
462,462,4.0,77.41446893184762,10.04987562112089,15.033296378372908,20.223748416156685,21.213203435596427,19.235384061671343,48.25971404805462,33.24154027718932,31.0,33.0,25.0,10.0,19.0,4.0,3.0,8.246211251235321,7.071067811865476,7.0,32.0,44.0,33.24154027718932,{}
463,463,5.0,80.30566605165541,9.0,15.033296378372908,20.09975124224178,21.213203435596427,20.223748416156685,49.16299421312742,34.132096331752024,31.5,33.0,26.0,9.5,19.5,4.5,2.5,8.06225774829855,8.06225774829855,8.0,31.0,43.0,32.2490309931942,{}
464,464,3.0,81.2219182240853,10.04987562112089,15.033296378372908,20.09975124224178,21.095023109728988,20.09975124224178,48.16637831516918,33.13608305156178,31.5,32.0,26.0,9.0,19.0,3.0,1.0,10.04987562112089,8.06225774829855,8.5,32.0,43.0,31.25699921617557,{}
465,465,1.4142135623730951,82.15229759416349,10.0,14.0356688476182,21.095023109728988,22.09072203437452,20.223748416156685,45.27692569068709,31.25699921617557,30.5,30.0,25.0,7.5,17.5,2.5,0.5,10.04987562112089,9.219544457292889,9.5,31.0,42.0,32.2490309931942,{}
466,466,1.0,83.21658488546619,11.04536101718726,14.0356688476182,21.02379604162864,22.09072203437452,19.235384061671343,45.27692569068709,31.25699921617557,30.5,30.0,24.0,8.0,18.0,3.0,1.0,10.04987562112089,9.055385138137416,9.0,30.0,42.0,33.24154027718932,{}
467,467,0.0,82.21921916437786,11.04536101718726,15.132745950421556,20.024984394500787,22.09072203437452,19.235384061671343,45.39823785126467,30.26549190084312,30.0,30.0,24.0,8.0,18.0,2.0,1.0,11.04536101718726,10.198039027185567,10.0,31.0,42.0,33.24154027718932,{}
468,468,1.0,82.21921916437786,11.04536101718726,14.142135623730953,20.024984394500787,21.095023109728988,19.235384061671343,45.39823785126467,31.25699921617557,30.5,30.0,24.0,8.0,18.0,3.0,1.0,11.04536101718726,10.198039027185567,10.0,31.0,42.0,32.38826948140329,{}
469,469,1.0,83.15046602394962,11.0,15.033296378372908,19.1049731745428,21.095023109728988,19.235384061671343,45.27692569068709,30.26549190084312,30.0,30.0,25.0,8.5,17.5,2.5,0.5,11.04536101718726,10.198039027185567,10.5,30.0,43.0,32.2490309931942,{}
470,470,1.0,81.2219182240853,11.04536101718726,15.033296378372908,20.09975124224178,21.095023109728988,19.235384061671343,46.2709412050371,31.25699921617557,30.5,31.0,25.0,9.0,18.0,2.0,0.0,11.04536101718726,10.198039027185567,10.5,30.0,42.0,31.25699921617557,{}
471,471,1.0,83.21658488546619,11.04536101718726,15.033296378372908,20.09975124224178,22.09072203437452,18.24828759089466,45.27692569068709,30.26549190084312,29.5,30.0,24.0,9.0,18.0,2.0,0.0,11.04536101718726,11.180339887498947,11.0,31.0,43.0,33.24154027718932,{}
472,472,0.0,81.2219182240853,11.04536101718726,16.0312195418814,20.09975124224178,21.095023109728988,18.24828759089466,45.27692569068709,29.27456233660889,29.0,31.0,25.0,10.0,17.0,1.0,1.0,11.04536101718726,11.180339887498947,11.0,31.0,43.0,30.26549190084312,{}
473,473,1.0,82.21921916437786,12.041594578792296,16.0312195418814,20.09975124224178,21.095023109728988,18.24828759089466,45.27692569068709,29.27456233660889,29.5,31.0,25.0,10.0,17.0,1.0,1.0,11.04536101718726,11.180339887498947,11.0,31.0,43.0,32.2490309931942,{}
474,474,0.0,83.21658488546619,11.04536101718726,16.0312195418814,20.09975124224178,21.095023109728988,18.24828759089466,45.27692569068709,29.27456233660889,29.0,30.0,24.0,9.0,18.0,2.0,0.0,11.04536101718726,11.180339887498947,11.0,31.0,43.0,31.25699921617557,{}
475,475,0.0,83.15046602394962,11.04536101718726,16.0312195418814,20.024984394500787,21.095023109728988,18.110770276274835,45.17742799230607,29.154759474226505,29.0,30.0,25.0,9.5,17.5,0.5,0.5,12.041594578792296,11.180339887498947,11.0,31.0,43.0,31.400636936215164,{}
476,476,0.0,83.15046602394962,11.04536101718726,17.029386365926403,20.09975124224178,21.095023109728988,18.24828759089466,46.2709412050371,29.27456233660889,29.0,30.0,25.0,9.5,18.5,1.5,0.5,12.041594578792296,11.180339887498947,11.0,31.0,43.0,30.4138126514911,{}
477,477,1.0,82.15229759416349,11.04536101718726,16.0312195418814,20.09975124224178,22.09072203437452,18.24828759089466,46.2709412050371,30.26549190084312,29.5,30.0,25.0,9.5,18.5,1.5,0.5,12.041594578792296,11.180339887498947,11.0,31.0,42.0,31.25699921617557,{}
478,478,0.0,81.30190649671138,12.041594578792296,16.0312195418814,20.024984394500787,21.095023109728988,18.24828759089466,46.2709412050371,30.26549190084312,30.0,32.0,25.0,10.5,17.5,0.5,0.5,12.041594578792296,11.180339887498947,11.5,30.0,42.0,31.400636936215164,{}
479,479,0.0,83.21658488546619,12.041594578792296,17.029386365926403,20.09975124224178,22.09072203437452,17.11724276862369,46.17358552246078,29.154759474226505,29.0,30.0,24.0,10.0,19.0,1.0,0.0,11.04536101718726,11.180339887498947,11.0,31.0,42.0,31.25699921617557,{}
480,480,1.0,81.2219182240853,12.041594578792296,17.029386365926403,20.09975124224178,22.09072203437452,17.26267650163207,47.265209192385896,30.26549190084312,29.5,31.0,25.0,11.0,19.0,2.0,1.0,12.041594578792296,11.180339887498947,11.5,31.0,42.0,32.2490309931942,{}
481,481,1.0,84.2140130857092,12.0,17.029386365926403,20.09975124224178,21.095023109728988,19.1049731745428,48.16637831516918,31.14482300479488,31.0,32.0,26.0,10.0,19.0,2.0,1.0,12.041594578792296,11.180339887498947,12.0,30.0,42.0,31.25699921617557,{}
482,482,6.0,81.39410298049853,11.04536101718726,17.029386365926403,20.09975124224178,22.09072203437452,18.110770276274835,52.15361924162119,35.12833614050059,32.0,34.0,26.0,12.0,22.0,5.0,3.0,12.0,11.180339887498947,11.5,31.0,43.0,32.2490309931942,{}
483,483,11.0,80.30566605165541,10.04987562112089,18.027756377319943,21.095023109728988,24.08318915758459,18.24828759089466,57.21887800367987,39.20459156782532,33.5,35.0,28.0,13.5,25.5,7.5,5.5,10.04987562112089,9.055385138137416,9.5,30.0,42.0,30.14962686336267,{}
484,484,14.0356688476182,83.2946576918352,11.0,18.027756377319943,22.09072203437452,25.079872407968907,17.46424919657298,60.29925372672534,42.2965719651132,35.0,36.0,29.0,15.5,27.5,8.5,6.5,4.47213595499958,4.0,4.0,31.0,41.0,31.400636936215164,{}
485,485,19.026297590440446,86.20904824900923,10.0,18.027756377319943,23.08679276123039,25.079872407968907,17.46424919657298,64.28063471995279,46.2709412050371,36.5,36.0,30.0,16.0,31.0,12.0,7.0,4.47213595499958,5.0,5.0,30.0,41.0,29.27456233660889,{}
486,486,23.021728866442675,87.14355971613737,10.0,18.027756377319943,23.08679276123039,26.019223662515376,18.43908891458577,69.26037828369117,51.24451190127583,39.5,39.0,34.0,18.5,32.5,13.5,9.5,4.123105625617661,4.0,3.5,32.0,41.0,32.2490309931942,{}
487,487,29.017236257093817,88.09086218218096,10.04987562112089,17.0,23.08679276123039,26.0768096208106,17.26267650163207,73.17103251970687,56.22277118748239,41.5,39.0,35.0,20.0,36.0,17.0,11.0,4.123105625617661,4.0,3.5,32.0,42.0,31.14482300479488,{}
488,488,30.0,88.09086218218096,11.04536101718726,18.027756377319943,23.021728866442675,26.019223662515376,17.26267650163207,76.16429609731846,58.137767414994535,43.0,41.0,37.0,22.0,37.0,18.0,12.0,3.605551275463989,3.1622776601683795,3.0,35.0,42.0,34.058772731852805,{}
489,489,25.0,89.05054744357274,11.04536101718726,19.0,23.021728866442675,26.019223662515376,18.24828759089466,73.10950690573696,54.147945482723536,41.5,40.0,37.0,20.5,34.5,14.5,10.5,4.123105625617661,4.123105625617661,4.0,35.0,40.0,33.06055050963308,{}
490,490,17.0,87.02298546935747,10.0,17.0,22.02271554554524,24.020824298928627,20.09975124224178,64.03124237432849,47.042533945356304,38.5,39.0,37.0,18.0,26.0,8.0,9.0,5.0990195135927845,4.123105625617661,4.0,34.0,37.0,32.0624390837628,{}
491,491,9.0,86.00581375697809,11.0,17.0,22.02271554554524,24.0,19.1049731745428,56.0357029044876,39.05124837953327,34.5,35.0,34.0,15.5,21.5,4.5,5.5,7.071067811865476,6.082762530298219,6.5,34.0,36.0,32.01562118716424,{}
492,492,7.0,85.0,10.0,15.0,22.0,23.0,20.024984394500787,52.009614495783374,37.01351104664349,33.5,32.0,32.0,12.0,20.0,4.0,3.0,7.0,6.082762530298219,6.5,36.0,38.0,31.016124838541646,{}
493,493,6.082762530298219,84.0,10.0,14.0,21.0,22.0,19.026297590440446,49.0,35.0,32.0,31.0,31.0,12.0,18.0,2.0,3.0,7.0,7.071067811865476,7.0,35.0,35.0,33.0,{}
494,494,6.082762530298219,82.02438661763951,11.0,14.0,20.0,22.02271554554524,19.026297590440446,50.0,36.0,33.0,31.0,33.0,13.0,18.0,2.0,3.0,8.0,7.071067811865476,8.0,37.0,36.0,33.0,{}
495,495,8.06225774829855,82.05485969764375,10.0,14.0,21.02379604162864,22.02271554554524,19.026297590440446,51.0,37.0,33.0,30.0,33.0,12.5,19.5,3.5,2.5,9.0,8.06225774829855,8.5,37.0,35.0,32.0,{}
496,496,7.071067811865476,80.02499609497022,10.0,14.0356688476182,21.02379604162864,21.02379604162864,19.026297590440446,50.00999900019995,36.0,32.5,31.0,33.0,13.0,18.0,2.0,3.0,8.0,8.06225774829855,8.5,37.0,35.0,32.0,{}
497,497,6.0,79.05694150420949,11.0,15.033296378372908,20.0,22.02271554554524,19.026297590440446,51.0,36.013886210738214,33.0,31.0,34.0,13.5,18.5,2.5,3.5,9.0,8.06225774829855,8.5,37.0,35.0,32.01562118716424,{}
498,498,6.0,78.02563681252464,11.04536101718726,14.0356688476182,20.0,21.02379604162864,19.1049731745428,50.0,36.013886210738214,33.0,32.0,34.0,14.0,17.0,1.0,4.0,9.0,9.055385138137416,9.5,37.0,35.0,32.01562118716424,{}
