,frame_seq,m1,m3,m4,m5,m6,m7,m8,m9,m10,m11,m12,m13,m14,m15,m16,m17,e1,e2,e3,b1,b2,b3
0,0,16.0,120.00416659433121,11.045361017187261,28.0178514522438,32.0,36.013886210738214,37.013511046643494,92.04890004774636,64.03124237432849,56.0,45.0,44.0,7.5,47.5,16.5,1.5,17.029386365926403,17.029386365926403,17.0,59.0,58.0,63.00793600809346
1,1,23.08679276123039,121.01652779682617,11.0,27.018512172212592,33.0,37.0,38.05259518088089,99.12618221237011,72.11102550927978,60.5,49.0,47.0,10.0,51.0,20.0,1.0,16.0,16.0312195418814,16.0,58.0,57.0,67.0
2,2,26.019223662515376,123.01625908797584,12.0,28.0178514522438,32.0,36.0,37.05401462729781,103.07764064044152,75.05997601918082,62.0,49.0,47.0,11.0,55.0,23.0,1.0,18.027756377319946,17.029386365926403,17.5,59.0,59.0,66.007575322837
3,3,27.018512172212592,121.00413216084813,12.041594578792296,27.018512172212592,33.0,36.013886210738214,38.01315561749642,104.0768946500615,77.05841939723393,63.5,49.0,48.0,10.5,55.5,24.5,0.5,17.029386365926403,16.0312195418814,16.5,59.0,56.0,61.07372593840988
4,4,27.018512172212592,121.00413216084813,12.041594578792296,28.0178514522438,33.015148038438355,37.0,37.013511046643494,104.0768946500615,76.05918747922567,62.5,49.0,48.0,11.5,55.5,24.5,0.5,17.029386365926403,16.0312195418814,16.0,59.0,57.0,66.03029607687671
5,5,29.017236257093817,122.01639234135715,12.041594578792296,27.018512172212592,34.0,38.0,38.01315561749642,106.07544484940895,79.05694150420949,64.5,51.0,49.0,12.0,56.0,25.0,2.0,17.029386365926403,17.029386365926403,17.0,58.0,55.0,63.0317380372777
6,6,31.064449134018133,122.01639234135715,12.0,28.0,33.0,37.0,38.01315561749642,109.04127658827184,81.05553651663777,65.5,52.0,50.0,13.0,58.0,27.0,3.0,16.0312195418814,15.0,15.0,59.0,57.0,64.00781202322104
7,7,36.013886210738214,122.01639234135715,12.041594578792296,27.018512172212592,35.0,38.01315561749642,39.0,114.03946685248927,87.02298546935747,69.0,55.0,53.0,15.0,60.0,30.0,5.0,16.0312195418814,16.0,16.5,59.0,56.0,65.00769185258002
8,8,29.017236257093817,121.00413216084813,12.041594578792296,28.0178514522438,34.0,38.0,38.01315561749642,107.07474025184464,79.05694150420949,64.5,53.0,52.0,14.5,54.5,23.5,4.5,16.0312195418814,15.0,15.5,58.0,57.0,66.007575322837
9,9,24.020824298928627,122.01639234135715,11.045361017187261,25.0,33.015148038438355,36.0,37.013511046643494,97.04638066409278,72.06247289678588,60.0,51.0,49.0,13.0,47.0,20.0,3.0,15.033296378372908,16.0,16.0,58.0,57.0,66.007575322837
10,10,20.024984394500787,119.01680553602503,12.0,27.0,32.01562118716424,35.014282800023196,36.013886210738214,95.02105029939419,68.0294054067798,58.0,53.0,51.0,16.0,43.0,13.0,5.0,15.0,15.0,15.5,59.0,57.0,66.03029607687671
11,11,25.019992006393608,114.10959644131601,11.045361017187261,23.021728866442675,31.0,33.015148038438355,37.013511046643494,96.08329719571451,73.06161783043132,60.5,56.0,51.0,16.5,42.5,16.5,7.5,16.0312195418814,16.0312195418814,16.0,61.0,59.0,65.00769185258002
12,12,18.110770276274835,112.16059914247963,10.0,23.021728866442675,30.01666203960727,33.06055050963308,39.11521443121589,90.19977827023745,67.1863081289633,58.0,57.0,51.0,15.0,36.0,11.0,7.0,17.029386365926403,15.0,16.0,61.0,59.0,63.0317380372777
13,13,15.033296378372908,110.16351483136329,12.0,25.019992006393608,31.0,33.06055050963308,36.05551275463989,88.09086218218096,63.071388124885914,55.5,56.0,50.0,17.0,35.0,9.0,6.0,17.029386365926403,16.0312195418814,15.5,61.0,58.0,64.03124237432849
14,14,16.0312195418814,107.11675872616759,13.0,29.0,31.0,33.06055050963308,35.05709628591621,93.04837451562494,64.07027391856539,56.0,57.0,52.0,19.5,38.5,7.5,7.5,17.029386365926403,16.0,16.0,60.0,59.0,61.00819617067857
15,15,11.045361017187261,100.17983829094555,15.033296378372908,30.01666203960727,28.0178514522438,30.066592756745816,37.013511046643494,93.08598175880189,63.071388124885914,57.5,59.0,53.0,19.0,37.0,6.0,6.0,16.0312195418814,15.033296378372908,15.5,60.0,58.0,63.00793600809346
16,16,9.055385138137417,98.18350166906862,15.033296378372908,28.0,27.018512172212592,29.154759474226502,41.012193308819754,93.04837451562494,65.06919393998976,60.5,62.0,56.0,18.0,34.0,5.0,5.0,17.029386365926403,17.0,16.5,62.0,59.0,62.03224967708329
17,17,17.029386365926403,100.07996802557443,16.0312195418814,31.0,28.0,31.0,39.0,103.01941564578979,72.02777242147643,63.5,64.0,60.0,23.0,41.0,8.0,8.0,17.029386365926403,16.0,16.0,63.0,60.0,61.032778078668514
18,18,14.035668847618199,104.01922899156675,16.0,29.017236257093817,29.0,32.0,41.0,100.0199980003999,71.00704190430693,64.0,62.0,60.0,20.0,39.0,8.0,5.0,16.0312195418814,16.0312195418814,16.0,62.0,58.0,65.03076195155643
19,19,3.1622776601683795,105.00476179678711,14.0,20.0,27.018512172212592,28.0,47.01063709417264,84.0,64.0,62.5,57.0,58.0,10.5,26.5,4.5,1.5,17.11724276862369,16.0,16.0,62.0,54.0,64.07027391856539
20,20,4.0,109.01834707974616,15.0,24.0,28.0,30.01666203960727,47.042533945356304,90.0222194794152,66.03029607687671,64.0,59.0,61.0,13.0,30.0,4.0,1.0,17.11724276862369,16.0,16.5,62.0,53.0,66.12110101926616
21,21,20.024984394500787,115.15641536623133,15.033296378372908,26.019223662515376,32.0624390837628,35.05709628591621,38.01315561749642,99.02019995940222,73.00684899377592,63.0,55.0,61.0,20.0,41.0,13.0,5.0,16.1245154965971,15.033296378372908,15.0,63.0,51.0,64.1248781675256
22,22,24.0,117.27318534089538,13.0,24.020824298928627,33.13608305156178,36.22154055254967,37.05401462729781,98.04590761474952,74.02702209328699,62.0,51.0,59.0,18.0,43.0,15.0,4.0,15.132745950421556,15.033296378372908,15.0,62.0,47.0,63.198101237299845
23,23,24.0,120.41594578792295,12.041594578792296,24.08318915758459,34.132096331752024,37.21558813185679,38.118237105091836,98.18350166906862,74.10802925459562,62.0,49.0,59.0,16.0,44.0,16.0,4.0,15.297058540778355,16.0312195418814,15.5,66.0,47.0,65.27633568147036
24,24,27.018512172212592,121.69634341261039,13.038404810405298,26.076809620810597,34.132096331752024,37.21558813185679,39.11521443121589,105.23307464861035,79.1580697086532,65.5,49.0,62.0,16.5,49.5,19.5,3.5,15.132745950421556,15.132745950421556,15.0,67.0,46.0,64.4980619863884
25,25,36.05551275463989,120.93386622447825,14.035668847618199,28.071337695236398,33.24154027718932,38.3275357934736,40.19950248448356,118.3427226321923,90.27181176868004,72.0,52.0,67.0,19.5,58.5,25.5,5.5,15.297058540778355,16.1245154965971,16.0,68.0,45.0,67.36467917239716
26,26,42.04759208325728,119.5198728245642,13.152946437965905,29.154759474226502,34.36568055487916,40.44749683231337,39.20459156782532,123.4908903522847,94.33981132056604,73.0,51.0,70.0,21.5,62.5,27.5,7.5,15.297058540778355,15.297058540778355,15.5,70.0,43.0,68.73136110975832
27,27,37.013511046643494,116.40017182117903,12.165525060596439,29.274562336608895,35.510561809129406,39.6232255123179,35.35533905932738,113.63538181394033,84.38009243891595,65.5,50.0,68.0,24.0,54.0,19.0,10.0,15.524174696260024,15.297058540778355,15.0,70.0,43.0,65.62011886609167
28,28,21.095023109728988,111.80339887498948,13.038404810405298,29.154759474226502,33.54101966249684,36.87817782917155,33.37663853655727,96.62815324738438,67.47592163134935,56.5,45.0,65.0,22.0,41.0,7.0,7.0,15.524174696260024,16.1245154965971,16.0,70.0,44.0,66.75327707311455
29,29,9.0,110.8873302050329,14.035668847618199,27.073972741361768,31.400636936215164,33.37663853655727,36.345563690772494,86.37129152675674,59.30430001273095,54.5,47.0,61.0,18.0,32.0,1.0,3.0,16.278820596099706,16.1245154965971,15.5,70.0,45.0,64.77653896280658
30,30,1.0,112.64102272262978,14.035668847618199,23.08679276123039,29.154759474226502,31.144823004794873,40.311288741492746,78.40918313565064,55.326304774492215,54.5,46.0,58.0,12.0,26.0,1.0,1.0,15.297058540778355,15.132745950421556,15.5,70.0,45.0,62.96824596572466
31,31,6.0,112.53888216967503,15.033296378372908,25.019992006393608,30.066592756745816,32.14031735997639,41.30375285612676,87.28115489611719,62.289646009589745,59.0,49.0,60.0,13.5,32.5,3.5,0.5,16.492422502470642,15.132745950421556,15.5,64.0,37.0,59.53990258641679
32,32,11.0,108.46197490364999,16.0312195418814,29.068883707497267,29.154759474226502,33.24154027718932,40.19950248448356,96.25487000666512,67.1863081289633,61.5,53.0,63.0,18.0,38.0,6.0,2.0,16.278820596099706,16.1245154965971,16.0,70.0,48.0,61.5223536610881
33,33,10.0,102.39628899525607,15.033296378372908,27.073972741361768,28.071337695236398,31.144823004794873,43.289721643826724,95.33624704172071,68.26419266350405,63.0,54.0,63.0,15.5,36.5,6.5,0.5,16.492422502470642,16.1245154965971,16.0,71.0,48.0,60.8276253029822
34,34,6.0,102.3132444994293,15.033296378372908,26.076809620810597,28.071337695236398,30.14962686336267,46.2709412050371,93.34345183246653,67.26812023536856,64.0,56.0,64.0,14.0,33.0,3.0,1.0,17.46424919657298,16.1245154965971,16.0,70.0,47.0,61.5223536610881
35,35,16.0312195418814,103.58571330062848,16.0312195418814,29.154759474226502,29.068883707497267,31.25699921617557,42.2965719651132,103.31021246711285,74.16872656315464,66.0,56.0,67.0,19.5,41.5,8.5,3.5,17.46424919657298,17.11724276862369,17.0,70.0,49.0,63.50590523722971
36,36,16.0,106.7941945987702,15.033296378372908,31.064449134018133,30.265491900843113,34.36568055487916,38.2099463490856,100.24470060806208,69.18092222571191,61.0,53.0,66.0,21.5,40.5,5.5,5.5,17.26267650163207,17.029386365926403,17.5,70.0,49.0,60.67124524847005
37,37,16.0,107.56393447619885,14.035668847618199,28.071337695236398,31.144823004794873,33.24154027718932,37.21558813185679,95.25754563287887,67.1863081289633,59.0,52.0,63.0,20.5,37.5,5.5,6.5,17.11724276862369,17.11724276862369,16.5,68.0,49.0,61.5223536610881
38,38,15.0,103.58571330062848,14.035668847618199,29.017236257093817,29.154759474226502,32.14031735997639,37.33630940518894,95.25754563287887,66.27216610312357,58.5,52.0,63.0,20.5,37.5,4.5,6.5,17.26267650163207,17.11724276862369,17.0,69.0,51.0,63.387695966961914
39,39,16.0312195418814,97.51410154434076,15.0,32.0624390837628,27.16615541441225,30.14962686336267,39.319206502675,102.17631819555841,70.11419257183242,62.0,57.0,67.0,23.0,40.0,4.0,8.0,18.24828759089466,17.11724276862369,17.0,70.0,52.0,62.39390995922599
40,40,24.020824298928627,97.62171889492625,15.033296378372908,31.064449134018133,27.16615541441225,31.25699921617557,40.19950248448356,110.16351483136329,79.1012010022604,67.0,60.0,71.0,25.5,44.5,9.5,9.5,18.24828759089466,19.026297590440446,18.5,72.0,54.0,64.28063471995279
41,41,29.0,98.6154146165801,15.0,31.016124838541646,28.160255680657446,32.2490309931942,37.21558813185679,112.11155159036913,81.09870529176159,66.5,59.0,70.0,27.5,47.5,12.5,11.5,20.09975124224178,19.026297590440446,19.0,73.0,56.0,65.19202405202648
42,42,28.0178514522438,104.6900186264192,15.033296378372908,29.068883707497267,31.25699921617557,34.36568055487916,35.22782990761707,107.16809226630845,78.10249675906654,64.0,55.0,67.0,26.0,46.0,12.0,10.0,20.223748416156685,19.026297590440446,19.5,72.0,56.0,65.37583651472461
43,43,23.0,106.47065323364932,15.033296378372908,30.01666203960727,31.144823004794873,34.23448553724738,36.124783736376884,104.12012293500234,74.10802925459562,62.5,56.0,66.0,25.0,43.0,9.0,10.0,20.09975124224178,19.026297590440446,19.0,73.0,59.0,66.18912297349165
44,44,3.1622776601683795,107.11675872616759,15.0,23.021728866442675,28.0178514522438,30.066592756745816,45.17742799230607,86.09297300012354,63.071388124885914,61.5,56.0,61.0,13.5,27.5,1.5,0.5,21.213203435596427,20.09975124224178,20.0,67.0,59.0,59.033888572581766
45,45,3.1622776601683795,105.11898020814318,14.035668847618199,23.0,29.017236257093817,30.066592756745816,47.16990566028302,87.09190547921202,64.1248781675256,62.5,57.0,62.0,12.5,27.5,1.5,0.5,20.223748416156685,20.024984394500787,20.0,66.0,57.0,57.07889277132134
46,46,7.0710678118654755,108.16653826391968,15.033296378372908,26.019223662515376,28.0,30.01666203960727,44.28317965096906,92.0869154657707,66.06814663663572,62.5,57.0,63.0,16.0,32.0,3.0,3.0,21.213203435596427,20.024984394500787,20.5,63.0,53.0,55.08175741568164
47,47,11.045361017187261,109.1146186356347,15.0,30.0,30.01666203960727,33.015148038438355,41.10960958218893,97.02061636580135,67.02984409947557,61.5,58.0,63.0,19.5,36.5,3.5,4.5,21.095023109728988,20.024984394500787,20.0,63.0,58.0,60.03332407921454
48,48,14.035668847618199,108.11567878897121,16.0,32.01562118716424,31.016124838541646,34.132096331752024,39.05124837953327,101.01980003939822,69.00724599634447,62.0,60.0,65.0,23.5,38.5,3.5,8.5,20.09975124224178,19.026297590440446,19.0,62.0,60.0,58.008620049092706
49,49,17.0,109.1146186356347,16.0,32.0,32.01562118716424,36.05551275463989,38.01315561749642,103.00485425454472,71.00704190430693,62.5,59.0,64.0,23.5,41.5,6.5,8.5,20.024984394500787,19.0,19.0,59.0,58.0,62.0
50,50,12.041594578792296,114.0175425099138,16.0,30.0,31.016124838541646,34.0147027033899,39.01281840626232,97.0,67.0,61.0,58.0,60.0,20.0,38.0,6.0,5.0,21.02379604162864,19.026297590440446,19.5,61.0,62.0,60.00833275470999
51,51,5.0990195135927845,116.00431026474836,15.033296378372908,24.0,31.016124838541646,33.0,40.049968789001575,84.0,60.0,57.5,54.0,55.0,14.5,29.5,3.5,0.5,20.09975124224178,19.026297590440446,19.5,60.0,62.0,56.0357029044876
52,52,10.04987562112089,116.00431026474836,15.033296378372908,26.019223662515376,32.0,34.0,39.01281840626232,90.0222194794152,64.00781202322104,59.0,56.0,55.0,16.5,34.5,5.5,2.5,21.02379604162864,20.024984394500787,20.0,60.0,61.0,59.0
53,53,15.033296378372908,118.0,15.033296378372908,27.018512172212592,32.0,35.0,38.0,95.04735661763561,68.0294054067798,60.5,55.0,55.0,17.0,40.0,11.0,4.0,21.02379604162864,21.02379604162864,21.0,61.0,64.0,61.00819617067857
54,54,17.029386365926403,117.00427342623003,15.033296378372908,29.017236257093817,32.0,36.013886210738214,39.0,100.04498987955368,71.02816342831905,62.5,57.0,56.0,17.5,43.5,11.5,4.5,20.0,19.026297590440446,19.5,59.0,64.0,62.03224967708329
55,55,17.11724276862369,119.06720791217035,14.035668847618199,28.0178514522438,32.0,35.0,38.01315561749642,97.12878049270464,69.1158447825099,60.5,56.0,52.0,16.0,43.0,12.0,3.0,20.024984394500787,19.026297590440446,19.5,62.0,65.0,63.00793600809346
56,56,15.132745950421556,121.10326172320876,13.038404810405298,27.018512172212592,32.01562118716424,34.0,39.01281840626232,94.13288479590966,67.11929677819934,59.5,54.0,49.0,12.5,42.5,12.5,1.5,19.026297590440446,18.027756377319946,18.5,60.0,65.0,63.00793600809346
57,57,13.038404810405298,122.14745187681976,13.038404810405298,27.018512172212592,32.01562118716424,35.0,39.05124837953327,92.13576938409967,65.12296062065974,58.5,54.0,48.0,12.0,41.0,12.0,1.0,20.024984394500787,19.026297590440446,19.0,61.0,66.0,65.03076195155643
58,58,12.041594578792296,121.26417442921878,13.038404810405298,27.018512172212592,32.01562118716424,35.05709628591621,40.11234224026316,92.19544457292888,65.19202405202648,59.0,54.0,46.0,10.0,42.0,14.0,0.0,19.0,17.029386365926403,18.0,57.0,64.0,61.032778078668514
59,59,16.1245154965971,122.40914998479485,12.041594578792296,26.076809620810597,33.06055050963308,35.05709628591621,39.05124837953327,93.26306878931231,67.1863081289633,59.0,55.0,45.0,11.0,43.0,16.0,2.0,20.0,18.027756377319946,18.0,56.0,66.0,61.07372593840988
60,60,19.026297590440446,119.70797801316336,12.041594578792296,27.073972741361768,33.13608305156178,36.124783736376884,40.11234224026316,98.2496819333274,71.17583859709698,61.5,60.0,47.0,13.5,44.5,15.5,5.5,19.0,19.026297590440446,18.5,58.0,67.0,62.07253821135398
61,61,22.02271554554524,114.85643212288984,13.038404810405298,30.066592756745816,30.14962686336267,34.23448553724738,41.19465984809196,106.30145812734649,76.23647421018367,65.0,66.0,52.0,18.0,47.0,16.0,8.0,20.0,19.1049731745428,19.0,59.0,68.0,63.12685640834652
62,62,25.019992006393608,111.5437134042076,13.038404810405298,32.0624390837628,30.066592756745816,34.132096331752024,41.19465984809196,111.28791488746656,79.22752047110903,66.5,67.0,56.0,20.5,49.5,16.5,9.5,21.0,19.235384061671343,19.5,57.0,66.0,63.0317380372777
63,63,15.132745950421556,110.45361017187261,11.045361017187261,24.08318915758459,28.160255680657446,30.14962686336267,44.10215414239989,94.33981132056604,70.25667228100119,62.5,62.0,52.0,13.0,37.0,12.0,5.0,20.0,19.1049731745428,19.5,58.0,66.0,59.033888572581766
64,64,2.8284271247461903,115.27792503337315,11.0,20.024984394500787,28.071337695236398,29.274562336608895,47.042533945356304,80.15609770940699,60.13318551349163,59.0,59.0,51.0,8.0,25.0,4.0,0.0,20.024984394500787,19.1049731745428,19.0,61.0,66.0,61.00819617067857
65,65,4.123105625617661,118.27087553578015,12.041594578792296,22.090722034374522,29.017236257093817,31.144823004794873,44.01136216933077,82.15229759416349,60.07495318350236,58.0,57.0,49.0,9.0,29.0,6.0,1.0,20.024984394500787,20.09975124224178,20.0,64.0,65.0,62.0
66,66,10.04987562112089,114.21471008587291,13.038404810405298,25.079872407968907,29.068883707497267,32.0624390837628,43.0,91.08786966440702,66.03029607687671,61.0,59.0,52.0,12.5,35.5,9.5,2.5,21.02379604162864,20.09975124224178,20.0,60.0,68.0,62.00806399170998
67,67,14.035668847618199,108.2266141020775,12.041594578792296,26.019223662515376,31.064449134018133,34.132096331752024,43.01162633521314,95.08417323613851,69.06518659932803,62.0,60.0,53.0,13.5,38.5,10.5,4.5,20.024984394500787,19.1049731745428,19.5,66.0,68.0,71.0
68,68,9.219544457292887,105.38500842150178,13.038404810405298,29.017236257093817,29.068883707497267,32.14031735997639,42.0,93.08598175880189,64.07027391856539,59.5,59.0,50.0,12.5,38.5,8.5,2.5,21.02379604162864,20.09975124224178,20.0,65.0,67.0,68.0
69,69,6.324555320336759,101.40019723846694,13.038404810405298,28.071337695236398,28.160255680657446,30.265491900843113,44.0,91.13725912051558,63.071388124885914,60.0,59.0,50.0,10.5,36.5,7.5,1.5,20.024984394500787,19.1049731745428,19.0,66.0,67.0,65.0
70,70,5.830951894845301,100.40418317978589,14.035668847618199,27.018512172212592,26.076809620810597,29.154759474226502,43.0,89.1403387922662,62.12889826803627,59.5,58.0,49.0,10.5,35.5,6.5,0.5,20.09975124224178,20.024984394500787,20.0,66.0,67.0,64.03124237432849
71,71,5.385164807134504,106.23088063270491,15.033296378372908,28.071337695236398,28.071337695236398,31.144823004794873,42.0,90.13878188659973,62.07253821135398,59.5,57.0,50.0,11.5,36.5,7.5,0.5,22.02271554554524,21.02379604162864,20.5,66.0,66.0,65.00769185258002
72,72,10.04987562112089,107.0420478129973,15.033296378372908,32.01562118716424,30.0,34.0147027033899,41.012193308819754,98.02040603874276,66.007575322837,61.0,56.0,53.0,13.5,43.5,9.5,0.5,20.024984394500787,20.09975124224178,20.0,66.0,65.0,64.0
73,73,18.027756377319946,107.01868995647442,14.035668847618199,33.015148038438355,30.0,33.015148038438355,40.01249804748511,105.01904589168576,72.00694410957877,63.0,57.0,55.0,16.0,49.0,13.0,4.0,21.02379604162864,20.024984394500787,20.0,67.0,67.0,60.0
74,74,20.024984394500787,108.00462953040486,12.0,31.016124838541646,30.0,34.0147027033899,38.01315561749642,101.00495037373169,70.0,60.0,54.0,53.0,15.5,47.5,14.5,4.5,22.02271554554524,21.095023109728988,21.0,66.0,66.0,61.00819617067857
75,75,19.026297590440446,106.01886624558857,11.0,32.0,31.016124838541646,34.0,37.013511046643494,99.0,67.0,57.5,53.0,51.0,15.0,47.0,13.0,5.0,21.095023109728988,21.095023109728988,21.0,64.0,65.0,61.0
76,76,17.0,106.01886624558857,12.041594578792296,34.0147027033899,30.0,34.0147027033899,37.0,100.0199980003999,66.007575322837,57.5,55.0,53.0,17.0,46.0,10.0,6.0,22.02271554554524,22.090722034374522,22.0,64.0,65.0,63.0
77,77,6.324555320336759,104.12012293500234,12.041594578792296,28.0178514522438,29.017236257093817,31.016124838541646,45.0,91.08786966440702,63.071388124885914,60.0,57.0,52.0,9.5,36.5,6.5,0.5,21.095023109728988,20.09975124224178,20.5,64.0,65.0,62.00806399170998
78,78,2.8284271247461903,106.1178590059185,13.038404810405298,21.095023109728988,25.079872407968907,27.073972741361768,47.0,83.15046602394962,62.07253821135398,61.0,55.0,50.0,5.5,30.5,8.5,4.5,23.08679276123039,22.20360331117452,22.5,63.0,66.0,62.0
79,79,2.8284271247461903,109.07336980216573,13.0,23.021728866442675,27.073972741361768,29.017236257093817,45.0111097397076,83.09632964216891,60.07495318350236,59.0,53.0,49.0,6.0,32.0,7.0,4.0,22.02271554554524,21.095023109728988,21.5,63.0,66.0,59.00847396772772
80,80,7.280109889280518,112.04017136723775,13.038404810405298,29.017236257093817,30.01666203960727,33.0,44.0,93.08598175880189,64.07027391856539,60.5,53.0,50.0,7.5,41.5,11.5,3.5,22.02271554554524,21.02379604162864,21.0,65.0,66.0,61.0
81,81,11.180339887498949,114.0175425099138,14.0,32.01562118716424,30.01666203960727,33.015148038438355,40.0,97.04638066409278,65.03076195155643,59.5,53.0,51.0,12.0,45.0,11.0,0.0,22.02271554554524,21.095023109728988,21.0,64.0,66.0,65.0
82,82,8.06225774829855,115.0173899895142,12.0,31.016124838541646,31.0,33.0,39.01281840626232,90.0499861188218,59.033888572581766,55.0,49.0,47.0,9.0,42.0,9.0,1.0,22.02271554554524,20.09975124224178,20.0,64.0,65.0,64.00781202322104
83,83,11.045361017187261,114.03946685248927,12.041594578792296,27.0,30.01666203960727,32.01562118716424,40.01249804748511,90.0499861188218,63.071388124885914,57.5,50.0,47.0,8.5,41.5,11.5,0.5,20.024984394500787,20.024984394500787,20.5,64.0,65.0,65.0
84,84,11.045361017187261,118.06777714516353,13.0,27.018512172212592,31.016124838541646,33.06055050963308,39.05124837953327,90.08884503644167,63.071388124885914,57.5,49.0,45.0,8.0,43.0,14.0,2.0,21.02379604162864,20.09975124224178,20.0,64.0,66.0,61.00819617067857
85,85,11.045361017187261,116.1077086157504,12.041594578792296,27.018512172212592,32.01562118716424,34.058772731852805,40.01249804748511,90.08884503644167,63.071388124885914,57.5,50.0,45.0,7.5,42.5,13.5,1.5,21.02379604162864,21.02379604162864,20.5,64.0,65.0,63.00793600809346
86,86,12.041594578792296,117.10678887237921,11.045361017187261,28.0178514522438,31.064449134018133,34.058772731852805,40.049968789001575,91.13725912051558,63.12685640834652,57.0,50.0,45.0,7.5,43.5,13.5,0.5,21.02379604162864,20.09975124224178,20.5,64.0,65.0,63.00793600809346
87,87,13.038404810405298,117.15374513859982,12.041594578792296,29.017236257093817,30.01666203960727,34.058772731852805,40.049968789001575,94.13288479590966,65.12296062065974,58.5,51.0,45.0,8.0,46.0,16.0,2.0,22.02271554554524,21.095023109728988,21.0,64.0,65.0,61.0
88,88,10.04987562112089,116.15506876585283,14.035668847618199,33.015148038438355,32.14031735997639,34.132096331752024,41.10960958218893,98.18350166906862,65.19202405202648,60.0,54.0,48.0,10.0,47.0,12.0,1.0,22.02271554554524,20.09975124224178,20.5,65.0,67.0,66.007575322837
89,89,13.038404810405298,114.15778554264269,14.035668847618199,32.01562118716424,32.0624390837628,34.0147027033899,42.1070065428546,101.17806086301516,69.18092222571191,62.5,57.0,51.0,12.0,47.0,13.0,1.0,21.02379604162864,19.1049731745428,20.0,63.0,65.0,71.00704190430693
90,90,15.033296378372908,114.28035701729323,13.038404810405298,30.01666203960727,31.064449134018133,34.058772731852805,42.190046219457976,100.24470060806208,70.25667228100119,62.5,59.0,51.0,13.0,45.0,14.0,3.0,21.02379604162864,19.026297590440446,19.0,63.0,64.0,68.0294054067798
91,91,13.038404810405298,115.27792503337315,12.041594578792296,29.017236257093817,31.064449134018133,34.058772731852805,42.04759208325728,96.13012014972206,67.11929677819934,60.5,58.0,50.0,12.0,42.0,12.0,2.0,20.09975124224178,19.026297590440446,19.0,61.0,63.0,65.03076195155643
92,92,14.142135623730951,113.21660655575224,12.041594578792296,28.0178514522438,32.0624390837628,35.014282800023196,41.048751503547585,95.1892851112981,67.1863081289633,60.0,58.0,51.0,13.5,40.5,11.5,3.5,21.02379604162864,19.0,19.5,62.0,63.0,66.03029607687671
93,93,15.132745950421556,115.15641536623133,12.0,28.0178514522438,33.015148038438355,35.014282800023196,41.048751503547585,96.13012014972206,68.11754546370561,60.5,57.0,51.0,13.0,42.0,12.0,3.0,21.02379604162864,19.0,19.5,62.0,62.0,68.00735254367721
94,94,13.038404810405298,116.03878661895772,14.035668847618199,31.016124838541646,32.0,35.0,39.01281840626232,97.082439194738,66.06814663663572,59.5,54.0,51.0,13.5,44.5,10.5,0.5,20.09975124224178,20.0,20.0,61.0,61.0,65.03076195155643
95,95,22.02271554554524,119.01680553602503,12.041594578792296,28.0178514522438,33.0,37.0,40.01249804748511,102.07840124139877,74.06078584514209,63.0,55.0,53.0,14.0,48.0,17.0,3.0,19.026297590440446,18.027756377319946,18.5,60.0,61.0,70.00714249274856
96,96,30.01666203960727,123.01625908797584,13.0,28.0178514522438,35.0,38.0,38.0,109.01834707974616,81.00617260431454,66.0,54.0,52.0,15.0,56.0,25.0,4.0,19.026297590440446,19.026297590440446,18.5,60.0,63.0,69.00724599634447
97,97,33.06055050963308,127.01574705523721,13.0,28.0178514522438,35.0,38.01315561749642,38.01315561749642,112.0714058089752,84.0535543567314,67.5,54.0,52.0,15.0,59.0,28.0,4.0,18.027756377319946,18.027756377319946,18.5,60.0,63.0,68.00735254367721
98,98,38.05259518088089,128.01562404644207,11.0,27.018512172212592,35.0,39.01281840626232,39.01281840626232,115.06954418958998,88.05112151472007,69.0,54.0,52.0,14.0,62.0,32.0,4.0,18.027756377319946,18.027756377319946,18.5,59.0,62.0,66.0
99,99,40.049968789001575,131.01526628603247,12.0,26.0,35.0,39.0,39.01281840626232,117.03845521878696,91.0494371207203,71.0,53.0,51.0,13.0,65.0,35.0,3.0,17.029386365926403,18.027756377319946,18.0,61.0,61.0,62.00806399170998
100,100,41.048751503547585,131.00381673829202,11.0,26.0,36.0,40.0,39.0,117.01709276853532,91.02197536858887,70.5,51.0,50.0,11.5,66.5,37.5,2.5,18.027756377319946,18.027756377319946,18.5,61.0,59.0,65.03076195155643
101,101,43.04648650006177,133.00375934536586,11.0,26.0,36.013886210738214,40.0,39.0,119.01680553602503,93.02150289046077,71.5,50.0,49.0,10.5,69.5,40.5,2.5,18.110770276274835,17.029386365926403,17.5,64.0,58.0,64.03124237432849
102,102,41.012193308819754,134.0,12.0,27.0,37.0,41.012193308819754,38.0,118.00423721205946,91.00549433962765,70.5,48.0,48.0,10.0,70.0,39.0,1.0,18.027756377319946,17.0,17.0,61.0,53.0,62.03224967708329
103,103,39.01281840626232,133.0,11.0,27.0,37.013511046643494,41.0,39.0,116.00431026474836,89.00561780022652,69.5,48.0,48.0,9.0,68.0,37.0,0.0,17.11724276862369,16.0,16.0,60.0,53.0,62.07253821135398
104,104,37.0,133.01503674397117,11.0,26.0,36.013886210738214,40.0,40.01249804748511,114.00438588054409,88.0056816347672,69.5,47.0,49.0,8.0,66.0,36.0,1.0,17.11724276862369,17.029386365926403,17.0,61.0,53.0,66.06814663663572
105,105,29.017236257093817,132.015150645674,11.0,26.019223662515376,34.0147027033899,38.01315561749642,38.01315561749642,104.00480758118829,78.0,63.5,42.0,44.0,5.0,61.0,32.0,4.0,18.110770276274835,17.0,17.0,63.0,55.0,63.12685640834652
106,106,27.018512172212592,130.01538370516005,11.0,26.019223662515376,34.0147027033899,37.013511046643494,39.01281840626232,103.00485425454472,77.0,63.5,42.0,44.0,4.0,60.0,31.0,5.0,19.1049731745428,18.0,18.0,66.0,57.0,67.11929677819934
107,107,21.02379604162864,126.03570922560003,9.0,26.019223662515376,31.016124838541646,35.05709628591621,40.049968789001575,96.02083107326243,70.00714249274856,59.5,42.0,45.0,3.5,52.5,22.5,4.5,18.110770276274835,17.0,17.0,66.0,55.0,64.19501538281614
108,108,18.027756377319946,119.03780911962384,8.0,25.019992006393608,29.017236257093817,33.015148038438355,41.012193308819754,92.00543462209176,67.0,58.0,43.0,46.0,3.5,47.5,19.5,3.5,18.110770276274835,18.0,18.0,68.0,52.0,66.37017402418047
109,109,20.0,112.0714058089752,10.0,27.073972741361768,30.01666203960727,33.015148038438355,38.01315561749642,95.04735661763561,68.00735254367721,58.0,45.0,49.0,9.0,48.0,17.0,0.0,19.235384061671343,17.029386365926403,17.5,70.0,52.0,68.3593446428504
110,110,28.0,107.16809226630845,12.0,31.064449134018133,29.154759474226502,34.132096331752024,36.124783736376884,107.11675872616759,76.05918747922567,62.0,49.0,55.0,16.0,55.0,21.0,4.0,19.1049731745428,18.0,18.0,71.0,52.0,64.4980619863884
111,111,31.0,110.2905254316979,12.041594578792296,32.0624390837628,32.2490309931942,37.21558813185679,34.132096331752024,109.16501271011697,77.10382610480494,61.5,49.0,57.0,19.0,56.0,19.0,6.0,18.24828759089466,18.027756377319946,18.0,70.0,51.0,65.49045732013177
112,112,30.0,110.2905254316979,13.038404810405298,32.0624390837628,33.13608305156178,37.12142238654117,33.13608305156178,108.16653826391968,76.10519036176179,61.0,51.0,59.0,22.0,53.0,17.0,9.0,18.24828759089466,18.027756377319946,17.5,70.0,53.0,64.4980619863884
113,113,4.47213595499958,110.07270324653611,15.033296378372908,27.018512172212592,28.0,31.016124838541646,44.181444068749045,90.08884503644167,63.071388124885914,61.0,53.0,57.0,11.0,35.0,5.0,2.0,19.235384061671343,18.027756377319946,18.0,67.0,51.0,61.29437168288782
114,114,5.0990195135927845,107.0420478129973,14.0,25.019992006393608,26.0,29.0,46.2709412050371,90.13878188659973,65.12296062065974,62.5,55.0,58.0,10.5,33.5,6.5,2.5,19.235384061671343,18.027756377319946,18.5,68.0,52.0,57.3149195236284
115,115,7.0710678118654755,107.0420478129973,15.0,27.0,29.017236257093817,32.01562118716424,43.41658669218482,92.13576938409967,65.19202405202648,61.5,55.0,58.0,13.5,35.5,6.5,0.5,19.235384061671343,19.0,18.5,70.0,54.0,61.40032573203501
116,116,12.041594578792296,110.07270324653611,15.033296378372908,28.0178514522438,31.064449134018133,34.058772731852805,39.20459156782532,94.13288479590966,66.12110101926616,60.0,54.0,58.0,17.0,38.0,7.0,3.0,19.1049731745428,18.027756377319946,18.5,69.0,55.0,65.27633568147036
117,117,18.027756377319946,113.11056537742175,13.0,29.017236257093817,30.066592756745816,34.058772731852805,37.05401462729781,97.082439194738,68.06614430096654,59.0,52.0,57.0,17.5,42.5,10.5,4.5,19.235384061671343,19.026297590440446,19.5,69.0,54.0,66.27216610312357
118,118,22.02271554554524,113.11056537742175,13.0,32.01562118716424,32.0624390837628,35.05709628591621,36.05551275463989,103.07764064044152,71.06335201775947,60.0,53.0,58.0,19.5,47.5,11.5,6.5,19.1049731745428,19.0,19.0,68.0,55.0,64.28063471995279
119,119,18.0,114.0701538527936,14.035668847618199,33.015148038438355,32.0624390837628,36.05551275463989,38.05259518088089,103.07764064044152,70.06425622241343,61.0,54.0,58.0,18.0,47.0,11.0,4.0,19.1049731745428,18.0,18.5,66.0,55.0,61.29437168288782
120,120,3.1622776601683795,109.01834707974616,14.0,23.0,28.0178514522438,29.017236257093817,46.04345773288535,86.00581375697809,63.00793600809346,61.5,54.0,56.0,9.0,31.0,5.0,3.0,20.223748416156685,19.026297590440446,20.0,67.0,56.0,63.12685640834652
121,121,1.4142135623730951,107.01868995647442,12.0,19.0,25.019992006393608,28.0,48.041648597857254,80.00624975587844,61.00819617067857,60.5,52.0,54.0,5.0,27.0,6.0,5.0,21.213203435596427,20.0,20.5,66.0,56.0,62.20128616033595
122,122,2.8284271247461903,108.00462953040486,12.0,21.0,26.0,29.0,48.093658625644196,83.00602387778854,62.00806399170998,61.0,53.0,54.0,5.5,29.5,6.5,4.5,20.223748416156685,19.0,19.5,66.0,55.0,62.289646009589745
123,123,6.082762530298219,102.0196059588548,12.041594578792296,24.020824298928627,25.0,28.0178514522438,48.010415536631214,90.0222194794152,66.007575322837,63.0,55.0,57.0,8.0,34.0,8.0,3.0,19.235384061671343,18.0,18.5,67.0,54.0,61.40032573203501
124,124,7.0,99.00505037623081,12.041594578792296,26.0,24.020824298928627,27.0,50.0,95.00526301210897,69.00724599634447,65.5,58.0,59.0,8.5,36.5,8.5,1.5,21.213203435596427,19.0,19.5,68.0,55.0,59.30430001273095
125,125,6.0,99.0,13.038404810405298,26.019223662515376,24.0,27.0,50.00999900019995,95.04735661763561,69.02897942168927,66.0,58.0,58.0,8.0,37.0,9.0,3.0,20.223748416156685,20.0,20.0,68.0,57.0,63.28506932918696
126,126,6.082762530298219,101.0,14.0,27.018512172212592,25.019992006393608,27.018512172212592,48.093658625644196,95.04735661763561,68.0294054067798,65.0,57.0,57.0,9.0,38.0,9.0,3.0,18.24828759089466,17.0,17.5,69.0,57.0,65.27633568147036
127,127,8.06225774829855,102.0,13.038404810405298,26.0,26.019223662515376,29.017236257093817,46.04345773288535,93.02150289046077,67.02984409947557,63.0,56.0,56.0,10.0,37.0,9.0,1.0,19.235384061671343,18.0,18.5,68.0,58.0,64.19501538281614
128,128,8.06225774829855,109.01834707974616,14.035668847618199,26.0,27.0,30.01666203960727,44.10215414239989,92.04890004774636,66.06814663663572,62.0,54.0,56.0,11.0,37.0,9.0,1.0,20.223748416156685,20.0,20.0,67.0,56.0,60.207972893961475
129,129,8.0,109.00458705944443,14.0,27.0,28.0,32.0,43.104524124504614,92.04890004774636,65.06919393998976,61.0,54.0,55.0,11.5,37.5,8.5,0.5,20.223748416156685,19.0,19.0,66.0,54.0,64.1248781675256
130,130,9.0,109.01834707974616,14.0,30.01666203960727,30.01666203960727,33.015148038438355,40.11234224026316,93.08598175880189,63.071388124885914,58.5,53.0,55.0,14.0,39.0,7.0,1.0,20.09975124224178,19.0,19.0,66.0,55.0,59.21148537234985
131,131,13.0,108.00462953040486,14.0,29.017236257093817,31.016124838541646,33.0,39.05124837953327,95.04735661763561,66.03029607687671,59.5,55.0,56.0,16.5,39.5,7.5,3.5,19.1049731745428,19.0,19.0,67.0,57.0,62.12889826803627
132,132,15.0,111.00450441310929,15.0,30.0,31.0,34.0,38.05259518088089,98.02040603874276,68.0294054067798,60.5,55.0,56.0,17.5,42.5,10.5,4.5,20.09975124224178,19.026297590440446,19.5,65.0,57.0,61.1310068623117
133,133,14.0,110.00454536063498,15.0,31.0,31.016124838541646,33.0,39.05124837953327,99.02019995940222,68.0294054067798,61.0,55.0,56.0,16.5,43.5,10.5,2.5,21.095023109728988,20.024984394500787,20.5,66.0,57.0,63.12685640834652
134,134,2.23606797749979,113.01769772916099,14.0,23.0,30.0,31.0,42.1070065428546,81.02468759581859,58.034472514187634,57.0,50.0,52.0,9.0,30.0,5.0,2.0,21.095023109728988,20.024984394500787,20.0,66.0,58.0,66.12110101926616
135,135,2.23606797749979,113.01769772916099,13.0,22.0,28.0,31.0,42.04759208325728,79.00632886041473,57.0087712549569,56.0,48.0,50.0,7.0,30.0,5.0,4.0,21.095023109728988,20.024984394500787,20.5,64.0,59.0,60.03332407921454
136,136,3.1622776601683795,107.00467279516349,14.0,26.0,28.0178514522438,30.01666203960727,44.01136216933077,87.0,61.0,59.5,54.0,53.0,9.5,33.5,5.5,1.5,22.20360331117452,21.02379604162864,21.0,65.0,62.0,61.00819617067857
137,137,7.0710678118654755,105.04284840006957,15.0,28.0178514522438,28.0178514522438,30.01666203960727,43.0,93.02150289046077,65.00769185258002,61.5,56.0,53.0,11.5,38.5,8.5,1.5,21.213203435596427,21.02379604162864,20.5,68.0,64.0,62.03224967708329
138,138,10.04987562112089,108.01851693112621,15.0,29.017236257093817,30.0,32.0,41.012193308819754,95.00526301210897,66.0,61.0,56.0,54.0,14.0,40.0,9.0,1.0,22.090722034374522,20.09975124224178,20.5,64.0,65.0,58.0
139,139,14.035668847618199,113.00442469213318,13.038404810405298,29.017236257093817,30.01666203960727,33.015148038438355,39.01281840626232,95.02105029939419,66.007575322837,59.0,54.0,53.0,14.5,41.5,10.5,2.5,21.095023109728988,20.024984394500787,20.0,63.0,60.0,59.00847396772772
140,140,14.035668847618199,117.0,13.038404810405298,29.017236257093817,32.0,35.014282800023196,38.01315561749642,94.02127418834527,65.00769185258002,58.0,52.0,52.0,14.0,42.0,11.0,2.0,21.095023109728988,20.024984394500787,20.0,67.0,63.0,66.03029607687671
141,141,18.027756377319946,121.00413216084813,15.0,31.0,33.015148038438355,37.013511046643494,39.0,103.00485425454472,72.00694410957877,63.0,54.0,55.0,15.5,48.5,14.5,1.5,21.095023109728988,20.024984394500787,20.0,67.0,64.0,67.00746227100382
142,142,29.068883707497267,121.00413216084813,13.0,30.0,34.0147027033899,38.05259518088089,40.01249804748511,112.04017136723775,82.05485969764375,67.5,54.0,55.0,14.5,57.5,24.5,2.5,20.024984394500787,19.0,20.0,66.0,63.0,69.02897942168927
143,143,24.08318915758459,123.0,14.0,31.0,34.0147027033899,38.05259518088089,39.01281840626232,108.04165863221463,77.05841939723393,65.0,53.0,53.0,14.0,55.0,20.0,1.0,21.02379604162864,20.0,20.5,66.0,61.0,74.02702209328699
144,144,19.026297590440446,121.0,13.038404810405298,30.0,33.015148038438355,37.013511046643494,40.0,102.0196059588548,72.02777242147643,62.5,53.0,53.0,13.0,49.0,16.0,1.0,21.095023109728988,20.0,20.0,67.0,62.0,67.06713054842886
145,145,23.021728866442675,120.00416659433121,13.0,27.0,32.0,35.0,38.0,101.00495037373169,74.00675644831355,62.5,51.0,52.0,13.5,49.5,18.5,2.5,20.09975124224178,20.0,20.0,68.0,61.0,63.12685640834652
146,146,18.110770276274835,114.00438588054409,12.0,29.017236257093817,31.0,35.0,39.01281840626232,98.08159868191383,69.06518659932803,60.0,55.0,54.0,15.5,43.5,12.5,5.5,21.095023109728988,20.0,20.0,67.0,60.0,65.03076195155643
147,147,21.02379604162864,107.01868995647442,12.0,29.017236257093817,31.016124838541646,34.0147027033899,39.05124837953327,101.07917688624102,72.06247289678588,61.5,60.0,58.0,20.0,42.0,11.0,9.0,22.090722034374522,20.024984394500787,20.5,68.0,62.0,65.03076195155643
148,148,22.090722034374522,97.0051545022222,13.0,30.0,27.018512172212592,31.016124838541646,39.01281840626232,104.04326023342406,74.06078584514209,63.0,63.0,62.0,23.5,41.5,9.5,11.5,24.08318915758459,22.0,23.0,67.0,64.0,63.071388124885914
149,149,19.1049731745428,92.02173656261873,15.0,31.016124838541646,26.0,29.0,39.05124837953327,104.12012293500234,73.10950690573696,63.5,65.0,63.0,25.0,40.0,7.0,11.0,23.08679276123039,22.02271554554524,22.5,69.0,66.0,63.00793600809346
150,150,14.142135623730951,94.04786015641186,17.029386365926403,31.016124838541646,26.019223662515376,30.01666203960727,42.01190307520001,104.12012293500234,73.10950690573696,66.0,66.0,63.0,22.5,39.5,6.5,7.5,22.02271554554524,22.0,22.0,66.0,65.0,63.00793600809346
151,151,12.041594578792296,91.0494371207203,17.029386365926403,31.064449134018133,25.019992006393608,29.017236257093817,44.01136216933077,104.12012293500234,73.06161783043132,67.0,68.0,65.0,22.5,37.5,4.5,7.5,22.090722034374522,21.02379604162864,21.5,64.0,65.0,62.00806399170998
152,152,10.04987562112089,93.08598175880189,17.029386365926403,31.016124838541646,25.019992006393608,28.0178514522438,45.0111097397076,103.07764064044152,72.06247289678588,67.0,69.0,65.0,22.0,36.0,3.0,7.0,22.02271554554524,21.02379604162864,21.0,62.0,66.0,59.00847396772772
153,153,11.045361017187261,93.08598175880189,17.029386365926403,31.064449134018133,25.019992006393608,28.0178514522438,44.0,103.07764064044152,72.02777242147643,66.5,69.0,65.0,23.0,36.0,4.0,7.0,23.021728866442675,21.02379604162864,22.0,61.0,65.0,55.036351623268054
154,154,13.038404810405298,95.04735661763561,17.0,31.016124838541646,26.019223662515376,29.017236257093817,42.01190307520001,103.04368005850722,72.02777242147643,65.5,68.0,65.0,24.5,36.5,3.5,9.5,24.08318915758459,23.021728866442675,23.5,62.0,63.0,56.0
155,155,14.035668847618199,94.00531899844816,17.0,32.01562118716424,25.0,30.01666203960727,41.0,104.01922899156675,72.00694410957877,65.0,66.0,65.0,24.5,38.5,4.5,8.5,22.090722034374522,22.02271554554524,22.0,66.0,65.0,58.0
156,156,15.0,93.0,17.0,32.0,26.0,30.01666203960727,41.012193308819754,105.00476179678711,73.00684899377592,65.5,65.0,65.0,24.0,40.0,5.0,8.0,22.20360331117452,21.0,21.0,68.0,62.0,60.07495318350236
157,157,13.0,89.0,16.0,32.0,24.0,27.018512172212592,43.01162633521314,104.00480758118829,72.00694410957877,65.5,66.0,66.0,23.0,38.0,4.0,8.0,22.20360331117452,21.0,21.0,70.0,60.0,61.1310068623117
158,158,11.045361017187261,89.02246907382428,17.0,32.0,22.0,25.0,44.01136216933077,104.0,72.0,66.5,66.0,68.0,23.0,37.0,3.0,7.0,21.095023109728988,21.0,21.0,70.0,61.0,61.1310068623117
159,159,7.0710678118654755,88.0056816347672,17.029386365926403,31.0,21.0,25.019992006393608,47.01063709417264,102.00490184299969,71.00704190430693,67.5,66.0,67.0,19.5,35.5,2.5,3.5,22.090722034374522,22.0,22.0,70.0,60.0,58.137767414994535
160,160,17.029386365926403,92.02173656261873,15.0,30.0,23.0,26.019223662515376,48.041648597857254,110.00454536063498,80.00624975587844,71.5,68.0,70.0,21.0,41.0,9.0,7.0,23.08679276123039,21.0,21.5,73.0,60.0,62.289646009589745
161,161,32.0,90.00555538409837,15.033296378372908,31.0,27.0,30.0,45.044422518220834,123.03657992645927,92.04890004774636,76.0,69.0,70.0,24.5,53.5,19.5,10.5,23.194827009486403,21.0,21.5,74.0,63.0,67.11929677819934
162,162,39.0,95.02105029939419,14.0,31.016124838541646,27.018512172212592,32.0,44.10215414239989,128.06248474865697,97.04638066409278,77.5,69.0,71.0,26.0,58.0,24.0,12.0,22.20360331117452,21.0,21.5,75.0,63.0,68.11754546370561
163,163,41.0,95.02105029939419,14.0,31.016124838541646,29.068883707497267,32.01562118716424,42.1070065428546,128.06248474865697,97.04638066409278,76.5,69.0,71.0,28.0,58.0,24.0,14.0,22.20360331117452,21.0,21.5,73.0,61.0,70.11419257183242
164,164,41.012193308819754,98.02040603874276,14.035668847618199,30.01666203960727,29.017236257093817,33.0,40.11234224026316,125.06398362438324,95.04735661763561,74.5,66.0,68.0,27.0,58.0,25.0,14.0,23.194827009486403,21.0,22.0,73.0,64.0,59.135437767890075
165,165,35.0,101.04454463255303,14.0,31.0,29.017236257093817,33.0,38.118237105091836,118.03812943282352,87.05170877128145,69.5,63.0,66.0,26.5,53.5,19.5,12.5,23.08679276123039,22.0,22.0,73.0,64.0,63.198101237299845
166,166,30.0,104.04326023342406,13.0,30.0,30.01666203960727,33.0,39.11521443121589,112.04017136723775,82.05485969764375,67.0,61.0,64.0,23.5,49.5,17.5,10.5,23.194827009486403,22.0,22.5,73.0,63.0,66.06814663663572
167,167,28.0,104.01922899156675,12.0,28.0,31.016124838541646,34.0,39.05124837953327,107.01868995647442,79.02531240052139,65.0,60.0,62.0,22.0,46.0,15.0,10.0,22.090722034374522,22.02271554554524,22.5,73.0,64.0,66.06814663663572
168,168,28.0,108.00462953040486,13.0,29.0,29.0,34.0,39.05124837953327,109.01834707974616,80.02499609497022,66.0,61.0,62.0,22.5,47.5,15.5,10.5,23.08679276123039,22.0,22.5,69.0,62.0,60.03332407921454
169,169,29.0,108.0,12.0,28.0178514522438,31.0,34.0,40.0,109.00458705944443,81.0,66.5,63.0,63.0,23.0,46.0,15.0,12.0,23.021728866442675,22.0,22.0,66.0,62.0,59.033888572581766
170,170,23.0,107.0420478129973,12.041594578792296,30.0,31.0,35.014282800023196,39.05124837953327,104.04326023342406,74.06078584514209,62.5,63.0,60.0,22.5,42.5,10.5,11.5,19.026297590440446,18.0,18.5,60.0,60.0,53.0
171,171,21.0,106.1178590059185,12.0,29.017236257093817,30.0,33.06055050963308,40.11234224026316,102.07840124139877,73.06161783043132,62.5,64.0,59.0,21.5,40.5,9.5,10.5,11.045361017187261,9.055385138137417,9.0,54.0,52.0,50.0
172,172,19.026297590440446,102.23991392797629,13.0,28.0178514522438,30.066592756745816,32.14031735997639,38.05259518088089,98.08159868191383,70.06425622241343,60.5,65.0,58.0,23.5,36.5,7.5,12.5,12.0,12.041594578792296,11.5,54.0,54.0,49.0
173,173,17.029386365926403,101.31633629380802,14.035668847618199,30.01666203960727,28.0178514522438,32.14031735997639,36.05551275463989,97.12878049270464,67.11929677819934,58.5,64.0,56.0,24.0,37.0,6.0,11.0,16.0,15.033296378372908,15.0,54.0,57.0,53.009433122794285
174,174,16.0312195418814,100.31948963187563,15.033296378372908,31.016124838541646,29.017236257093817,33.06055050963308,38.118237105091836,100.17983829094555,69.18092222571191,61.0,65.0,57.0,23.0,39.0,7.0,10.0,17.0,17.11724276862369,17.0,57.0,68.0,59.135437767890075
175,175,14.142135623730951,100.4987562112089,16.0312195418814,32.0624390837628,26.076809620810597,30.066592756745816,39.20459156782532,101.40019723846694,69.35416353759881,62.0,66.0,56.0,22.0,40.0,7.0,8.0,19.026297590440446,18.110770276274835,18.0,58.0,68.0,59.07622195096772
176,176,10.44030650891055,95.75489543621255,16.0312195418814,31.064449134018133,26.30589287593181,29.154759474226502,42.1070065428546,99.40824915468535,68.3593446428504,63.0,68.0,56.0,20.0,37.0,5.0,7.0,18.0,17.029386365926403,17.5,56.0,68.0,63.071388124885914
177,177,6.708203932499369,95.88534820294495,16.0312195418814,30.066592756745816,25.179356624028344,28.284271247461902,44.181444068749045,96.51942809610924,66.48308055437865,63.0,68.0,55.0,17.5,34.5,3.5,4.5,19.0,18.027756377319946,18.5,56.0,68.0,57.14017850864661
178,178,5.830951894845301,94.89467845985885,16.0312195418814,30.066592756745816,25.179356624028344,27.16615541441225,44.10215414239989,95.42536350467836,65.37583651472461,62.5,68.0,55.0,17.5,33.5,2.5,3.5,20.0,19.1049731745428,19.0,61.0,73.0,63.12685640834652
179,179,8.54400374531753,99.60923651951158,16.0312195418814,29.068883707497267,26.1725046566048,29.068883707497267,42.1070065428546,95.42536350467836,66.37017402418047,62.0,65.0,54.0,17.5,35.5,4.5,4.5,20.0,19.1049731745428,19.5,60.0,73.0,60.13318551349163
180,180,12.165525060596439,100.4987562112089,15.033296378372908,31.064449134018133,27.073972741361768,30.066592756745816,42.1070065428546,100.31948963187563,69.26037828369117,63.0,67.0,57.0,20.0,38.0,6.0,7.0,21.0,19.1049731745428,19.0,56.0,67.0,56.142675390472796
181,181,12.36931687685298,99.40824915468535,16.0312195418814,31.064449134018133,25.079872407968907,29.068883707497267,44.10215414239989,103.39245620450265,72.3394774656273,66.0,66.0,57.0,17.5,41.5,8.5,3.5,21.02379604162864,20.09975124224178,20.0,60.0,70.0,62.07253821135398
182,182,15.297058540778355,96.51942809610924,15.132745950421556,33.06055050963308,25.079872407968907,29.068883707497267,45.044422518220834,108.37435120913067,75.32595834106593,67.5,68.0,58.0,18.0,45.0,11.0,5.0,20.0,19.026297590440446,19.5,66.0,74.0,68.06614430096654
183,183,26.1725046566048,94.33981132056604,16.1245154965971,32.14031735997639,26.076809620810597,30.01666203960727,44.04543109109048,118.4229707446997,86.28441342444185,73.0,70.0,62.0,22.0,52.0,17.0,8.0,20.024984394500787,19.1049731745428,19.5,66.0,74.0,74.06078584514209
184,184,35.12833614050059,95.25754563287887,14.142135623730951,32.14031735997639,27.073972741361768,32.01562118716424,43.04648650006177,124.4025723206719,92.26592003551474,74.5,69.0,62.0,22.5,58.5,23.5,10.5,20.024984394500787,20.09975124224178,20.0,64.0,74.0,67.06713054842886
185,185,35.22782990761707,106.07544484940895,15.033296378372908,32.0624390837628,30.01666203960727,35.014282800023196,40.0,122.20065466273084,90.13878188659973,72.5,63.0,59.0,21.0,61.0,26.0,8.0,20.0,19.235384061671343,19.0,66.0,75.0,69.1158447825099
186,186,26.076809620810597,116.00431026474836,14.035668847618199,32.0624390837628,30.0,34.058772731852805,38.01315561749642,110.07270324653611,78.02563681252464,65.0,55.0,54.0,16.5,55.5,20.5,3.5,20.0,19.1049731745428,19.0,66.0,73.0,69.06518659932803
187,187,18.110770276274835,119.00420160649792,12.041594578792296,30.01666203960727,32.01562118716424,35.014282800023196,37.013511046643494,97.04638066409278,67.02984409947557,58.0,50.0,49.0,12.5,47.5,14.5,1.5,19.0,19.026297590440446,19.0,66.0,70.0,69.02897942168927
188,188,17.11724276862369,121.00413216084813,12.0,29.017236257093817,31.0,35.014282800023196,37.013511046643494,95.02105029939419,66.007575322837,57.5,47.0,48.0,10.5,47.5,15.5,0.5,20.024984394500787,18.110770276274835,18.0,66.0,66.0,65.03076195155643
189,189,15.033296378372908,120.01666550941998,13.0,29.0,31.016124838541646,34.058772731852805,37.013511046643494,94.0,65.0,57.5,47.0,49.0,11.0,46.0,14.0,0.0,19.1049731745428,19.026297590440446,19.0,65.0,63.0,69.0
190,190,14.035668847618199,121.06609764917675,12.0,28.0,31.016124838541646,34.058772731852805,38.01315561749642,92.0,64.0,57.0,45.0,49.0,9.0,45.0,14.0,2.0,19.1049731745428,18.0,18.5,66.0,61.0,64.07027391856539
191,191,13.038404810405298,121.03718436910205,12.0,27.018512172212592,31.0,34.0147027033899,38.0,90.0,63.00793600809346,56.5,45.0,48.0,8.5,43.5,14.5,1.5,19.1049731745428,18.027756377319946,18.5,66.0,60.0,63.0317380372777
192,192,13.038404810405298,120.03749414245534,12.0,27.018512172212592,31.016124838541646,33.015148038438355,38.0,90.0,63.00793600809346,56.5,45.0,48.0,8.5,43.5,13.5,2.5,19.026297590440446,19.0,19.5,65.0,59.0,62.07253821135398
193,193,14.035668847618199,120.01666550941998,12.0,26.0,31.016124838541646,33.015148038438355,37.0,89.00561780022652,63.00793600809346,56.0,45.0,47.0,9.0,43.0,14.0,2.0,19.026297590440446,18.0,18.5,65.0,59.0,60.03332407921454
194,194,15.0,119.01680553602503,12.0,27.0,32.0,34.0147027033899,38.0,92.0,65.0,57.5,47.0,49.0,10.0,44.0,15.0,0.0,18.110770276274835,17.0,18.0,64.0,59.0,64.07027391856539
195,195,23.0,119.0,11.0,27.0,32.01562118716424,35.0,39.01281840626232,100.00499987500625,73.00684899377592,61.5,51.0,51.0,12.0,49.0,19.0,2.0,19.026297590440446,18.0,18.0,65.0,60.0,65.03076195155643
196,196,24.0,119.0,12.0,27.0,34.0,38.0,39.01281840626232,102.00490184299969,75.0066663703967,63.0,53.0,53.0,14.0,49.0,19.0,4.0,19.026297590440446,19.0,19.0,62.0,58.0,66.007575322837
197,197,22.0,119.00420160649792,12.041594578792296,28.0,33.0,36.0,38.0,100.00499987500625,72.00694410957877,61.0,53.0,52.0,14.5,47.5,17.5,4.5,18.027756377319946,18.0,18.0,62.0,57.0,64.03124237432849
198,198,22.0,118.01694793545543,11.045361017187261,25.0,33.0,35.014282800023196,37.0,95.00526301210897,70.00714249274856,59.0,53.0,51.0,15.0,43.0,16.0,5.0,19.026297590440446,18.027756377319946,18.5,61.0,56.0,62.00806399170998
199,199,24.0,116.01724009818541,12.041594578792296,25.0,31.016124838541646,34.0,35.014282800023196,96.0,71.0,59.0,53.0,51.0,17.0,44.0,17.0,7.0,21.02379604162864,20.024984394500787,19.5,63.0,59.0,64.03124237432849
200,200,18.027756377319946,113.01769772916099,13.038404810405298,28.0,31.016124838541646,35.0,37.0,96.02083107326243,68.0294054067798,59.0,55.0,53.0,17.0,42.0,12.0,6.0,19.026297590440446,18.027756377319946,18.0,63.0,56.0,63.0317380372777
201,201,1.4142135623730951,111.0,14.0,22.0,29.017236257093817,31.0,45.0,82.00609733428362,60.00833275470999,59.5,53.0,53.0,8.0,29.0,5.0,3.0,20.024984394500787,18.027756377319946,18.5,56.0,50.0,58.034472514187634
202,202,3.0,110.00454536063498,14.0,23.0,28.0,30.0,45.0,85.0,62.0,60.5,55.0,56.0,10.5,29.5,4.5,1.5,19.1049731745428,19.0,19.5,62.0,55.0,59.033888572581766
203,203,16.0312195418814,110.01818031580054,14.0,28.0178514522438,31.0,33.0,43.04648650006177,101.01980003939822,73.00684899377592,65.0,57.0,59.0,15.0,43.0,13.0,2.0,19.026297590440446,19.0,19.0,64.0,57.0,63.0317380372777
204,204,16.0312195418814,110.0,14.035668847618199,29.017236257093817,31.016124838541646,34.0,39.0,98.00510190801293,69.0,61.0,57.0,57.0,18.0,41.0,10.0,5.0,19.1049731745428,19.026297590440446,19.5,63.0,58.0,67.02984409947557
205,205,12.0,107.00467279516349,13.0,29.0,30.0,32.0,39.0,93.0,64.0,58.0,57.0,56.0,17.5,36.5,5.5,5.5,18.110770276274835,18.0,18.0,62.0,57.0,67.00746227100382
206,206,10.04987562112089,104.01922899156675,13.0,25.0,29.0,32.0624390837628,39.01281840626232,87.0,62.0,57.0,56.0,54.0,16.0,32.0,5.0,4.0,19.1049731745428,18.0,18.5,61.0,57.0,62.0
207,207,9.055385138137417,104.04326023342406,14.0,25.0,28.0178514522438,31.016124838541646,38.01315561749642,86.0,61.0,56.5,58.0,55.0,18.5,29.5,3.5,6.5,19.1049731745428,18.0,18.5,62.0,58.0,59.07622195096772
208,208,9.055385138137417,104.01922899156675,15.0,25.0,29.017236257093817,32.01562118716424,38.0,87.00574693662483,62.00806399170998,57.5,57.0,55.0,18.0,31.0,5.0,5.0,19.026297590440446,19.0,19.5,62.0,57.0,62.03224967708329
209,209,13.038404810405298,106.04244433244644,14.0,26.019223662515376,29.0,32.01562118716424,37.013511046643494,90.00555538409837,64.0,57.5,58.0,55.0,19.5,33.5,5.5,6.5,19.026297590440446,19.0,19.0,62.0,57.0,61.00819617067857
210,210,16.0312195418814,106.01886624558857,12.0,26.019223662515376,29.0,32.0,37.0,91.02197536858887,65.00769185258002,57.0,57.0,55.0,19.0,35.0,8.0,8.0,19.1049731745428,19.0,19.5,64.0,58.0,64.07027391856539
211,211,16.0312195418814,109.00458705944443,12.0,26.019223662515376,31.0,33.015148038438355,37.013511046643494,91.00549433962765,65.0,57.0,56.0,55.0,18.5,35.5,7.5,7.5,20.09975124224178,19.0,19.5,63.0,56.0,60.07495318350236
212,212,20.0,112.0,12.0,26.019223662515376,31.0,34.0,36.013886210738214,94.0,68.00735254367721,58.0,54.0,54.0,18.0,40.0,12.0,7.0,20.024984394500787,19.0,19.0,64.0,57.0,63.071388124885914
213,213,22.0,106.0,11.0,28.0,30.01666203960727,33.0,40.01249804748511,101.00495037373169,73.00684899377592,62.0,58.0,58.0,18.0,43.0,13.0,8.0,20.09975124224178,19.0,19.0,64.0,58.0,64.1248781675256
214,214,12.041594578792296,97.02061636580135,12.0,27.0,26.0,28.0178514522438,44.01136216933077,95.0,68.0,62.0,60.0,58.0,15.0,36.0,7.0,4.0,21.095023109728988,19.026297590440446,19.5,68.0,62.0,65.06919393998976
215,215,9.055385138137417,95.0,12.0,27.0,25.0,28.0,44.0,92.00543462209176,65.00769185258002,60.5,60.0,60.0,16.0,32.0,3.0,5.0,21.095023109728988,19.0,19.5,67.0,60.0,59.07622195096772
216,216,4.47213595499958,99.00505037623081,13.0,26.019223662515376,25.0,27.0,47.0,90.0499861188218,64.03124237432849,62.0,60.0,59.0,12.5,30.5,2.5,0.5,21.095023109728988,20.0,20.5,66.0,61.0,62.03224967708329
217,217,3.605551275463989,104.00480758118829,13.0,22.0,25.0,28.0,48.010415536631214,86.00581375697809,64.00781202322104,62.5,58.0,57.0,9.5,28.5,4.5,1.5,23.08679276123039,23.0,22.5,63.0,58.0,57.0350769263968
218,218,5.0990195135927845,110.01818031580054,15.0,25.0,28.0,31.0,43.01162633521314,88.0,63.0,60.5,55.0,57.0,13.0,32.0,4.0,0.0,22.090722034374522,21.0,21.0,63.0,60.0,58.008620049092706
219,219,10.04987562112089,112.04017136723775,14.0,29.017236257093817,29.017236257093817,33.015148038438355,39.01281840626232,92.00543462209176,63.0,58.0,52.0,55.0,14.5,38.5,7.5,1.5,20.09975124224178,19.0,19.5,62.0,54.0,54.037024344425184
220,220,14.0,115.00434774390054,13.0,31.0,33.0,36.0,39.01281840626232,97.0051545022222,66.007575322837,59.0,53.0,54.0,14.5,43.5,10.5,3.5,7.0710678118654755,7.0,7.0,45.0,41.0,44.0
221,221,19.0,117.00427342623003,12.0,27.018512172212592,33.0,36.0,39.0,97.0051545022222,70.0,60.5,52.0,53.0,13.5,44.5,14.5,3.5,6.082762530298219,5.0,5.5,45.0,41.0,42.01190307520001
222,222,16.0312195418814,117.0,13.0,27.0,33.0,35.0,39.0,95.00526301210897,68.00735254367721,60.0,52.0,52.0,13.0,43.0,13.0,2.0,9.0,9.0,8.5,50.0,45.0,46.010868281309364
223,223,14.142135623730951,118.0,12.0,27.0,33.0,36.013886210738214,39.01281840626232,92.04890004774636,65.06919393998976,58.0,52.0,52.0,13.0,40.0,10.0,3.0,11.045361017187261,10.04987562112089,10.5,50.0,44.0,50.039984012787215
224,224,15.132745950421556,118.01694793545543,12.0,27.0,33.015148038438355,36.0,39.01281840626232,93.04837451562494,66.06814663663572,58.5,53.0,51.0,13.0,41.0,12.0,3.0,13.038404810405298,14.0,14.0,56.0,53.0,56.0
225,225,18.027756377319946,121.01652779682617,12.0,28.0178514522438,33.0,36.0,40.049968789001575,98.08159868191383,70.06425622241343,61.0,53.0,51.0,12.0,46.0,15.0,2.0,17.029386365926403,16.0,16.0,60.0,60.0,60.0
226,226,21.02379604162864,122.0,12.041594578792296,31.0,34.0,37.0,41.012193308819754,105.04284840006957,74.06078584514209,63.5,55.0,55.0,14.0,50.0,17.0,3.0,18.027756377319946,17.0,17.0,64.0,60.0,66.06814663663572
227,227,25.019992006393608,122.00409829181969,14.0,31.0,34.0,38.0,41.012193308819754,111.01801655587259,80.02499609497022,67.5,55.0,56.0,14.5,55.5,21.5,2.5,17.029386365926403,17.0,17.0,66.0,61.0,67.00746227100382
228,228,29.068883707497267,121.00413216084813,13.0,30.0,35.014282800023196,38.0,40.0,112.01785571952357,82.02438661763951,67.5,54.0,55.0,14.5,57.5,23.5,3.5,18.027756377319946,17.029386365926403,17.0,68.0,62.0,69.02897942168927
229,229,32.01562118716424,121.0,11.0,28.0,35.014282800023196,39.0,41.012193308819754,112.01785571952357,84.02380615040002,68.0,55.0,55.0,14.0,57.0,26.0,5.0,18.110770276274835,18.0,18.0,68.0,61.0,72.02777242147643
230,230,25.019992006393608,119.0,11.0,31.016124838541646,34.0147027033899,38.0,40.0,107.01868995647442,76.00657866263946,63.5,56.0,56.0,16.0,51.0,17.0,6.0,19.1049731745428,17.0,17.5,69.0,61.0,72.02777242147643
231,231,20.024984394500787,114.00438588054409,12.0,29.0,33.015148038438355,35.014282800023196,39.01281840626232,100.0199980003999,71.02816342831905,61.0,56.0,55.0,16.5,44.5,12.5,5.5,19.1049731745428,18.0,18.0,66.0,58.0,66.06814663663572
232,232,19.026297590440446,108.00462953040486,11.0,28.0,30.01666203960727,33.015148038438355,38.0,96.00520819205592,68.00735254367721,58.5,55.0,54.0,16.5,41.5,10.5,6.5,18.027756377319946,18.0,18.0,65.0,58.0,66.03029607687671
233,233,16.0,106.00471687618433,13.0,30.0,30.01666203960727,34.0,36.013886210738214,95.00526301210897,65.00769185258002,57.0,55.0,56.0,19.5,39.5,6.5,7.5,18.110770276274835,18.0,18.0,63.0,59.0,60.03332407921454
234,234,21.0,105.00476179678711,12.0,29.0,31.0,35.0,36.0,98.0,69.0,58.5,56.0,57.0,20.5,41.5,9.5,9.5,19.1049731745428,18.0,18.0,67.0,57.0,64.1248781675256
235,235,16.0,101.00495037373169,14.0,30.0,29.017236257093817,32.01562118716424,37.0,97.0,67.0,59.0,58.0,59.0,21.5,38.5,5.5,8.5,19.1049731745428,18.0,18.0,67.0,56.0,63.12685640834652
236,236,5.0990195135927845,95.00526301210897,14.0,28.0,24.0,27.018512172212592,42.0,89.00561780022652,61.00819617067857,58.5,57.0,56.0,14.5,32.5,2.5,1.5,19.1049731745428,18.0,18.5,61.0,52.0,54.037024344425184
237,237,4.123105625617661,93.02150289046077,14.0,26.0,24.020824298928627,27.018512172212592,44.01136216933077,88.02272433866155,62.03224967708329,60.0,59.0,57.0,14.0,30.0,2.0,2.0,20.09975124224178,19.0,19.0,66.0,56.0,60.13318551349163
238,238,4.123105625617661,94.0,15.0,27.018512172212592,24.0,27.0,44.0,90.0222194794152,63.00793600809346,61.0,59.0,59.0,15.0,31.0,2.0,2.0,19.1049731745428,19.0,19.0,66.0,57.0,62.07253821135398
239,239,12.0,100.0,15.033296378372908,28.0178514522438,28.0178514522438,31.016124838541646,41.012193308819754,96.00520819205592,68.0,62.0,60.0,60.0,19.0,36.0,7.0,5.0,20.09975124224178,19.0,19.0,66.0,59.0,61.032778078668514
240,240,17.029386365926403,105.00476179678711,14.0,28.0178514522438,29.017236257093817,32.0,38.01315561749642,97.0051545022222,69.0,60.5,57.0,58.0,19.5,39.5,9.5,6.5,20.024984394500787,19.0,19.5,68.0,60.0,63.12685640834652
241,241,16.0312195418814,107.01868995647442,13.038404810405298,27.0,30.01666203960727,33.015148038438355,38.0,94.02127418834527,67.02984409947557,59.0,55.0,57.0,18.0,38.0,9.0,6.0,18.110770276274835,18.0,18.5,67.0,58.0,63.198101237299845
242,242,15.033296378372908,109.00458705944443,12.041594578792296,28.0178514522438,30.0,33.015148038438355,37.013511046643494,92.02173656261873,64.00781202322104,56.5,54.0,55.0,17.5,37.5,7.5,6.5,19.1049731745428,19.0,19.0,67.0,60.0,65.06919393998976
243,243,14.142135623730951,107.0,12.041594578792296,26.019223662515376,29.017236257093817,32.0624390837628,37.013511046643494,89.05054744357274,63.0317380372777,56.0,52.0,52.0,15.0,37.0,8.0,4.0,20.09975124224178,19.0,19.5,66.0,62.0,65.03076195155643
244,244,4.123105625617661,104.01922899156675,12.041594578792296,24.020824298928627,27.0,29.0,40.01249804748511,80.09993757800315,56.08029957123981,54.0,51.0,49.0,10.0,30.0,5.0,0.0,20.024984394500787,20.024984394500787,19.5,64.0,65.0,63.00793600809346
245,245,2.23606797749979,98.02040603874276,10.0,20.0,26.0,27.018512172212592,43.04648650006177,74.10802925459562,54.147945482723536,53.5,51.0,49.0,7.0,24.0,2.0,1.0,21.095023109728988,20.024984394500787,20.0,64.0,65.0,59.00847396772772
246,246,2.23606797749979,90.08884503644167,11.0,20.024984394500787,23.021728866442675,25.019992006393608,44.04543109109048,76.16429609731846,56.142675390472796,55.5,54.0,50.0,8.0,24.0,3.0,0.0,21.095023109728988,20.024984394500787,20.0,67.0,65.0,61.00819617067857
247,247,1.4142135623730951,90.08884503644167,11.0,23.021728866442675,24.020824298928627,26.076809620810597,45.044422518220834,80.09993757800315,57.07889277132134,56.5,54.0,50.0,7.0,28.0,4.0,1.0,21.095023109728988,21.095023109728988,20.5,68.0,67.0,63.00793600809346
248,248,3.1622776601683795,92.13576938409967,13.038404810405298,26.019223662515376,24.08318915758459,26.019223662515376,44.04543109109048,86.14522621712709,60.13318551349163,58.5,56.0,51.0,9.5,32.5,5.5,0.5,21.095023109728988,19.026297590440446,19.5,65.0,64.0,61.032778078668514
249,249,14.142135623730951,93.1933474020544,12.041594578792296,28.071337695236398,27.073972741361768,30.01666203960727,41.048751503547585,95.25754563287887,67.1863081289633,60.0,58.0,52.0,14.0,40.0,10.0,5.0,20.09975124224178,20.024984394500787,19.5,66.0,64.0,64.03124237432849
250,250,14.142135623730951,97.25224933131366,13.038404810405298,31.016124838541646,29.068883707497267,31.016124838541646,38.05259518088089,96.18731725128839,65.19202405202648,58.0,58.0,51.0,16.5,41.5,9.5,5.5,21.095023109728988,19.026297590440446,19.5,65.0,64.0,63.0317380372777
251,251,15.033296378372908,96.18731725128839,12.041594578792296,28.0178514522438,28.071337695236398,31.064449134018133,39.05124837953327,94.13288479590966,66.12110101926616,58.5,57.0,51.0,15.0,40.0,10.0,5.0,21.095023109728988,19.026297590440446,19.5,63.0,63.0,62.03224967708329
252,252,10.198039027185569,97.12878049270464,13.0,29.0,28.0178514522438,30.01666203960727,40.049968789001575,92.0869154657707,63.12685640834652,58.0,55.0,50.0,12.5,39.5,8.5,1.5,21.095023109728988,20.024984394500787,20.0,66.0,61.0,62.00806399170998
253,253,9.055385138137417,97.082439194738,13.038404810405298,30.01666203960727,27.018512172212592,30.066592756745816,37.05401462729781,89.1403387922662,59.135437767890075,54.5,53.0,49.0,14.0,38.0,7.0,3.0,21.095023109728988,19.026297590440446,19.5,66.0,60.0,62.03224967708329
254,254,10.04987562112089,95.08417323613851,15.033296378372908,32.01562118716424,27.073972741361768,30.066592756745816,38.05259518088089,95.13148795220224,63.12685640834652,58.0,57.0,53.0,17.0,40.0,6.0,5.0,22.090722034374522,21.0,20.5,70.0,60.0,64.19501538281614
255,255,26.076809620810597,92.04890004774636,14.0,32.0,27.018512172212592,31.016124838541646,40.01249804748511,112.04017136723775,80.05623023850174,67.0,64.0,61.0,22.5,49.5,15.5,9.5,22.090722034374522,20.0,20.5,70.0,60.0,64.28063471995279
256,256,36.013886210738214,96.08329719571451,14.0,29.017236257093817,27.018512172212592,31.064449134018133,40.0,119.01680553602503,90.00555538409837,72.0,66.0,62.0,24.0,55.0,24.0,12.0,22.090722034374522,21.0,21.5,66.0,62.0,61.07372593840988
257,257,32.01562118716424,103.04368005850722,14.0,30.01666203960727,29.017236257093817,33.015148038438355,38.01315561749642,114.03946685248927,84.02380615040002,68.0,61.0,58.0,21.5,54.5,21.5,9.5,23.08679276123039,21.02379604162864,21.5,66.0,63.0,61.032778078668514
258,258,22.02271554554524,108.04165863221463,13.038404810405298,31.016124838541646,30.01666203960727,33.06055050963308,39.0,105.04284840006957,74.02702209328699,63.0,56.0,53.0,15.5,50.5,17.5,4.5,22.02271554554524,20.024984394500787,20.0,66.0,61.0,66.06814663663572
259,259,18.027756377319946,114.0175425099138,11.045361017187261,31.016124838541646,32.0,35.014282800023196,38.0,98.04590761474952,67.02984409947557,58.0,52.0,50.0,13.0,47.0,14.0,3.0,21.095023109728988,20.024984394500787,20.0,67.0,60.0,65.12296062065974
260,260,24.020824298928627,117.06835610018618,12.041594578792296,29.0,32.01562118716424,36.013886210738214,37.013511046643494,102.04410811016969,73.06161783043132,61.0,52.0,48.0,13.0,52.0,21.0,4.0,21.095023109728988,20.024984394500787,20.0,66.0,61.0,69.06518659932803
261,261,28.0178514522438,116.06894502837527,12.041594578792296,28.0178514522438,32.01562118716424,36.05551275463989,36.013886210738214,104.0768946500615,76.05918747922567,62.0,53.0,49.0,15.0,53.0,23.0,5.0,21.02379604162864,20.0,20.5,65.0,60.0,67.06713054842886
262,262,28.0178514522438,116.06894502837527,12.041594578792296,27.073972741361768,32.01562118716424,35.05709628591621,37.05401462729781,104.17293314484334,77.10382610480494,63.0,54.0,50.0,15.0,52.0,22.0,5.0,21.02379604162864,19.0,19.5,65.0,61.0,69.18092222571191
263,263,7.280109889280518,112.11155159036913,13.038404810405298,25.019992006393608,29.017236257093817,31.064449134018133,46.17358552246078,91.35097153287424,66.37017402418047,62.5,56.0,51.0,7.5,37.5,10.5,3.5,22.090722034374522,19.1049731745428,20.0,64.0,63.0,64.00781202322104
264,264,2.23606797749979,110.07270324653611,13.0,19.026297590440446,27.073972741361768,29.068883707497267,48.16637831516918,81.30190649671138,62.289646009589745,61.5,54.0,50.0,4.0,29.0,8.0,6.0,21.095023109728988,19.026297590440446,19.5,64.0,60.0,65.06919393998976
265,265,2.23606797749979,109.07336980216573,15.0,24.020824298928627,28.071337695236398,30.066592756745816,46.09772228646444,87.14355971613737,63.12685640834652,62.0,56.0,52.0,8.0,33.0,8.0,4.0,20.09975124224178,19.026297590440446,19.5,64.0,58.0,67.06713054842886
266,266,11.40175425099138,109.04127658827184,15.0,28.0,29.068883707497267,32.0624390837628,44.04543109109048,98.12746812182611,70.178344238091,64.5,58.0,55.0,12.5,41.5,12.5,0.5,21.095023109728988,18.0,19.0,67.0,59.0,71.11258679024411
267,267,12.165525060596439,108.04165863221463,13.0,28.0,29.068883707497267,31.064449134018133,45.044422518220834,98.08159868191383,70.11419257183242,64.0,58.0,55.0,11.5,41.5,11.5,0.5,21.02379604162864,18.027756377319946,18.5,66.0,58.0,67.06713054842886
268,268,7.0710678118654755,107.0420478129973,13.0,25.0,28.0178514522438,30.01666203960727,44.10215414239989,89.08984229416954,64.1248781675256,60.5,56.0,53.0,10.5,34.5,8.5,0.5,21.095023109728988,19.0,19.5,65.0,57.0,64.07027391856539
269,269,11.045361017187261,108.04165863221463,15.0,26.0,30.0,33.015148038438355,40.049968789001575,92.04890004774636,66.06814663663572,60.5,56.0,53.0,14.5,37.5,9.5,1.5,20.09975124224178,18.0,18.5,65.0,59.0,65.12296062065974
270,270,16.0312195418814,109.01834707974616,14.0,30.0,31.0,34.0,39.01281840626232,99.02019995940222,69.02897942168927,61.0,56.0,54.0,16.0,44.0,12.0,3.0,20.09975124224178,19.026297590440446,19.5,66.0,57.0,66.12110101926616
271,271,17.0,111.01801655587259,14.035668847618199,31.016124838541646,30.0,33.015148038438355,37.05401462729781,99.08077512817509,68.06614430096654,59.5,56.0,54.0,18.0,44.0,11.0,5.0,20.09975124224178,19.026297590440446,19.5,62.0,59.0,62.00806399170998
272,272,13.038404810405298,109.01834707974616,12.041594578792296,27.018512172212592,30.01666203960727,32.0,40.01249804748511,92.0869154657707,65.06919393998976,58.5,55.0,53.0,14.0,38.0,9.0,4.0,21.095023109728988,20.024984394500787,20.0,63.0,57.0,62.03224967708329
273,273,10.04987562112089,108.01851693112621,12.0,24.020824298928627,30.01666203960727,33.0,39.01281840626232,85.05292469985967,61.032778078668514,56.0,53.0,51.0,13.0,33.0,7.0,3.0,20.09975124224178,19.0,19.5,64.0,57.0,60.03332407921454
274,274,1.0,108.00462953040486,13.0,23.021728866442675,29.0,30.0,39.05124837953327,76.05918747922567,53.03772242470448,52.5,51.0,50.0,11.5,25.5,0.5,0.5,20.09975124224178,19.0,19.5,65.0,58.0,60.03332407921454
275,275,2.23606797749979,107.07474025184464,12.0,20.024984394500787,29.017236257093817,31.016124838541646,38.05259518088089,71.17583859709698,51.15662224971465,50.5,51.0,47.0,11.0,22.0,0.0,1.0,10.04987562112089,10.04987562112089,10.0,64.0,58.0,58.034472514187634
276,276,2.23606797749979,106.07544484940895,12.0,22.02271554554524,29.017236257093817,31.064449134018133,38.01315561749642,73.10950690573696,51.088159097779204,50.5,50.0,46.0,10.0,25.0,2.0,0.0,7.0710678118654755,8.06225774829855,7.5,66.0,60.0,57.07889277132134
277,277,1.4142135623730951,105.07616285342742,12.0,22.0,30.01666203960727,31.064449134018133,38.05259518088089,73.06161783043132,51.088159097779204,50.5,50.0,46.0,10.0,25.0,1.0,1.0,11.045361017187261,11.045361017187261,11.0,60.0,59.0,56.00892785976178
278,278,7.0710678118654755,103.01941564578979,11.0,24.0,30.0,31.016124838541646,36.013886210738214,78.02563681252464,54.037024344425184,50.5,48.0,46.0,11.0,31.0,5.0,2.0,13.038404810405298,13.0,13.0,64.0,58.0,61.032778078668514
279,279,10.04987562112089,99.04544411531506,12.0,27.0,28.0,30.0,35.05709628591621,84.0535543567314,57.07889277132134,52.0,52.0,49.0,15.5,33.5,4.5,4.5,16.1245154965971,14.0,14.5,65.0,57.0,63.071388124885914
280,280,1.4142135623730951,102.12247548899312,13.038404810405298,24.020824298928627,28.0178514522438,30.066592756745816,42.04759208325728,80.15609770940699,56.142675390472796,55.5,54.0,49.0,9.5,28.5,3.5,1.5,17.029386365926403,16.0312195418814,16.0,63.0,58.0,59.07622195096772
281,281,3.1622776601683795,98.12746812182611,11.0,20.024984394500787,26.019223662515376,27.16615541441225,43.104524124504614,77.1621668954417,57.14017850864661,55.5,54.0,49.0,8.5,25.5,4.5,0.5,18.027756377319946,16.0312195418814,16.0,63.0,58.0,56.08029957123981
282,282,2.23606797749979,97.18538984847466,12.041594578792296,23.021728866442675,25.019992006393608,26.019223662515376,42.04759208325728,79.1580697086532,56.142675390472796,55.0,54.0,48.0,9.0,28.0,3.0,1.0,18.027756377319946,17.0,17.0,64.0,59.0,60.07495318350236
283,283,3.605551275463989,98.18350166906862,12.041594578792296,25.019992006393608,27.073972741361768,29.017236257093817,43.01162633521314,83.15046602394962,58.137767414994535,56.5,55.0,49.0,9.0,31.0,5.0,0.0,19.1049731745428,18.027756377319946,18.5,63.0,60.0,58.034472514187634
284,284,3.605551275463989,98.2496819333274,13.0,25.019992006393608,26.076809620810597,28.0178514522438,43.04648650006177,84.1486779456457,59.135437767890075,57.5,56.0,49.0,9.5,31.5,5.5,0.5,20.024984394500787,19.026297590440446,19.0,61.0,62.0,56.0
285,285,7.280109889280518,100.31948963187563,13.038404810405298,26.076809620810597,27.073972741361768,30.066592756745816,41.012193308819754,87.20665112249179,61.1310068623117,57.5,57.0,49.0,12.0,34.0,6.0,1.0,20.024984394500787,19.1049731745428,19.0,55.0,62.0,52.08646657242167
286,286,13.152946437965905,110.11357772772621,14.035668847618199,29.017236257093817,30.01666203960727,33.0,36.013886210738214,92.13576938409967,63.12685640834652,56.5,54.0,49.0,15.5,40.5,10.5,3.5,20.09975124224178,19.1049731745428,19.0,59.0,61.0,55.00909015790027
287,287,14.035668847618199,112.11155159036913,14.035668847618199,29.068883707497267,32.01562118716424,35.014282800023196,35.05709628591621,92.19544457292888,63.12685640834652,56.0,53.0,48.0,15.5,41.5,11.5,3.5,20.024984394500787,18.027756377319946,18.0,61.0,58.0,60.03332407921454
288,288,22.090722034374522,115.15641536623133,12.0,29.017236257093817,33.06055050963308,35.05709628591621,36.124783736376884,99.18165152889924,70.178344238091,59.0,53.0,47.0,14.0,49.0,18.0,4.0,20.024984394500787,19.1049731745428,18.5,57.0,59.0,58.0
289,289,28.0178514522438,114.28035701729323,12.041594578792296,29.017236257093817,33.06055050963308,37.12142238654117,37.05401462729781,106.1178590059185,77.10382610480494,63.0,55.0,47.0,14.0,55.0,25.0,5.0,19.026297590440446,17.11724276862369,17.5,62.0,59.0,62.0
290,290,36.013886210738214,114.28035701729323,11.0,29.017236257093817,32.0624390837628,36.124783736376884,36.124783736376884,112.11155159036913,83.09632964216891,65.0,56.0,48.0,16.0,60.0,29.0,7.0,19.0,18.027756377319946,17.5,63.0,60.0,61.00819617067857
291,291,38.05259518088089,111.22050170719426,10.04987562112089,29.017236257093817,31.064449134018133,35.05709628591621,36.124783736376884,113.21660655575224,84.2140130857092,65.0,56.0,49.0,16.5,60.5,29.5,9.5,19.026297590440446,18.027756377319946,18.0,61.0,57.0,60.03332407921454
292,292,22.20360331117452,106.30145812734649,11.045361017187261,26.019223662515376,28.071337695236398,31.064449134018133,38.118237105091836,97.32933781753577,71.34423592694787,60.0,55.0,47.0,13.0,46.0,18.0,4.0,19.026297590440446,18.027756377319946,18.0,60.0,57.0,57.0087712549569
293,293,2.23606797749979,103.31021246711285,14.0,22.090722034374522,26.1725046566048,27.16615541441225,43.104524124504614,78.31347265956222,56.22277118748239,56.5,54.0,46.0,7.0,28.0,5.0,3.0,20.09975124224178,18.110770276274835,18.0,59.0,55.0,58.077534382926416
294,294,2.8284271247461903,104.23531071570709,13.038404810405298,23.08679276123039,26.1725046566048,28.160255680657446,44.04543109109048,82.29823813423954,59.21148537234985,58.0,55.0,48.0,7.5,30.5,6.5,2.5,21.095023109728988,19.1049731745428,19.0,59.0,59.0,56.00892785976178
295,295,6.324555320336759,100.31948963187563,13.038404810405298,25.019992006393608,27.16615541441225,29.154759474226502,43.104524124504614,87.28115489611719,62.289646009589745,59.0,57.0,49.0,10.0,34.0,8.0,1.0,18.027756377319946,16.0312195418814,16.5,64.0,56.0,66.18912297349165
296,296,9.055385138137417,100.40418317978589,11.045361017187261,25.019992006393608,25.179356624028344,27.294688127912362,44.28317965096906,89.35882720806042,64.38167441127949,59.5,57.0,48.0,8.5,36.5,10.5,0.5,20.024984394500787,17.029386365926403,17.5,61.0,60.0,57.0087712549569
297,297,8.06225774829855,99.60923651951158,12.041594578792296,26.076809620810597,26.1725046566048,29.274562336608895,43.41658669218482,89.56003573022959,63.50590523722971,59.0,59.0,48.0,10.5,35.5,8.5,1.5,18.027756377319946,15.033296378372908,15.5,63.0,57.0,59.07622195096772
298,298,9.055385138137417,96.62815324738438,12.0,26.076809620810597,26.30589287593181,29.274562336608895,43.41658669218482,90.44888059008801,64.38167441127949,59.5,61.0,50.0,12.5,34.5,7.5,3.5,20.09975124224178,17.11724276862369,17.0,63.0,57.0,62.12889826803627
299,299,12.041594578792296,97.41663102366043,12.0,26.076809620810597,26.1725046566048,29.154759474226502,42.2965719651132,92.34717104492157,66.27216610312357,60.0,60.0,51.0,13.5,36.5,9.5,4.5,21.02379604162864,19.026297590440446,19.0,61.0,61.0,55.036351623268054
300,300,13.038404810405298,96.51942809610924,13.0,28.0178514522438,25.079872407968907,28.284271247461902,41.30375285612676,95.25754563287887,67.26812023536856,60.5,61.0,51.0,15.0,39.0,11.0,4.0,19.1049731745428,17.029386365926403,17.0,63.0,60.0,55.08175741568164
301,301,9.0,93.34345183246653,13.0,28.0178514522438,25.179356624028344,28.284271247461902,43.41658669218482,93.26306878931231,65.27633568147036,60.5,60.0,52.0,13.0,37.0,9.0,3.0,19.026297590440446,17.029386365926403,17.0,63.0,60.0,57.0087712549569
302,302,6.082762530298219,94.19129471453293,13.0,28.0178514522438,24.08318915758459,26.1725046566048,46.2709412050371,93.26306878931231,65.27633568147036,62.0,60.0,54.0,11.0,36.0,7.0,1.0,19.1049731745428,18.027756377319946,18.0,65.0,59.0,59.07622195096772
303,303,14.035668847618199,95.13148795220224,13.038404810405298,26.019223662515376,25.079872407968907,27.073972741361768,46.09772228646444,99.18165152889924,73.17103251970687,66.0,62.0,57.0,13.5,39.5,11.5,2.5,20.09975124224178,18.027756377319946,17.5,62.0,57.0,51.03920062069938
304,304,25.019992006393608,101.1236866416568,14.0,27.018512172212592,27.018512172212592,30.066592756745816,44.10215414239989,110.11357772772621,83.09632964216891,70.5,64.0,59.0,17.5,48.5,20.5,5.5,18.027756377319946,18.027756377319946,18.0,64.0,58.0,60.07495318350236
305,305,31.064449134018133,107.11675872616759,14.035668847618199,27.018512172212592,29.068883707497267,33.06055050963308,41.048751503547585,113.1591799192624,86.14522621712709,70.5,62.0,57.0,18.5,53.5,24.5,6.5,20.024984394500787,18.027756377319946,18.0,63.0,59.0,60.03332407921454
306,306,29.017236257093817,112.0714058089752,13.038404810405298,28.0178514522438,30.01666203960727,34.058772731852805,40.049968789001575,110.11357772772621,82.09750300709517,67.5,58.0,54.0,16.0,54.0,24.0,5.0,19.026297590440446,18.110770276274835,18.0,63.0,60.0,58.077534382926416
307,307,21.02379604162864,114.0701538527936,11.045361017187261,27.018512172212592,32.0624390837628,34.0147027033899,38.05259518088089,97.12878049270464,70.11419257183242,59.5,53.0,49.0,13.0,46.0,18.0,4.0,19.026297590440446,18.027756377319946,18.0,62.0,59.0,62.0
308,308,14.035668847618199,117.06835610018618,11.0,27.018512172212592,32.0,34.0147027033899,38.118237105091836,90.13878188659973,63.12685640834652,56.0,50.0,46.0,10.0,42.0,12.0,1.0,19.026297590440446,17.029386365926403,17.0,62.0,60.0,62.00806399170998
309,309,15.132745950421556,117.10678887237921,11.0,27.0,31.016124838541646,35.05709628591621,37.12142238654117,90.13878188659973,63.198101237299845,55.5,50.0,45.0,10.5,42.5,13.5,1.5,19.026297590440446,18.027756377319946,18.0,62.0,59.0,62.00806399170998
310,310,8.06225774829855,113.11056537742175,13.0,28.0178514522438,29.017236257093817,32.01562118716424,40.19950248448356,89.20201791439474,61.204574992397426,57.0,52.0,47.0,9.5,39.5,9.5,1.5,20.09975124224178,19.1049731745428,19.0,63.0,61.0,62.03224967708329
311,311,2.23606797749979,110.07270324653611,12.0,22.02271554554524,28.0178514522438,30.066592756745816,46.17358552246078,82.21921916437786,60.207972893961475,59.0,52.0,48.0,4.0,32.0,8.0,5.0,20.09975124224178,18.027756377319946,18.5,61.0,60.0,61.032778078668514
312,312,3.1622776601683795,112.04017136723775,12.0,22.02271554554524,28.0178514522438,30.066592756745816,45.09988913511872,82.15229759416349,60.13318551349163,58.5,51.0,48.0,4.5,32.5,8.5,4.5,18.110770276274835,17.029386365926403,17.5,62.0,59.0,58.034472514187634
313,313,5.0990195135927845,114.00438588054409,12.041594578792296,24.0,31.0,32.01562118716424,44.01136216933077,85.05292469985967,61.07372593840988,58.5,48.0,47.0,3.5,37.5,11.5,6.5,19.1049731745428,17.029386365926403,17.5,62.0,61.0,62.03224967708329
314,314,9.219544457292887,116.00431026474836,11.0,25.0,32.0,35.0,42.04759208325728,87.09190547921202,62.12889826803627,57.5,48.0,47.0,5.5,39.5,11.5,3.5,18.110770276274835,16.0312195418814,16.5,62.0,59.0,65.00769185258002
315,315,10.04987562112089,119.00420160649792,11.0,26.0,31.0,34.0147027033899,41.012193308819754,88.02272433866155,62.03224967708329,57.0,46.0,47.0,5.5,41.5,12.5,3.5,17.11724276862369,15.0,15.5,62.0,60.0,66.03029607687671
316,316,10.198039027185569,121.01652779682617,11.045361017187261,26.0,33.0,36.0,39.01281840626232,86.02325267042627,60.03332407921454,55.0,44.0,46.0,6.0,41.0,12.0,3.0,17.11724276862369,16.0312195418814,16.0,62.0,59.0,65.03076195155643
317,317,10.0,121.00413216084813,11.0,27.0,31.0,34.0147027033899,39.01281840626232,87.00574693662483,60.00833275470999,55.0,43.0,44.0,4.5,43.5,13.5,4.5,17.11724276862369,17.029386365926403,17.0,62.0,59.0,64.03124237432849
318,318,11.180339887498949,121.01652779682617,11.0,26.019223662515376,33.0,35.014282800023196,39.0,87.00574693662483,61.032778078668514,55.5,43.0,45.0,5.0,43.0,13.0,4.0,17.029386365926403,16.0,16.5,60.0,57.0,66.03029607687671
319,319,11.045361017187261,122.01639234135715,11.0,27.018512172212592,32.01562118716424,34.0147027033899,38.01315561749642,87.00574693662483,60.03332407921454,54.5,41.0,43.0,4.0,45.0,15.0,5.0,17.11724276862369,16.0,16.5,61.0,57.0,64.03124237432849
320,320,12.041594578792296,121.00413216084813,10.0,26.0,31.0,35.014282800023196,38.01315561749642,86.02325267042627,60.03332407921454,54.0,40.0,41.0,2.5,45.5,16.5,5.5,17.11724276862369,16.0,16.5,61.0,56.0,64.07027391856539
321,321,11.0,123.01625908797584,11.0,26.0,32.0,34.0,37.013511046643494,85.00588214941364,59.00847396772772,53.5,39.0,41.0,3.0,45.0,17.0,5.0,18.027756377319946,17.0,16.5,61.0,58.0,64.00781202322104
322,322,4.123105625617661,125.0,11.0,26.0,31.0,33.0,38.01315561749642,79.02531240052139,53.03772242470448,51.0,39.0,39.0,1.0,40.0,12.0,8.0,18.027756377319946,17.0,17.5,59.0,58.0,63.00793600809346
323,323,1.4142135623730951,126.0,11.0,22.0,30.01666203960727,32.01562118716424,39.01281840626232,73.02739212103907,51.03920062069938,50.5,37.0,37.0,2.0,36.0,12.0,10.0,18.027756377319946,17.029386365926403,17.5,60.0,59.0,60.00833275470999
324,324,0.0,130.0,11.0,20.024984394500787,31.0,33.015148038438355,39.01281840626232,70.02856560004639,50.00999900019995,50.0,36.0,36.0,3.0,34.0,12.0,12.0,19.026297590440446,17.11724276862369,17.5,59.0,58.0,58.008620049092706
325,325,0.0,128.0,12.041594578792296,23.021728866442675,31.016124838541646,33.015148038438355,40.0,75.02666192761077,52.009614495783374,52.0,37.0,37.0,3.0,38.0,13.0,12.0,17.029386365926403,17.029386365926403,17.5,59.0,58.0,62.00806399170998
326,326,11.045361017187261,127.00393694685216,12.0,25.0,32.01562118716424,34.0,38.0,86.00581375697809,61.00819617067857,55.5,41.0,40.0,2.5,45.5,17.5,6.5,17.029386365926403,17.11724276862369,17.0,58.0,57.0,58.0
327,327,20.0,130.00384609695206,11.045361017187261,26.019223662515376,35.0,38.0,38.01315561749642,95.04735661763561,69.02897942168927,59.0,43.0,42.0,4.5,52.5,23.5,4.5,17.029386365926403,17.029386365926403,17.0,48.0,48.0,52.03844732503075
328,328,24.08318915758459,128.01562404644207,11.0,25.0,34.0,37.0,39.01281840626232,99.04544411531506,74.06078584514209,62.0,45.0,43.0,5.0,55.0,27.0,4.0,17.029386365926403,17.029386365926403,17.0,57.0,57.0,62.00806399170998
329,329,25.019992006393608,128.03515142334936,10.0,26.019223662515376,34.0,38.01315561749642,39.01281840626232,100.04498987955368,74.02702209328699,61.5,47.0,44.0,6.5,54.5,25.5,1.5,16.0312195418814,16.0312195418814,16.5,57.0,59.0,64.00781202322104
330,330,27.073972741361768,126.03570922560003,11.0,25.019992006393608,34.0,37.0,38.05259518088089,101.1236866416568,76.10519036176179,62.5,48.0,45.0,8.5,54.5,26.5,0.5,17.029386365926403,16.0312195418814,16.5,56.0,60.0,64.0
331,331,26.019223662515376,125.06398362438324,11.045361017187261,26.019223662515376,34.0147027033899,36.013886210738214,38.05259518088089,101.1236866416568,75.1065909225016,62.0,49.0,45.0,9.0,54.0,26.0,1.0,16.0312195418814,16.0312195418814,16.5,56.0,60.0,63.00793600809346
332,332,25.019992006393608,124.06449935416659,11.0,26.019223662515376,33.0,36.013886210738214,37.05401462729781,99.08077512817509,73.06161783043132,60.5,48.0,44.0,9.0,53.0,24.0,0.0,16.0,16.0312195418814,16.0,55.0,58.0,60.0
333,333,22.02271554554524,122.06555615733703,12.041594578792296,26.019223662515376,33.015148038438355,35.014282800023196,38.05259518088089,98.12746812182611,72.11102550927978,61.0,50.0,46.0,10.0,50.0,21.0,1.0,15.033296378372908,15.033296378372908,15.0,54.0,58.0,64.00781202322104
334,334,24.020824298928627,122.06555615733703,11.0,27.018512172212592,33.0,36.013886210738214,38.05259518088089,100.07996802557443,73.06161783043132,61.0,51.0,47.0,11.0,51.0,22.0,1.0,16.0312195418814,16.1245154965971,16.0,41.0,54.0,56.142675390472796
335,335,24.0,122.06555615733703,12.041594578792296,28.071337695236398,34.0147027033899,37.013511046643494,37.05401462729781,101.1236866416568,73.06161783043132,61.0,52.0,48.0,13.0,51.0,20.0,3.0,16.0,15.132745950421556,15.5,53.0,57.0,61.032778078668514
336,336,26.019223662515376,122.10241602851272,12.041594578792296,26.019223662515376,33.0,37.013511046643494,37.05401462729781,101.1236866416568,75.1065909225016,62.0,53.0,48.0,13.5,50.5,22.5,3.5,17.029386365926403,16.0312195418814,16.5,54.0,58.0,63.0
337,337,21.02379604162864,121.10326172320876,11.045361017187261,25.019992006393608,32.01562118716424,35.014282800023196,38.05259518088089,95.13148795220224,70.11419257183242,59.5,52.0,47.0,11.5,45.5,18.5,2.5,17.029386365926403,17.029386365926403,16.5,56.0,60.0,63.00793600809346
338,338,20.024984394500787,118.15244390193544,13.038404810405298,27.018512172212592,31.016124838541646,35.12833614050059,36.05551275463989,96.13012014972206,69.1158447825099,59.0,52.0,46.0,13.0,47.0,19.0,2.0,16.0312195418814,15.033296378372908,15.5,55.0,59.0,64.00781202322104
339,339,22.090722034374522,120.26637102698326,12.041594578792296,25.079872407968907,33.06055050963308,35.12833614050059,36.05551275463989,95.25754563287887,70.178344238091,59.0,53.0,45.0,13.0,46.0,19.0,4.0,16.0312195418814,16.0312195418814,16.0,56.0,61.0,66.0
340,340,22.02271554554524,121.2023102090055,12.041594578792296,25.079872407968907,33.06055050963308,36.124783736376884,37.05401462729781,96.18731725128839,71.11258679024411,60.0,53.0,46.0,12.5,46.5,19.5,2.5,18.027756377319946,17.11724276862369,17.0,57.0,60.0,65.00769185258002
341,341,20.09975124224178,120.20399327809372,12.041594578792296,27.018512172212592,33.06055050963308,35.12833614050059,37.05401462729781,96.18731725128839,69.18092222571191,59.0,52.0,45.0,11.5,47.5,18.5,2.5,17.029386365926403,16.0312195418814,16.5,56.0,59.0,59.00847396772772
342,342,20.024984394500787,117.2092146548214,14.035668847618199,30.066592756745816,34.0147027033899,37.013511046643494,36.013886210738214,100.12492197250393,70.06425622241343,60.0,54.0,47.0,14.5,49.5,16.5,2.5,16.0312195418814,16.0312195418814,16.0,57.0,59.0,62.00806399170998
343,343,20.024984394500787,114.21471008587291,14.035668847618199,32.01562118716424,32.01562118716424,37.013511046643494,35.014282800023196,101.07917688624102,69.06518659932803,59.0,55.0,48.0,16.5,49.5,15.5,4.5,17.0,16.0312195418814,16.5,60.0,61.0,66.0
344,344,17.11724276862369,112.21853679316978,12.0,32.01562118716424,33.015148038438355,37.05401462729781,36.013886210738214,97.082439194738,65.06919393998976,56.5,54.0,47.0,14.5,46.5,12.5,4.5,18.027756377319946,15.033296378372908,15.5,60.0,62.0,63.0317380372777
345,345,12.36931687685298,111.28791488746656,12.041594578792296,30.01666203960727,33.06055050963308,36.05551275463989,37.0,91.13725912051558,61.1310068623117,55.0,52.0,44.0,11.0,43.0,11.0,2.0,18.027756377319946,17.029386365926403,17.5,59.0,61.0,66.03029607687671
346,346,2.8284271247461903,109.22453936730518,12.0,25.019992006393608,30.01666203960727,32.0624390837628,41.048751503547585,80.15609770940699,55.14526271584895,54.0,50.0,43.0,5.5,33.5,6.5,3.5,18.027756377319946,17.029386365926403,17.5,61.0,60.0,60.03332407921454
347,347,3.605551275463989,107.16809226630845,14.035668847618199,26.019223662515376,30.066592756745816,32.0624390837628,41.0,84.09518416651456,58.077534382926416,56.5,52.0,46.0,8.0,35.0,7.0,3.0,18.110770276274835,17.029386365926403,17.0,61.0,60.0,60.07495318350236
348,348,8.54400374531753,107.11675872616759,15.0,28.0178514522438,32.0624390837628,34.0147027033899,41.012193308819754,92.04890004774636,64.03124237432849,60.0,54.0,49.0,10.5,40.5,10.5,1.5,18.110770276274835,17.0,17.0,61.0,59.0,66.03029607687671
349,349,17.11724276862369,107.07474025184464,13.038404810405298,27.0,32.01562118716424,35.014282800023196,40.01249804748511,97.02061636580135,70.02856560004639,61.5,55.0,51.0,13.0,44.0,15.0,3.0,18.110770276274835,17.0,17.0,61.0,58.0,67.02984409947557
350,350,15.033296378372908,104.04326023342406,13.0,30.0,30.01666203960727,33.015148038438355,39.0,97.0051545022222,67.00746227100382,59.5,56.0,53.0,15.5,42.5,10.5,4.5,19.1049731745428,18.0,17.5,64.0,59.0,66.12110101926616
351,351,14.035668847618199,100.07996802557443,12.041594578792296,28.0,29.0,31.016124838541646,41.0,95.02105029939419,67.02984409947557,60.0,58.0,54.0,15.0,39.0,9.0,4.0,18.110770276274835,18.0,18.0,63.0,56.0,62.07253821135398
352,352,23.021728866442675,99.04544411531506,13.0,30.0,28.0,32.0,38.0,104.00480758118829,74.00675644831355,62.5,60.0,57.0,20.5,45.5,13.5,8.5,18.110770276274835,18.0,17.5,65.0,58.0,61.1310068623117
353,353,19.026297590440446,100.00499987500625,16.0,31.016124838541646,28.0,31.016124838541646,42.0,108.01851693112621,77.00649323271382,67.5,62.0,61.0,19.5,46.5,12.5,4.5,18.110770276274835,18.0,18.0,63.0,57.0,60.13318551349163
354,354,5.385164807134504,103.01941564578979,14.035668847618199,23.0,27.018512172212592,29.017236257093817,48.010415536631214,90.0222194794152,67.02984409947557,64.5,59.0,57.0,10.0,32.0,6.0,2.0,18.110770276274835,17.0,18.0,63.0,56.0,60.13318551349163
355,355,5.0990195135927845,106.01886624558857,15.033296378372908,26.019223662515376,27.018512172212592,31.016124838541646,45.0111097397076,91.02197536858887,65.00769185258002,62.5,58.0,56.0,12.0,34.0,6.0,1.0,19.1049731745428,18.027756377319946,18.5,63.0,58.0,60.03332407921454
356,356,9.219544457292887,108.01851693112621,16.0,28.0,29.0,32.0,42.0,95.02105029939419,67.02984409947557,62.5,58.0,56.0,15.0,38.0,8.0,1.0,18.110770276274835,18.0,18.0,63.0,58.0,58.034472514187634
357,357,10.04987562112089,107.01868995647442,14.0,28.0,30.0,33.0,39.0,91.00549433962765,63.00793600809346,58.0,56.0,54.0,16.0,36.0,6.0,3.0,19.026297590440446,18.0,18.0,62.0,57.0,60.00833275470999
358,358,11.045361017187261,105.01904589168576,13.038404810405298,29.0,30.0,33.015148038438355,38.0,91.02197536858887,62.03224967708329,56.5,55.0,53.0,16.0,37.0,6.0,4.0,18.027756377319946,18.0,18.0,61.0,58.0,61.0
359,359,15.132745950421556,103.04368005850722,13.0,29.0,29.0,32.01562118716424,38.01315561749642,95.04735661763561,66.06814663663572,58.5,58.0,55.0,18.5,38.5,7.5,6.5,19.026297590440446,18.027756377319946,18.0,61.0,58.0,62.00806399170998
360,360,26.076809620810597,99.04544411531506,14.0,29.017236257093817,28.0,32.0,37.0,106.04244433244644,77.02596964660685,64.0,61.0,58.0,22.5,46.5,14.5,9.5,18.027756377319946,18.027756377319946,18.0,59.0,58.0,62.00806399170998
361,361,31.016124838541646,102.0196059588548,14.035668847618199,30.01666203960727,30.01666203960727,34.0147027033899,36.0,111.04053313993049,81.02468759581859,65.5,62.0,60.0,25.0,50.0,17.0,11.0,18.0,17.029386365926403,17.0,59.0,58.0,63.0317380372777
362,362,34.058772731852805,104.00480758118829,14.0,31.0,31.0,35.014282800023196,35.014282800023196,114.03946685248927,83.05419917138447,66.0,61.0,60.0,25.5,53.5,19.5,12.5,18.027756377319946,18.027756377319946,17.5,59.0,58.0,64.00781202322104
363,363,37.05401462729781,105.0,13.0,30.01666203960727,31.016124838541646,36.013886210738214,35.014282800023196,115.06954418958998,85.05292469985967,66.5,60.0,60.0,25.0,55.0,21.0,13.0,17.029386365926403,18.0,17.5,58.0,57.0,65.0
364,364,24.08318915758459,105.04284840006957,14.035668847618199,33.015148038438355,30.0,33.0,38.0,109.07336980216573,76.05918747922567,64.0,62.0,59.0,22.5,48.5,13.5,9.5,18.0,18.027756377319946,18.0,59.0,58.0,63.00793600809346
365,365,2.23606797749979,104.12012293500234,13.038404810405298,22.090722034374522,27.073972741361768,30.066592756745816,48.010415536631214,85.14693182963201,63.071388124885914,62.0,59.0,54.0,8.5,28.5,4.5,1.5,18.027756377319946,17.029386365926403,17.5,59.0,58.0,60.00833275470999
366,366,2.8284271247461903,103.1746092796091,14.0,22.0,27.073972741361768,30.01666203960727,47.01063709417264,85.05292469985967,63.071388124885914,62.0,60.0,54.0,10.0,28.0,4.0,1.0,17.029386365926403,17.029386365926403,17.0,59.0,57.0,63.0317380372777
367,367,10.04987562112089,104.0768946500615,15.0,26.019223662515376,28.0,30.01666203960727,44.04543109109048,95.08417323613851,69.06518659932803,64.0,61.0,57.0,15.0,36.0,8.0,1.0,18.027756377319946,17.029386365926403,17.0,59.0,59.0,63.0
368,368,15.132745950421556,98.08159868191383,14.0,27.0,26.019223662515376,29.017236257093817,45.044422518220834,101.07917688624102,74.10802925459562,66.5,64.0,60.0,17.0,39.0,11.0,5.0,18.027756377319946,18.0,18.0,59.0,59.0,62.0
369,369,10.04987562112089,92.04890004774636,13.038404810405298,27.018512172212592,25.019992006393608,27.018512172212592,46.04345773288535,96.13012014972206,69.1158447825099,64.0,63.0,60.0,15.5,34.5,5.5,4.5,19.026297590440446,17.029386365926403,17.5,60.0,59.0,62.03224967708329
370,370,5.0990195135927845,88.14193099768123,14.035668847618199,27.018512172212592,23.08679276123039,25.079872407968907,47.042533945356304,93.13431161500041,66.12110101926616,63.5,65.0,60.0,15.5,30.5,1.5,3.5,12.0,12.0,12.0,59.0,59.0,57.0087712549569
371,371,5.0,87.14355971613737,15.033296378372908,28.0178514522438,22.02271554554524,25.079872407968907,47.042533945356304,95.08417323613851,67.06713054842886,64.5,66.0,61.0,16.5,31.5,1.5,3.5,7.0,7.0,7.5,57.0,59.0,49.0
372,372,7.0710678118654755,93.08598175880189,15.0,29.017236257093817,24.020824298928627,27.018512172212592,47.042533945356304,98.08159868191383,69.06518659932803,65.5,66.0,62.0,17.0,34.0,3.0,4.0,10.0,10.0,10.0,56.0,55.0,51.0
373,373,20.024984394500787,98.02040603874276,15.0,29.017236257093817,28.0,31.0,41.012193308819754,105.04284840006957,76.02631123499285,66.0,65.0,63.0,23.0,41.0,9.0,9.0,10.0,10.04987562112089,10.0,61.0,57.0,57.07889277132134
374,374,19.0,102.00490184299969,15.033296378372908,30.0,30.0,33.0,38.0,102.00490184299969,72.00694410957877,62.5,62.0,61.0,23.5,40.5,7.5,9.5,12.0,11.045361017187261,11.5,61.0,58.0,64.03124237432849
375,375,20.024984394500787,103.01941564578979,14.0,27.0,30.0,32.01562118716424,38.0,99.00505037623081,72.00694410957877,62.0,62.0,60.0,23.0,38.0,9.0,10.0,14.035668847618199,14.0,14.0,61.0,58.0,59.00847396772772
376,376,14.0,103.0,14.035668847618199,28.0,29.0,31.0,38.01315561749642,94.0,66.0,59.0,59.0,59.0,21.0,35.0,5.0,8.0,14.035668847618199,14.035668847618199,14.0,63.0,56.0,60.03332407921454
377,377,15.0,107.00467279516349,15.0,29.0,30.01666203960727,33.0,38.0,97.0,68.0,60.5,58.0,59.0,20.5,38.5,7.5,6.5,15.132745950421556,15.033296378372908,15.0,64.0,56.0,62.07253821135398
378,378,15.0,110.04090148667449,14.0,28.0,31.016124838541646,34.058772731852805,38.01315561749642,95.00526301210897,67.00746227100382,59.5,55.0,58.0,18.5,38.5,7.5,5.5,16.1245154965971,15.0,14.5,64.0,54.0,63.071388124885914
379,379,15.0,112.04017136723775,14.0,28.0,32.01562118716424,35.0,37.013511046643494,94.00531899844816,66.007575322837,58.5,52.0,55.0,16.5,40.5,9.5,3.5,16.0312195418814,15.033296378372908,15.0,62.0,53.0,64.1248781675256
380,380,14.035668847618199,112.01785571952357,13.0,26.019223662515376,31.016124838541646,34.0,38.01315561749642,91.00549433962765,65.0,58.0,51.0,53.0,14.0,39.0,10.0,2.0,15.033296378372908,15.0,15.0,62.0,53.0,63.12685640834652
381,381,13.0,113.01769772916099,13.0,26.0,30.01666203960727,33.0,37.013511046643494,89.00561780022652,63.00793600809346,56.5,50.0,52.0,14.0,38.0,9.0,2.0,16.0312195418814,15.0,15.0,61.0,52.0,63.12685640834652
382,382,13.0,114.0175425099138,13.038404810405298,26.0,32.01562118716424,34.0147027033899,37.013511046643494,89.0,63.0,56.5,49.0,51.0,13.0,39.0,10.0,1.0,15.033296378372908,15.0,15.0,60.0,52.0,62.12889826803627
383,383,13.0,113.01769772916099,13.0,27.0,31.016124838541646,34.0,37.013511046643494,90.00555538409837,63.00793600809346,56.5,49.0,51.0,13.0,40.0,11.0,1.0,15.033296378372908,15.0,15.5,61.0,54.0,63.12685640834652
384,384,20.024984394500787,114.0175425099138,14.0,28.0178514522438,31.016124838541646,34.0147027033899,38.01315561749642,100.00499987500625,72.0,62.0,53.0,55.0,16.0,46.0,15.0,3.0,17.029386365926403,16.0312195418814,16.0,61.0,55.0,63.071388124885914
385,385,23.0,115.0173899895142,15.033296378372908,29.0,32.01562118716424,35.014282800023196,39.01281840626232,106.0,77.0,65.5,56.0,58.0,18.0,49.0,17.0,4.0,17.11724276862369,17.0,17.0,61.0,56.0,65.06919393998976
386,386,24.0,113.03981599418853,14.0,30.0,33.015148038438355,37.013511046643494,38.01315561749642,106.00471687618433,76.00657866263946,64.0,56.0,59.0,19.5,48.5,15.5,6.5,17.029386365926403,16.0,16.0,61.0,56.0,64.03124237432849
387,387,22.0,110.04090148667449,14.0,31.0,33.06055050963308,35.12833614050059,36.013886210738214,103.00485425454472,72.00694410957877,61.0,56.0,59.0,21.5,45.5,11.5,7.5,17.029386365926403,16.0312195418814,16.0,62.0,57.0,65.03076195155643
388,388,21.0,110.04090148667449,14.0,31.0,33.06055050963308,36.05551275463989,33.0,99.0,68.0,57.5,54.0,57.0,22.5,43.5,9.5,8.5,16.0312195418814,16.0,16.0,61.0,55.0,62.03224967708329
389,389,18.027756377319946,104.01922899156675,15.0,30.01666203960727,30.01666203960727,34.058772731852805,33.015148038438355,96.00520819205592,66.0,57.0,54.0,56.0,22.0,41.0,8.0,7.0,16.0312195418814,16.0,16.0,62.0,58.0,61.00819617067857
390,390,3.1622776601683795,102.07840124139877,14.035668847618199,25.019992006393608,28.0178514522438,30.0,43.01162633521314,85.0235261559999,60.00833275470999,58.5,58.0,54.0,13.0,29.0,2.0,1.0,17.029386365926403,16.0,16.5,62.0,58.0,61.032778078668514
391,391,3.605551275463989,103.07764064044152,14.035668847618199,23.021728866442675,28.0178514522438,30.01666203960727,47.01063709417264,87.05170877128145,64.03124237432849,62.5,60.0,56.0,11.0,29.0,4.0,1.0,17.029386365926403,16.0,16.0,61.0,57.0,62.00806399170998
392,392,5.0990195135927845,104.01922899156675,15.033296378372908,25.019992006393608,28.0178514522438,30.01666203960727,45.0111097397076,90.0222194794152,65.00769185258002,62.5,59.0,57.0,13.0,32.0,5.0,0.0,17.029386365926403,16.0,16.0,61.0,58.0,63.00793600809346
393,393,8.06225774829855,110.00454536063498,16.0312195418814,28.0,30.01666203960727,32.01562118716424,40.0,92.02173656261873,64.03124237432849,60.0,56.0,57.0,16.5,35.5,4.5,1.5,17.029386365926403,17.0,17.0,62.0,59.0,65.00769185258002
394,394,9.055385138137417,109.00458705944443,15.033296378372908,30.0,31.016124838541646,33.015148038438355,38.0,92.02173656261873,62.03224967708329,57.5,54.0,55.0,16.5,37.5,5.5,2.5,17.029386365926403,16.0,16.5,62.0,59.0,59.07622195096772
395,395,11.180339887498949,109.0,14.0,30.0,31.016124838541646,33.06055050963308,38.01315561749642,93.04837451562494,63.071388124885914,57.5,54.0,54.0,16.0,39.0,6.0,3.0,17.029386365926403,17.0,17.0,62.0,60.0,64.00781202322104
396,396,13.152946437965905,110.00454536063498,15.033296378372908,31.0,31.016124838541646,34.058772731852805,38.0,97.04638066409278,66.06814663663572,59.5,55.0,54.0,16.5,42.5,8.5,2.5,17.029386365926403,17.0,17.0,61.0,59.0,58.008620049092706
397,397,11.045361017187261,109.0,13.038404810405298,27.018512172212592,28.0,32.0,42.01190307520001,93.02150289046077,66.007575322837,60.5,55.0,55.0,13.0,38.0,8.0,1.0,18.110770276274835,17.0,17.5,64.0,62.0,63.00793600809346
398,398,2.23606797749979,112.0044641967453,13.038404810405298,22.02271554554524,29.017236257093817,31.0,44.04543109109048,81.00617260431454,59.0,58.0,53.0,52.0,8.5,28.5,4.5,1.5,18.027756377319946,17.0,17.5,62.0,61.0,64.00781202322104
399,399,3.605551275463989,112.0,14.0,24.020824298928627,30.01666203960727,32.0,43.01162633521314,84.02380615040002,60.00833275470999,58.5,52.0,52.0,9.0,32.0,6.0,2.0,17.11724276862369,17.0,17.0,64.0,61.0,63.00793600809346
400,400,7.280109889280518,112.0044641967453,14.035668847618199,26.019223662515376,29.017236257093817,32.0,42.01190307520001,89.05054744357274,63.0317380372777,59.5,53.0,52.0,10.5,36.5,8.5,1.5,18.027756377319946,17.0,17.0,62.0,60.0,59.00847396772772
401,401,12.165525060596439,112.0044641967453,14.035668847618199,28.0178514522438,30.0,34.058772731852805,40.01249804748511,94.04786015641186,66.03029607687671,60.0,53.0,54.0,13.5,40.5,9.5,0.5,18.027756377319946,17.0,17.5,63.0,61.0,62.00806399170998
402,402,14.142135623730951,112.01785571952357,14.035668847618199,28.0178514522438,32.01562118716424,35.05709628591621,39.01281840626232,95.04735661763561,67.02984409947557,60.0,52.0,54.0,14.0,42.0,11.0,1.0,18.027756377319946,17.0,17.5,63.0,60.0,62.07253821135398
403,403,13.152946437965905,114.00438588054409,14.035668847618199,29.017236257093817,30.01666203960727,33.13608305156178,38.0,94.08506789071261,65.06919393998976,58.5,53.0,54.0,15.5,40.5,9.5,2.5,18.027756377319946,17.0,17.5,63.0,59.0,61.032778078668514
404,404,15.132745950421556,113.00442469213318,13.038404810405298,28.0178514522438,32.01562118716424,35.05709628591621,39.0,95.08417323613851,67.06713054842886,59.5,54.0,55.0,15.5,40.5,9.5,3.5,18.027756377319946,18.0,18.5,62.0,58.0,61.07372593840988
405,405,17.029386365926403,112.0,13.038404810405298,30.01666203960727,32.01562118716424,36.05551275463989,38.0,98.04590761474952,68.0294054067798,59.5,55.0,55.0,17.0,43.0,10.0,4.0,18.027756377319946,17.0,17.0,63.0,60.0,66.06814663663572
406,406,17.029386365926403,112.0044641967453,14.035668847618199,28.0,32.01562118716424,35.014282800023196,38.01315561749642,97.0051545022222,69.00724599634447,60.5,56.0,55.0,17.5,41.5,10.5,4.5,18.027756377319946,18.027756377319946,18.0,62.0,59.0,65.00769185258002
407,407,3.1622776601683795,111.04053313993049,14.035668847618199,22.02271554554524,28.0178514522438,30.01666203960727,45.0111097397076,84.09518416651456,62.07253821135398,60.5,56.0,53.0,9.5,29.5,5.5,2.5,20.024984394500787,18.0,18.0,61.0,59.0,59.033888572581766
408,408,2.23606797749979,110.07270324653611,13.0,19.026297590440446,27.018512172212592,29.068883707497267,47.095647357266465,80.22468448052632,61.204574992397426,60.5,56.0,52.0,7.0,26.0,6.0,3.0,18.027756377319946,16.0312195418814,16.5,60.0,58.0,59.033888572581766
409,409,2.8284271247461903,112.0714058089752,14.0,23.021728866442675,27.073972741361768,30.066592756745816,48.093658625644196,87.20665112249179,64.19501538281614,63.0,59.0,55.0,9.0,30.0,6.0,2.0,19.026297590440446,17.029386365926403,17.0,63.0,62.0,66.007575322837
410,410,12.165525060596439,112.04017136723775,16.0312195418814,28.0178514522438,30.01666203960727,33.015148038438355,44.0,100.07996802557443,72.06247289678588,66.0,61.0,58.0,15.5,40.5,10.5,1.5,19.026297590440446,17.029386365926403,17.5,61.0,60.0,61.00819617067857
411,411,18.027756377319946,112.01785571952357,16.0312195418814,30.01666203960727,31.0,35.0,43.04648650006177,107.11675872616759,77.10382610480494,68.0,64.0,62.0,20.0,44.0,11.0,5.0,18.027756377319946,17.0,17.0,61.0,62.0,63.00793600809346
412,412,20.024984394500787,101.00495037373169,14.035668847618199,29.0,28.0,31.016124838541646,44.01136216933077,107.0420478129973,78.05767098754612,68.0,65.0,64.0,20.5,42.5,11.5,7.5,18.027756377319946,18.0,18.0,62.0,62.0,65.0
413,413,8.06225774829855,90.0499861188218,13.038404810405298,26.019223662515376,24.0,26.019223662515376,49.01020301937138,96.08329719571451,70.06425622241343,66.0,67.0,64.0,16.5,30.5,2.5,4.5,18.027756377319946,17.0,17.5,60.0,58.0,58.034472514187634
414,414,4.0,89.02246907382428,14.035668847618199,27.018512172212592,23.021728866442675,25.019992006393608,51.0098029794274,96.04686356149273,69.02897942168927,67.0,67.0,65.0,15.0,30.0,1.0,3.0,18.027756377319946,18.027756377319946,18.5,62.0,62.0,60.03332407921454
415,415,7.0710678118654755,89.00561780022652,15.0,27.018512172212592,24.0,25.019992006393608,49.0,98.02040603874276,71.00704190430693,67.5,66.0,65.0,16.5,32.5,2.5,3.5,18.027756377319946,17.029386365926403,17.5,62.0,60.0,58.008620049092706
416,416,17.11724276862369,98.00510190801293,16.0312195418814,30.0,28.0,31.016124838541646,42.04759208325728,105.00476179678711,75.0066663703967,66.5,66.0,65.0,23.5,39.5,6.5,8.5,18.027756377319946,17.029386365926403,17.5,62.0,63.0,61.0
417,417,20.09975124224178,103.01941564578979,14.0,30.0,29.017236257093817,33.0,39.01281840626232,103.00485425454472,73.00684899377592,63.0,64.0,62.0,24.0,40.0,8.0,10.0,19.026297590440446,18.0,18.0,63.0,62.0,60.00833275470999
418,418,19.026297590440446,104.0768946500615,15.033296378372908,28.0178514522438,30.0,33.015148038438355,38.01315561749642,100.0199980003999,72.00694410957877,62.5,64.0,60.0,24.0,38.0,8.0,10.0,19.026297590440446,18.0,18.5,60.0,59.0,56.00892785976178
419,419,16.0312195418814,104.04326023342406,14.035668847618199,28.0178514522438,29.0,31.016124838541646,38.01315561749642,96.02083107326243,68.00735254367721,60.0,61.0,58.0,21.5,36.5,6.5,7.5,19.0,18.0,18.5,61.0,61.0,58.0
420,420,17.11724276862369,106.04244433244644,15.0,28.0178514522438,29.0,32.0,37.0,97.04638066409278,69.02897942168927,60.5,60.0,57.0,21.5,38.5,8.5,7.5,19.026297590440446,19.026297590440446,19.0,62.0,63.0,60.00833275470999
421,421,15.0,107.01868995647442,15.033296378372908,32.01562118716424,32.0,35.0,37.0,99.02019995940222,67.00746227100382,59.5,60.0,58.0,22.0,40.0,6.0,8.0,20.0,19.026297590440446,19.0,62.0,63.0,63.00793600809346
422,422,19.026297590440446,111.01801655587259,16.0312195418814,31.0,32.0,37.0,37.0,103.01941564578979,72.02777242147643,62.5,60.0,58.0,22.0,44.0,11.0,7.0,19.026297590440446,19.0,19.0,60.0,61.0,63.0
423,423,12.041594578792296,111.01801655587259,15.033296378372908,30.01666203960727,31.016124838541646,34.0,39.01281840626232,96.02083107326243,66.007575322837,60.0,58.0,56.0,18.0,39.0,7.0,5.0,19.026297590440446,19.0,19.5,62.0,61.0,60.00833275470999
424,424,4.0,110.00454536063498,14.035668847618199,24.020824298928627,29.0,31.0,40.01249804748511,82.00609733428362,58.0,56.0,54.0,53.0,13.5,28.5,2.5,0.5,20.024984394500787,19.026297590440446,19.5,62.0,61.0,61.00819617067857
425,425,6.0,113.01769772916099,15.033296378372908,24.020824298928627,31.0,32.01562118716424,39.01281840626232,84.00595217006948,60.0,57.0,54.0,52.0,14.0,31.0,5.0,1.0,20.024984394500787,19.0,19.5,62.0,60.0,62.03224967708329
426,426,12.041594578792296,113.0,15.0,27.018512172212592,31.0,33.0,38.0,92.02173656261873,65.00769185258002,59.0,53.0,53.0,15.0,39.0,10.0,2.0,20.024984394500787,19.0,19.5,64.0,62.0,65.00769185258002
427,427,14.035668847618199,114.0,14.035668847618199,29.017236257093817,31.016124838541646,34.0147027033899,39.01281840626232,96.02083107326243,67.00746227100382,60.0,54.0,54.0,15.0,42.0,11.0,2.0,19.026297590440446,19.0,19.0,64.0,62.0,65.00769185258002
428,428,20.09975124224178,117.01709276853532,14.0,28.0178514522438,32.0,35.014282800023196,37.013511046643494,99.08077512817509,71.06335201775947,61.0,53.0,51.0,15.0,47.0,16.0,2.0,20.024984394500787,19.026297590440446,19.0,64.0,62.0,66.007575322837
429,429,19.026297590440446,121.00413216084813,13.0,28.0,32.01562118716424,35.05709628591621,38.01315561749642,98.02040603874276,70.02856560004639,60.5,49.0,48.0,10.5,49.5,17.5,0.5,19.026297590440446,19.0,19.0,63.0,62.0,65.00769185258002
430,430,22.02271554554524,127.0,12.0,25.0,33.015148038438355,37.013511046643494,36.013886210738214,95.02105029939419,70.02856560004639,59.0,43.0,43.0,7.0,52.0,24.0,3.0,19.026297590440446,19.026297590440446,19.0,63.0,62.0,63.0317380372777
431,431,20.024984394500787,128.00390619039717,12.0,25.0,33.015148038438355,35.014282800023196,36.0,93.00537618869137,68.00735254367721,58.0,43.0,42.0,6.5,50.5,22.5,3.5,19.026297590440446,18.027756377319946,18.5,61.0,60.0,65.03076195155643
432,432,19.026297590440446,125.00399993600205,11.0,24.0,32.01562118716424,35.014282800023196,37.013511046643494,91.02197536858887,67.02984409947557,57.5,43.0,42.0,5.5,48.5,21.5,4.5,19.026297590440446,18.027756377319946,18.0,63.0,61.0,68.0294054067798
433,433,16.0312195418814,126.01587201618692,11.0,26.0,32.0,35.014282800023196,37.05401462729781,90.0499861188218,64.07027391856539,56.0,42.0,40.0,4.0,49.0,20.0,5.0,19.026297590440446,18.0,18.0,65.0,61.0,68.0294054067798
434,434,14.035668847618199,124.0,12.041594578792296,27.0,32.01562118716424,34.0147027033899,38.01315561749642,91.0494371207203,64.07027391856539,57.0,42.0,42.0,4.0,49.0,19.0,6.0,20.024984394500787,18.0,18.5,65.0,62.0,67.02984409947557
435,435,18.0,125.00399993600205,12.041594578792296,26.0,31.0,34.0147027033899,38.0,94.00531899844816,68.00735254367721,59.0,42.0,43.0,4.5,51.5,21.5,4.5,18.027756377319946,18.027756377319946,18.0,67.0,62.0,69.06518659932803
436,436,18.0,125.01599897613104,12.041594578792296,26.0,32.01562118716424,35.05709628591621,37.0,93.00537618869137,67.00746227100382,58.0,42.0,44.0,6.0,50.0,20.0,4.0,19.1049731745428,17.0,17.5,66.0,59.0,67.06713054842886
437,437,16.0,125.03599481749245,13.0,26.0,33.015148038438355,36.05551275463989,37.0,92.0,66.0,58.0,43.0,46.0,7.5,47.5,18.5,3.5,19.026297590440446,18.027756377319946,18.5,66.0,56.0,66.18912297349165
438,438,16.0312195418814,127.06297651164952,13.038404810405298,26.019223662515376,34.0147027033899,36.013886210738214,38.0,93.00537618869137,67.0,59.0,44.0,48.0,8.0,47.0,18.0,3.0,18.110770276274835,18.027756377319946,18.0,65.0,55.0,64.19501538281614
439,439,17.0,126.0634760745554,13.0,26.0,33.015148038438355,36.05551275463989,38.01315561749642,94.00531899844816,68.00735254367721,59.5,46.0,50.0,10.0,46.0,17.0,1.0,18.027756377319946,18.027756377319946,18.0,64.0,54.0,63.198101237299845
440,440,17.0,126.09916732476864,13.038404810405298,26.0,33.06055050963308,36.05551275463989,38.0,94.00531899844816,68.00735254367721,59.5,45.0,50.0,9.5,46.5,16.5,2.5,18.110770276274835,18.0,18.0,65.0,54.0,65.27633568147036
441,441,17.0,126.0634760745554,12.0,25.0,33.06055050963308,36.013886210738214,38.01315561749642,92.00543462209176,67.00746227100382,58.5,44.0,48.0,8.0,46.0,18.0,3.0,18.110770276274835,17.029386365926403,17.5,66.0,55.0,66.27216610312357
442,442,16.0,127.06297651164952,13.0,25.0,34.0147027033899,36.013886210738214,38.01315561749642,92.00543462209176,67.00746227100382,59.0,43.0,47.0,7.0,47.0,18.0,4.0,19.235384061671343,18.027756377319946,18.5,66.0,53.0,62.289646009589745
443,443,16.0,125.06398362438324,12.0,28.0,32.01562118716424,36.05551275463989,38.01315561749642,94.00531899844816,66.007575322837,58.0,43.0,47.0,7.0,49.0,18.0,4.0,17.11724276862369,17.029386365926403,17.5,67.0,57.0,68.11754546370561
444,444,23.0,123.06502346320826,12.0,29.0,34.0147027033899,36.05551275463989,39.0,103.0,74.0,62.5,46.0,50.0,9.0,55.0,23.0,1.0,18.110770276274835,18.0,18.5,67.0,57.0,69.1158447825099
445,445,23.0,123.01625908797584,12.0,29.0,33.015148038438355,36.05551275463989,38.0,102.0,73.0,61.5,47.0,49.0,10.0,54.0,22.0,1.0,19.1049731745428,19.0,18.5,66.0,58.0,68.06614430096654
446,446,22.02271554554524,121.03718436910205,12.0,27.0,33.015148038438355,36.013886210738214,38.01315561749642,99.0,72.0,61.0,47.0,50.0,10.5,50.5,19.5,0.5,18.110770276274835,18.027756377319946,18.0,65.0,58.0,70.06425622241343
447,447,17.029386365926403,122.01639234135715,12.0,28.0,32.01562118716424,35.014282800023196,39.0,96.00520819205592,68.00735254367721,59.5,47.0,49.0,9.0,48.0,17.0,2.0,19.1049731745428,17.0,17.5,63.0,57.0,66.12110101926616
448,448,16.0312195418814,121.01652779682617,12.0,25.019992006393608,33.015148038438355,35.014282800023196,38.0,91.02197536858887,66.007575322837,58.0,46.0,48.0,9.0,44.0,16.0,1.0,18.110770276274835,18.0,18.0,64.0,58.0,67.02984409947557
449,449,15.033296378372908,121.01652779682617,12.0,26.019223662515376,32.01562118716424,35.014282800023196,38.0,91.02197536858887,65.00769185258002,57.5,46.0,48.0,9.0,44.0,15.0,1.0,19.026297590440446,18.0,19.0,65.0,60.0,65.12296062065974
450,450,17.029386365926403,120.00416659433121,11.0,25.019992006393608,33.0,35.014282800023196,39.0,92.02173656261873,67.00746227100382,58.5,48.0,49.0,9.5,43.5,15.5,0.5,18.027756377319946,17.029386365926403,17.5,63.0,58.0,67.06713054842886
451,451,17.029386365926403,120.0,12.041594578792296,26.019223662515376,32.0,35.014282800023196,37.0,92.04890004774636,66.03029607687671,57.5,48.0,48.0,11.0,44.0,15.0,0.0,18.110770276274835,17.0,17.5,63.0,59.0,65.12296062065974
452,452,16.0312195418814,121.0,12.041594578792296,26.0,33.0,35.0,37.013511046643494,91.0494371207203,65.06919393998976,57.0,47.0,47.0,10.0,44.0,15.0,0.0,18.027756377319946,18.0,18.0,63.0,60.0,65.06919393998976
453,453,13.038404810405298,120.00416659433121,12.0,26.019223662515376,33.0,35.0,38.01315561749642,89.05054744357274,63.0317380372777,56.5,46.0,45.0,7.5,43.5,15.5,2.5,18.027756377319946,18.0,18.5,62.0,60.0,65.06919393998976
454,454,13.038404810405298,120.00416659433121,11.0,26.019223662515376,32.01562118716424,35.014282800023196,39.01281840626232,89.05054744357274,63.0317380372777,56.5,45.0,44.0,5.5,44.5,15.5,2.5,18.027756377319946,17.029386365926403,18.0,63.0,61.0,64.00781202322104
455,455,14.142135623730951,116.06894502837527,10.0,28.0,32.0,35.014282800023196,40.01249804748511,92.04890004774636,64.07027391856539,57.0,48.0,44.0,6.0,46.0,16.0,2.0,18.027756377319946,17.0,17.5,62.0,61.0,68.0294054067798
456,456,17.029386365926403,111.11255554616679,12.0,30.0,33.06055050963308,36.05551275463989,41.048751503547585,100.04498987955368,70.06425622241343,61.5,55.0,50.0,11.5,47.5,14.5,2.5,18.027756377319946,18.0,18.0,62.0,61.0,68.06614430096654
457,457,17.029386365926403,108.04165863221463,11.045361017187261,29.017236257093817,30.01666203960727,33.0,42.01190307520001,99.08077512817509,70.06425622241343,61.5,56.0,53.0,12.5,44.5,13.5,3.5,19.1049731745428,18.027756377319946,18.5,63.0,62.0,69.06518659932803
458,458,6.082762530298219,110.00454536063498,12.041594578792296,22.02271554554524,28.0178514522438,30.01666203960727,44.0,84.0535543567314,62.03224967708329,59.0,52.0,51.0,7.5,32.5,7.5,1.5,19.1049731745428,18.027756377319946,18.0,64.0,61.0,65.00769185258002
459,459,2.8284271247461903,112.01785571952357,11.045361017187261,21.02379604162864,28.0178514522438,30.01666203960727,44.01136216933077,78.05767098754612,57.0350769263968,56.0,51.0,49.0,6.0,28.0,5.0,3.0,18.027756377319946,18.027756377319946,18.0,63.0,61.0,61.00819617067857
460,460,5.385164807134504,115.0173899895142,13.0,23.021728866442675,28.0178514522438,31.016124838541646,42.0,83.05419917138447,60.03332407921454,57.5,52.0,50.0,9.0,32.0,6.0,2.0,19.1049731745428,18.027756377319946,18.5,63.0,61.0,62.03224967708329
461,461,10.04987562112089,113.03981599418853,13.0,25.019992006393608,30.01666203960727,33.06055050963308,42.01190307520001,90.0499861188218,65.03076195155643,60.0,56.0,53.0,12.5,35.5,8.5,1.5,19.026297590440446,18.0,18.0,63.0,61.0,63.0317380372777
462,462,9.219544457292887,110.07270324653611,14.0,29.0,30.01666203960727,34.058772731852805,41.0,93.02150289046077,64.03124237432849,59.5,57.0,53.0,14.0,38.0,7.0,3.0,19.1049731745428,18.027756377319946,18.0,63.0,61.0,67.00746227100382
463,463,8.06225774829855,106.1178590059185,13.038404810405298,29.0,29.017236257093817,32.01562118716424,42.0,92.02173656261873,63.0317380372777,59.0,57.0,52.0,12.5,37.5,6.5,1.5,20.024984394500787,19.026297590440446,19.0,65.0,63.0,62.0
464,464,4.47213595499958,101.07917688624102,15.0,29.0,27.018512172212592,30.066592756745816,42.0,90.0222194794152,61.032778078668514,59.0,55.0,51.0,11.0,37.0,7.0,2.0,20.09975124224178,19.0,19.0,65.0,62.0,60.03332407921454
465,465,5.0990195135927845,101.04454463255303,15.033296378372908,29.017236257093817,28.0178514522438,31.064449134018133,42.0,91.0494371207203,62.03224967708329,59.5,56.0,53.0,12.5,36.5,6.5,0.5,19.1049731745428,19.026297590440446,19.0,65.0,61.0,63.00793600809346
466,466,7.0710678118654755,104.04326023342406,15.033296378372908,28.0178514522438,28.0178514522438,30.01666203960727,41.012193308819754,91.02197536858887,63.00793600809346,59.5,56.0,53.0,13.5,36.5,6.5,0.5,19.1049731745428,18.027756377319946,18.5,64.0,59.0,61.032778078668514
467,467,10.04987562112089,109.00458705944443,15.0,30.0,30.01666203960727,32.01562118716424,40.049968789001575,95.00526301210897,65.00769185258002,60.0,54.0,55.0,14.5,40.5,7.5,0.5,19.026297590440446,19.026297590440446,19.0,66.0,61.0,63.0317380372777
468,468,17.029386365926403,109.01834707974616,15.0,32.0,30.01666203960727,33.015148038438355,39.01281840626232,103.0,71.0,62.5,54.0,56.0,16.0,48.0,13.0,2.0,19.026297590440446,19.0,18.5,67.0,61.0,63.0317380372777
469,469,17.029386365926403,112.0044641967453,14.0,31.0,30.01666203960727,34.0147027033899,38.01315561749642,100.0,69.0,60.5,52.0,53.0,14.5,47.5,13.5,1.5,20.09975124224178,19.0,19.0,66.0,61.0,59.00847396772772
470,470,14.035668847618199,109.0,12.0,32.0,30.01666203960727,34.0147027033899,38.01315561749642,96.0,64.0,57.0,52.0,52.0,14.0,44.0,9.0,3.0,18.110770276274835,17.0,17.5,65.0,61.0,66.03029607687671
471,471,13.152946437965905,111.0,12.0,31.0,30.01666203960727,32.01562118716424,38.01315561749642,94.00531899844816,63.00793600809346,56.5,51.0,51.0,13.0,43.0,9.0,2.0,19.1049731745428,17.0,17.5,64.0,59.0,67.06713054842886
472,472,13.038404810405298,113.0,12.0,30.0,30.01666203960727,33.015148038438355,38.01315561749642,93.0,63.0,56.5,50.0,50.0,12.0,43.0,10.0,1.0,18.110770276274835,18.0,18.5,65.0,58.0,65.12296062065974
473,473,14.0,113.0,12.041594578792296,29.017236257093817,31.016124838541646,33.015148038438355,39.01281840626232,94.00531899844816,65.0,58.0,50.0,50.0,11.0,44.0,12.0,0.0,19.1049731745428,18.0,18.0,64.0,59.0,65.06919393998976
474,474,11.045361017187261,114.00438588054409,12.0,28.0,31.016124838541646,34.0147027033899,40.0,91.00549433962765,63.00793600809346,57.5,49.0,50.0,9.5,41.5,10.5,0.5,18.110770276274835,18.027756377319946,18.5,64.0,59.0,63.071388124885914
475,475,9.055385138137417,117.0,12.0,26.0,31.0,33.015148038438355,40.0,87.00574693662483,61.00819617067857,56.5,47.0,47.0,7.0,40.0,11.0,3.0,19.026297590440446,18.0,18.0,65.0,59.0,65.06919393998976
476,476,2.23606797749979,119.00420160649792,13.0,23.0,29.017236257093817,32.0,41.012193308819754,78.00640999302557,55.00909015790027,54.5,44.0,45.0,3.5,33.5,8.5,6.5,19.1049731745428,19.026297590440446,19.5,64.0,60.0,59.07622195096772
477,477,1.4142135623730951,121.00413216084813,12.0,20.0,31.016124838541646,32.0,41.0,74.00675644831355,54.00925846556311,53.5,42.0,43.0,1.5,31.5,8.5,8.5,19.1049731745428,18.0,18.5,64.0,59.0,61.1310068623117
478,478,33.015148038438355,120.01666550941998,12.041594578792296,28.0178514522438,34.0,39.0,38.0,111.04053313993049,83.02409288875127,66.5,55.0,53.0,16.0,57.0,25.0,6.0,16.0312195418814,16.0312195418814,16.0,58.0,59.0,63.00793600809346
479,479,35.014282800023196,120.01666550941998,12.0,29.017236257093817,35.0,38.0,38.0,114.0175425099138,85.00588214941364,67.5,57.0,55.0,18.0,58.0,26.0,8.0,15.033296378372908,15.033296378372908,15.0,57.0,57.0,67.00746227100382
480,480,33.015148038438355,118.03812943282352,12.0,29.017236257093817,35.014282800023196,38.01315561749642,37.0,111.01801655587259,82.00609733428362,65.5,57.0,54.0,18.5,55.5,23.5,8.5,16.0312195418814,15.0,16.0,58.0,58.0,65.0
481,481,30.01666203960727,119.00420160649792,12.0,29.0,34.0,37.0,36.013886210738214,107.01868995647442,78.02563681252464,63.0,55.0,54.0,18.5,52.5,20.5,7.5,15.033296378372908,16.0312195418814,16.0,58.0,59.0,67.0
482,482,10.04987562112089,113.03981599418853,14.035668847618199,26.019223662515376,29.017236257093817,31.0,43.01162633521314,93.08598175880189,67.06713054842886,62.0,55.0,52.0,10.5,39.5,12.5,1.5,16.0312195418814,16.0312195418814,16.5,59.0,57.0,63.00793600809346
483,483,2.23606797749979,109.0,13.0,20.0,27.018512172212592,29.068883707497267,46.010868281309364,80.05623023850174,60.07495318350236,59.5,52.0,52.0,6.0,28.0,6.0,4.0,17.11724276862369,16.0312195418814,16.5,58.0,55.0,55.08175741568164
484,484,5.385164807134504,109.0,15.0,26.0,28.0178514522438,29.0,46.010868281309364,92.00543462209176,66.007575322837,63.5,56.0,56.0,10.0,36.0,9.0,3.0,18.110770276274835,17.0,17.5,61.0,57.0,63.071388124885914
485,485,23.021728866442675,114.0175425099138,14.0,29.017236257093817,32.0,35.05709628591621,39.01281840626232,105.00476179678711,76.0,64.5,56.0,58.0,18.0,48.0,16.0,5.0,16.1245154965971,16.0,16.5,63.0,57.0,62.12889826803627
486,486,30.01666203960727,114.03946685248927,14.0,31.0,35.05709628591621,38.05259518088089,35.014282800023196,110.0,79.0,64.0,56.0,59.0,22.5,52.5,18.5,8.5,16.0312195418814,16.0,16.5,62.0,57.0,63.12685640834652
487,487,24.0,113.01769772916099,15.0,31.0,32.01562118716424,35.014282800023196,39.01281840626232,109.00458705944443,78.00640999302557,66.0,58.0,60.0,20.0,50.0,16.0,6.0,17.11724276862369,17.0,17.0,61.0,56.0,62.07253821135398
488,488,6.0,109.00458705944443,14.0,23.021728866442675,28.0178514522438,31.016124838541646,47.0,90.00555538409837,67.0,64.0,56.0,57.0,9.5,33.5,8.5,2.5,17.029386365926403,16.0,16.5,62.0,57.0,61.07372593840988
489,489,3.0,109.0,15.033296378372908,24.020824298928627,29.0,31.0,45.0,87.02298546935747,63.00793600809346,61.5,56.0,56.0,11.0,31.0,5.0,2.0,16.1245154965971,16.0312195418814,16.5,62.0,57.0,60.07495318350236
490,490,8.06225774829855,112.0044641967453,15.0,26.019223662515376,31.0,33.0,40.01249804748511,89.05054744357274,63.0317380372777,59.0,55.0,54.0,14.5,34.5,5.5,0.5,17.029386365926403,16.0312195418814,16.5,62.0,57.0,64.07027391856539
491,491,11.045361017187261,110.0,13.038404810405298,29.0,29.0,32.01562118716424,39.01281840626232,92.00543462209176,63.00793600809346,57.5,56.0,56.0,17.0,36.0,5.0,5.0,17.029386365926403,16.0312195418814,16.5,62.0,58.0,63.12685640834652
492,492,19.026297590440446,104.00480758118829,13.0,29.017236257093817,30.01666203960727,33.0,39.0,100.0199980003999,71.00704190430693,61.5,60.0,59.0,20.5,40.5,8.5,8.5,17.029386365926403,16.0,16.5,61.0,57.0,62.00806399170998
493,493,30.066592756745816,99.0,13.0,29.0,28.0,32.0,39.01281840626232,111.04053313993049,82.05485969764375,67.0,63.0,63.0,24.0,48.0,16.0,12.0,18.027756377319946,18.027756377319946,18.0,61.0,58.0,61.032778078668514
494,494,30.01666203960727,99.00505037623081,13.038404810405298,28.0178514522438,27.0,32.0,40.0,111.04053313993049,83.02409288875127,68.0,65.0,64.0,24.5,46.5,15.5,12.5,18.027756377319946,18.0,18.0,60.0,58.0,64.00781202322104
495,495,27.018512172212592,104.00480758118829,13.038404810405298,27.018512172212592,29.0,33.015148038438355,39.0,106.04244433244644,79.02531240052139,65.5,63.0,62.0,23.5,43.5,13.5,11.5,18.027756377319946,17.029386365926403,17.0,60.0,60.0,61.0
496,496,22.02271554554524,103.00485425454472,13.038404810405298,28.071337695236398,29.017236257093817,32.0,38.0,101.07917688624102,73.02739212103907,62.0,61.0,60.0,22.5,40.5,10.5,11.5,17.029386365926403,17.029386365926403,17.0,61.0,60.0,60.0
497,497,19.1049731745428,102.0196059588548,13.038404810405298,29.017236257093817,28.0,32.01562118716424,39.01281840626232,100.04498987955368,71.02816342831905,61.5,62.0,60.0,22.0,39.0,8.0,10.0,17.029386365926403,17.029386365926403,17.0,61.0,60.0,60.03332407921454
498,498,17.029386365926403,99.04544411531506,13.038404810405298,29.068883707497267,28.0,31.0,40.0,99.08077512817509,70.02856560004639,61.5,63.0,60.0,21.5,37.5,6.5,9.5,19.026297590440446,18.027756377319946,18.0,60.0,59.0,61.00819617067857
499,499,9.219544457292887,95.08417323613851,16.0312195418814,30.01666203960727,25.019992006393608,28.0178514522438,44.0,99.08077512817509,69.06518659932803,64.5,65.0,61.0,19.0,36.0,5.0,5.0,18.027756377319946,18.027756377319946,17.5,61.0,60.0,61.00819617067857
500,500,7.280109889280518,93.13431161500041,16.0312195418814,29.017236257093817,24.020824298928627,27.018512172212592,47.0,99.08077512817509,70.06425622241343,66.5,68.0,63.0,18.5,33.5,3.5,3.5,18.027756377319946,18.027756377319946,17.5,59.0,60.0,57.0
501,501,14.142135623730951,96.13012014972206,17.029386365926403,29.017236257093817,26.019223662515376,29.017236257093817,45.0,105.07616285342742,76.05918747922567,69.0,68.0,63.0,20.5,39.5,8.5,5.5,18.027756377319946,17.029386365926403,17.0,61.0,61.0,61.0
