,video_id,frame_seq,time_seconds,m1,m3,m4,m5,m6,m7,m8,m9,m10,m11,m12,m13,m14,m15,m16,m17,e1,e2,e3,b1,b2,b3
0,253,0,0.0,7.910330468374245,148.62161628097013,21.225643982127053,31.83846597319041,38.91368063389973,42.451287964254334,45.98889529460837,106.18716366408815,74.3739349887433,70.75214660708991,63.67693194638093,67.21453927673542,19.45684031694975,40.68248429907669,5.306410995531792,1.7688036651773018,25.01466132468912,25.01466132468912,24.763251312481543,67.21453927673542,56.60171728567184,64.06879368771628
1,253,1,0.0333666666666666,10.61282199106347,148.62161628097056,24.763251312481543,31.83846597319041,35.37607330354513,38.913680633899276,46.124756433419115,113.25869619756496,81.44183679536138,76.05855760262182,70.75214660709003,74.28975393744452,26.53205497765873,40.68248429907669,5.306410995531792,5.306410995531792,21.22564398212694,24.763251312481543,24.763251312481543,67.21453927673542,60.13932461602644,63.775123110252174
2,253,2,0.0667333333333332,11.286652959662065,149.94691204930163,21.414918307447465,35.69153051241244,39.260683563653856,42.82983661489516,46.39898966613623,114.2686520475512,78.60244238600089,73.16763755044553,71.383061024825,74.95221407606618,26.768647884309303,41.04526008927439,1.7845765256206505,5.353729576861838,25.237723256253474,25.237723256253474,24.984071358688766,64.2447549223424,57.10644881985991,64.34382168114495
3,253,3,0.1000999999999998,10.61282199106347,141.5042932141796,21.22564398212694,31.838465973190523,31.838465973190523,38.91368063389973,45.98889529460848,109.66582724098942,77.82736126779889,72.5209502722671,74.2897539374444,74.2897539374444,28.30085864283592,35.37607330354501,3.53760733035449,7.07521466070898,25.014661324689005,25.014661324689005,24.76325131248143,63.67693194638093,56.60171728567195,70.84053158422024
4,253,4,0.1334666666666664,7.072725676249661,137.96348122241724,21.510855365284534,31.82726554312319,35.36362838124796,38.89999121937262,42.436354057497624,102.61547596467416,70.81561064674166,67.19089392437115,67.19089392437115,70.72725676249604,26.522721285935972,33.59544696218563,1.7681814190624436,5.304544257187217,21.510855365284574,24.754539866873642,24.754539866873642,63.65453108624649,60.118168248121606,67.19089392437127
5,253,5,0.166833333333333,10.511766624552706,136.6978808175618,21.023533249105412,31.535299873658232,35.213982378335054,38.5431442900267,42.19281066658136,105.17604873614086,73.66574585059854,68.32648305959276,70.07844416368482,73.58236637186906,29.783338769565944,33.28726097775041,1.7519611040920609,8.759805520460532,21.313526717022995,24.52745545728976,22.7754943531977,63.07059974731635,56.06275533094788,63.167855934226566
6,253,6,0.2001999999999996,17.500820370182737,140.1814619215483,21.00098444421917,35.17621359758307,35.17621359758307,38.50180481440202,38.66057581712263,112.2237974069717,77.08311776524353,68.25319944371256,70.00328148073083,77.00360962880393,35.00164074036536,38.50180481440202,0.0,14.00065629614619,24.749897520167757,24.50114851825583,22.751066481237558,66.5031174066944,56.00262518458476,66.59516328798779
7,253,7,0.2335666666666662,31.432957222086998,133.12987958952422,17.462754012270466,35.09970116510969,35.09970116510936,42.05588080898781,38.57648448397262,122.4386897650874,87.38359315932523,71.59729145030906,69.85101604908198,80.32866845644435,36.671783425768126,47.14943583313038,8.731377006135176,19.20902941349766,24.696063560538107,24.44785561717879,24.44785561717879,69.85101604908209,52.38826203681151,66.45031091722332
8,253,8,0.2669333333333328,49.23279066447003,131.29790750925383,21.099767427630013,35.341673047043386,35.34167304704325,42.7816249022649,35.341673047043344,140.84083782196257,105.55743133158073,80.88244180591516,73.84918599670516,91.43232551973017,47.47447671216753,58.02436042598265,15.82482557072251,26.374709284537516,24.866314382560365,24.61639533223513,24.61639533223513,70.33255809210004,49.23279066447003,63.39691113390411
9,253,9,0.3002999999999994,60.34958337470768,129.96799509426404,21.55639531470631,39.143097777394544,35.61524729486533,46.612063442833566,35.615247294865334,156.57239110957846,117.42929333218393,86.82431421244598,77.9646903132168,102.77163723105843,54.929668175220854,65.56121685429594,23.035022137995952,33.666570817070806,25.058800551629332,24.806946917841742,24.806946917841742,74.420840753525,53.157743395375064,64.18184526925374
10,253,10,0.333666666666666,70.18083899194323,125.24871362508092,21.344668888254198,42.68933777650832,38.75863515775547,46.154240811626714,35.265435142746945,169.01784206809546,126.52030677026677,91.23509068952603,84.21700679033177,108.78030043751187,61.4082341179502,71.93535996674177,22.808772672381565,36.8449404707701,24.812673580282155,24.563293647180103,24.563293647180217,77.1989228911375,52.635629243957396,67.04015231539911
11,253,11,0.3670333333333326,66.16956368510932,130.53976668151267,28.077688290621442,42.36776238210154,38.93674801089614,45.80656457756925,34.82608615005756,170.96735438206514,128.90357244265132,95.7717369126583,87.06521537514391,107.96086706517849,62.686955070103636,73.13478091512081,24.37826030504027,31.343477535051875,24.62576167889256,24.37826030504027,24.37826030504027,76.61738953012662,55.72173784009203,69.99956683570366
12,253,12,0.4003999999999992,73.36238527897238,134.24346904119054,20.936956903608575,38.54270793360795,39.01371573204343,45.89711212119391,31.59870139712671,164.33992317777225,125.81545278023388,88.9820668403363,83.74782761443419,104.68478451804276,62.81087071082561,69.78985634536184,24.42644972087669,38.384420989949035,24.674440339920213,24.42644972087669,26.171196129510804,73.27934916262996,55.831885076289495,69.87703921051613
13,253,13,0.4337666666666658,62.37332378268627,146.56543211542754,20.791107927562052,34.82467478288326,41.72634875126923,45.18048026939661,34.651846545936905,152.50749681692992,117.81627825618523,86.62961636484204,79.69924705565472,97.02517032862306,53.71036214620199,64.10591610998313,25.988884909452622,29.454069564046222,24.502555673267565,24.256292582155766,24.256292582155766,69.30369309187358,55.442954473498844,72.85133542475891
14,253,14,0.4671333333333324,48.57825119925417,160.21657402002515,20.819250513966153,34.87181303171946,38.168625942270864,45.639081148131574,38.32602300566952,142.43404013965002,107.62207883100749,83.2770020558645,76.33725188454241,90.21675222718648,45.108376113593295,58.987876456237245,20.81925051396604,24.28912559962714,24.28912559962714,24.28912559962714,24.28912559962714,69.39750171322032,58.98787645623736,65.92762662755922
15,253,15,0.5004999999999991,44.74618865871901,165.5390709347001,20.65208707325496,27.536116097673244,44.74618865871912,48.31097586206394,38.01829291374783,130.8418332902877,103.31778634840592,80.88734103691525,72.28230475639225,82.60834829301973,39.58316689040532,53.35122493924189,22.373094329359446,18.931079817150362,24.338718025255968,24.094101585464045,24.09410158546416,68.84029024418305,58.51424670755557,65.39827573197385
16,253,16,0.5338666666666656,41.682436751218574,170.52198326392192,17.367681979674444,31.454209856528237,41.82691703452719,48.753406583491135,41.68243675121869,132.04007956171057,100.7325554821117,79.89133710650242,69.47072791869778,79.89133710650242,32.99859576138135,57.31335053292571,22.577986573576823,12.157377385772065,24.56161140263842,24.314754771544244,24.314754771544244,69.47072791869766,59.05011873089302,69.55751212232666
17,253,17,0.5672333333333321,41.63850102793219,166.87898784340882,17.349375428305052,31.22887577094923,41.78282902058226,45.639081148131794,41.63850102793219,131.85525325511867,100.62637748416944,79.8071269702034,69.39750171322032,79.8071269702034,32.963813313779724,57.25293891340675,22.554188056796534,12.14456279981357,21.106426155874207,24.28912559962714,24.28912559962714,69.39750171322032,58.987876456237245,66.01887598144145
18,253,18,0.6005999999999987,35.19643175056815,172.17745131485788,21.013055132701766,28.01740684360243,45.66278652058845,49.15538055322439,42.026110265403645,126.12696274818188,98.12344287764135,80.55004467535684,66.54134125355574,80.55004467535696,31.519582699052762,52.532637831754414,21.013055132701766,10.506527566350996,24.764122962967054,24.515230988152098,24.515230988152098,70.04351710900607,59.53698954265519,73.62903088690364
19,253,19,0.6339666666666652,30.97813060988244,169.21973954523935,17.210072561045763,31.168767059112056,41.44734329034224,44.87837857347279,41.30417414650981,120.51966953227516,89.49237731743801,74.00331201249685,65.39827573197397,79.16633378081053,30.97813060988244,48.18820317092809,13.768058048836565,10.32604353662748,24.33871802525608,24.09410158546416,24.09410158546416,65.39827573197385,55.07223219534649,68.92628689263351
20,253,20,0.6673333333333318,24.515230988152098,165.1973047073118,17.857663026974638,28.017406843602316,42.171781794967536,45.66278652058843,45.52828612085386,115.62485432433607,87.6244119083512,75.29678089218146,66.54134125355563,80.55004467535684,28.01740684360243,42.02611026540353,10.506527566350883,10.506527566350883,17.857663026974638,21.013055132701766,19.2619672049766,70.04351710900607,59.53698954265508,70.04351710900619
21,253,21,0.7006999999999983,20.831010367202225,170.43846176304905,20.831010367202225,27.990829122977367,45.2671909628885,45.2671909628885,41.662020734404564,111.15295614370646,83.32404146880901,72.9085362852079,65.9648661628072,76.38037134640831,29.510598020203133,39.92610320380436,8.679587653000908,8.679587653000908,14.31474267205182,14.314742672051874,12.151422714201317,69.43670122400749,59.02119604040638,69.43670122400727
22,253,22,0.7340666666666649,20.8412183756094,167.0550736498431,17.367681979674444,28.004545722123048,45.15597314715342,48.753406583491135,41.682436751218574,107.73563848753449,79.89133710650242,69.47072791869778,62.523655126827975,72.94426431463262,26.05152296951178,39.94566855325115,8.683840989837108,8.683840989837336,10.98428654664683,13.8941455837396,12.157377385772065,69.47072791869778,59.05011873089313,66.08853716028277
23,253,23,0.7674333333333314,21.13746561984644,167.12440287921999,20.849867652627267,27.799823536836357,45.308169116388356,48.64969118946374,41.69973530525465,111.25357742817089,83.47183458994607,72.9745367841956,66.02458089998652,76.4495147263001,29.537312507888714,39.96224633420229,12.162422797365934,8.687444855261447,13.899911768418178,13.899911768418178,13.899911768418178,66.02458089998652,59.07462501577743,69.58637906187819
24,253,24,0.800799999999998,28.052912106435542,161.4566341071266,21.039684079826657,28.052912106435542,42.07936815965331,45.585982172957756,38.572754146348984,115.71826243904673,87.66535033261118,73.63889427939341,70.13228026608897,77.14550829269785,35.06614013304443,42.07936815965331,14.026456053217771,14.026456053217771,17.533070066522214,17.533070066522214,17.533070066522214,66.62566625278441,59.61243822617553,70.13228026608886
25,253,25,0.8341666666666645,34.47123256411669,155.27367643419205,17.576948750202458,31.024109307704975,44.94498844845802,48.25972558976332,41.50886071683556,124.0964372308199,93.07232792311493,75.83671164105658,72.38958838464498,79.2838348974683,34.47123256411669,48.25972558976321,17.23561628205823,13.788493025646744,20.968032181420536,20.682739538469946,18.959177910264202,65.49534187182167,58.60109535899835,69.0285894155644
26,253,26,0.867533333333331,38.58313372940813,161.50008064293328,21.045345670586357,28.060460894114954,42.23658672262377,45.598248952936956,38.58313372940813,126.27207402351758,98.21161312940262,78.92004626469861,73.65870984705191,80.67382507058073,38.58313372940813,49.10580656470131,21.045345670586357,17.537788058821775,21.33564001370266,24.5529032823506,22.799124476468478,66.6435946235232,63.136037011758845,73.74217583399619
27,253,27,0.9008999999999976,41.73755248531097,153.07721154103942,21.156635030333685,27.825034990207314,38.25942311153494,48.69381123286303,38.417194597838275,128.6907868297087,100.8657518395014,79.99697559684591,79.99697559684591,83.47510497062183,43.476617172198985,46.954746545974785,15.651582181991557,22.6078409295435,24.3469056164314,21.15663503033376,20.868776242655485,69.56258747551817,66.08445810174226,69.56258747551828
28,253,28,0.934266666666664,41.73913043478262,149.60565681813256,17.39130434782612,31.304347826086882,38.26086956521749,45.217391304347984,38.26086956521738,128.695652173913,97.39130434782612,76.52173913043475,80.0,83.47826086956525,43.47826086956525,46.95652173913038,15.652173913043498,26.086956521739125,24.595018476053813,24.347826086956616,24.347826086956616,66.08695652173913,62.60869565217388,73.12624710131693
29,253,29,0.9676333333333308,38.26086956521738,149.56521739130426,20.86956521739137,27.82608695652175,38.26086956521749,45.21739130434753,34.78260869565213,121.73913043478262,93.91304347826087,74.78260869565224,83.47826086956525,83.47826086956525,48.69565217391312,38.26086956521738,10.434782608695627,27.82608695652175,28.04263564625584,24.347826086956616,26.08695652173924,73.0434782608695,69.56521739130426,76.52173913043453
30,253,30,1.0009999999999972,34.78129373775914,142.60330432481237,20.868776242655485,31.303164363983228,38.25942311153494,38.25942311153494,34.78129373775903,121.73452808215688,90.43136371817366,73.04071684929409,79.99697559684591,79.99697559684591,45.215681859086885,41.73755248531097,10.434388121327743,24.3469056164314,24.594088660410673,24.3469056164314,24.3469056164314,76.51884622307,73.04071684929409,83.5475345764139
