,video_id,frame_seq,time_seconds,m1,m3,m4,m5,m6,m7,m8,m9,m10,m11,m12,m13,m14,m15,m16,m17,e1,e2,e3,b1,b2,b3,label_measures
0,179,0,0.0,7.840967045326693,133.30566411849514,6.272773636261377,17.2501274997187,34.64252469580053,36.10252347364459,47.280446132904565,78.55068106454607,61.34022146521015,57.239059430884765,53.31857590822148,51.75038249915616,5.488676931728719,25.87519124957805,7.056870340793921,2.352290113598088,12.64317946306773,12.64317946306773,14.11374068158807,50.18218909009079,48.61399568102547,43.90941545382941,"{'others': ['m1', 'm3', 'm12', 'e1', 'e2']}"
1,179,1,0.0333666666666666,1.6061019297956136,136.5564494371753,9.769536638400064,20.87932508734229,35.47995128998638,36.97524315962394,48.42337388786309,80.56166294693085,59.772027917052206,58.62272043753819,56.213567542844885,53.00136368325366,6.424407719182227,25.697630876729026,3.212203859591113,1.6061019297956136,14.454917368160125,16.1411246292877,16.864070262853488,53.001363683253714,51.39526175345816,56.23650717552502,"{'others': ['m1', 'm3', 'm12', 'e1', 'e2']}"
2,179,2,0.0667333333333332,3.439468643138806,129.24349771092756,7.690885692537222,19.996302800596936,30.916977850503145,33.87483758001049,46.553687727559485,77.04716849925319,57.09932326385656,55.37437698626849,52.29802270925353,49.22166843223857,4.614531415522379,26.149011354626737,4.614531415522379,1.5381771385075351,10.876554853047413,9.356366263074468,10.767239969552122,50.75984557074605,50.75984557074605,53.83619984776101,"{'others': ['m1', 'm3', 'm12', 'e1', 'e2']}"
3,179,3,0.1000999999999998,3.465834966066942,130.20658106929065,7.74984258292136,21.754844823010632,32.696621676697234,35.68295494032513,46.60227217391622,79.10915407371174,57.36977681054107,55.79886659703328,52.69892956386474,51.14896104728047,5.424889808044895,27.12444904022459,3.874921291460737,2.324952774876351,10.84977961608979,10.959932487023812,11.624763874381928,52.69892956386474,51.14896104728047,51.14896104728052,"{'others': ['m1', 'm3', 'm12', 'e1', 'e2']}"
4,179,4,0.1334666666666664,6.388525988903861,128.60394693371302,9.29667086267807,24.83949526803401,34.12298965488619,37.21894955955975,46.58653613694094,86.8242477436389,61.99717079016944,58.87891546362766,54.23058003228857,54.23058003228857,7.747225718898335,32.53834801937319,6.197780575118713,1.5494451437796215,12.39556115023737,10.956231682431763,12.39556115023737,54.23058003228863,54.23058003228863,62.05522964864594,"{'others': ['m1', 'm3', 'm12', 'e1', 'e2']}"
5,179,5,0.166833333333333,4.959062984310541,128.60142134279414,9.538948108923243,25.14005282485784,31.520297421936306,34.53587736824488,47.15023259418043,86.37884893900768,61.23991032455746,58.80725283995014,56.45496272635216,54.88676931728685,8.62506374985935,30.579771476774,3.9204835226632895,3.920483522663403,12.545547272522697,12.64317946306773,13.329643977055298,58.02315613541748,56.45496272635216,61.239910324557584,"{'others': ['m1', 'm3', 'm12', 'e1', 'e2']}"
6,179,6,0.2001999999999996,4.667000138621233,127.5646704556475,9.334000277242469,26.44633411885377,32.70601968020858,35.81413727032959,46.90277091689752,87.24225529096579,60.85023705756145,58.33750173276559,54.44833495058123,54.44833495058123,7.778333564368722,32.66900097034875,4.667000138621233,1.5556667128737445,14.001000415863755,12.445333702990013,13.223167059426885,59.11533508920252,59.11533508920252,59.135800845429,"{'others': ['m1', 'm3', 'm12', 'e1', 'e2']}"
7,179,7,0.2335666666666662,10.80565736050471,125.04642074973152,7.87117967691572,23.15498005822417,33.99570261900288,35.537844853888274,47.953113347860736,89.65227669783282,66.53895976814329,60.97478081999043,55.57195213973807,57.11561747695305,8.490159354682191,33.188804750121335,8.490159354682191,3.859163343037381,16.98031870936444,17.05034093925717,17.752151377971927,63.290278825812834,61.74661348859792,63.290278825812834,"{'others': ['m1', 'm3', 'm12', 'e1', 'e2']}"
8,179,8,0.2669333333333328,10.886703367354698,127.52995373186876,9.33146002916112,24.932447395628824,32.6971187372823,35.804390453232486,48.61223980287719,93.63804874946976,68.71289655969169,62.9873551968376,59.09924685135388,59.09924685135388,10.886703367354698,34.215353440257445,9.33146002916112,4.6657300145806175,17.107676720128723,15.630002109421724,17.107676720128723,63.76497686593439,62.20973352774087,59.11970703782491,"{'others': ['m1', 'm3', 'm12', 'e1', 'e2']}"
9,179,9,0.3002999999999994,16.855290935151086,125.14182441613497,9.156038037465692,24.463742652071417,32.082446041511794,35.098145810284905,47.69837896005608,98.09265609472024,73.64462958353373,64.85526943204815,57.98824090394902,59.51424724352654,11.445047546832145,38.91316165922888,12.97105388640955,5.34102218852172,18.375549665860376,16.786069735353692,17.549072905142452,61.04025358310423,59.5142472435266,54.95741867041304,"{'others': ['m1', 'm3', 'm12', 'e1', 'e2']}"
10,179,10,0.333666666666666,6.218905397475851,129.07974484659965,10.993575445282126,26.47603569669077,32.68624966967936,35.758706035486625,47.054557734854406,90.65534552818995,64.21603289324466,60.634327625390426,55.9701485772834,59.07960127602138,10.883084445582767,32.64925333674876,4.66417904810703,3.109452698737869,18.65671619242784,18.65671619242778,19.434079367112304,63.743780324128295,62.1890539747593,65.31701269814927,"{'others': ['m1', 'm3', 'm12', 'e1', 'e2']}"
11,179,11,0.3670333333333326,6.147302214453362,126.01969539629567,9.348144893124209,23.052383304200475,32.273336625880575,36.88381328672074,44.67380329669695,83.11655002494466,60.11326107295871,56.86254548369448,55.32571993008105,55.32571993008105,10.757778875293525,27.662859965040525,1.536825553613312,3.0736511072267376,18.505830254940093,18.5058302549401,19.210319420167025,59.93619659092116,58.39937103730779,61.473022144534525,"{'others': ['m1', 'm3', 'm12', 'e1', 'e2']}"
12,179,12,0.4003999999999992,6.19592147329206,128.5747014392458,10.95294522366044,24.78368589316824,32.56544733610985,35.66020605897499,45.027130191977975,86.86728308552406,62.13323065762167,58.86125399627463,55.76329325962854,57.31227362795153,11.61735276242257,30.205117182298864,3.872450920807637,3.8724509208075233,15.567060041204323,13.940823314907108,15.48980368323015,58.86125399627457,57.31227362795153,66.62416480289025,"{'others': ['m1', 'm3', 'm12', 'e1', 'e2']}"
13,179,13,0.4337666666666658,9.485807543223851,131.00368308007512,11.027027284780711,28.07022876983126,35.90139977544859,38.98642884698791,43.77604838780408,92.06081985583872,64.01376919002972,59.25937184742151,56.140457539662464,57.699914693541984,13.255385807975811,35.087785962289104,5.458100038578323,5.458100038578323,7.797285769397547,9.862873039405889,10.136471500216828,60.81882900130103,56.140457539662464,68.63383358694504,"{'others': ['m1', 'm3', 'm12', 'e1', 'e2']}"
14,179,14,0.4671333333333324,9.642356784900365,139.53306725763247,11.209012081701164,26.994875823325906,41.24550918606962,44.38542333888779,42.829575026805216,90.41164409086248,63.42755945300164,58.6521665549588,53.89658548293511,57.0669728642842,12.681549525396576,34.8742611948403,4.755581072023574,4.755581072023801,9.51116214404732,10.025645190120056,9.511162144047375,63.40774762698248,57.06697286428425,65.01227007386666,"{'others': ['m1', 'm3', 'm12', 'e1', 'e2']}"
15,179,15,0.5004999999999991,8.432740427115712,136.2710843470425,9.395523512235286,26.666666666666675,39.179320528668185,40.74403794854524,42.30884439660628,86.12563219548991,59.52558289640761,55.59018078072535,51.6753793172939,54.80722048803904,10.961444097607796,32.8843322928235,4.697761756117643,4.697761756117529,11.072730647165322,11.072730647165338,11.744404390293994,59.50498224415662,53.24129990266641,57.93906165878411,"{'others': ['m1', 'm3', 'm12', 'e1', 'e2']}"
16,179,16,0.5338666666666656,6.3540580523879,137.19123103407017,9.246512647518216,24.70547904152485,40.097846779009245,40.068221472579125,43.17790296824347,83.23288191415222,58.56124676761573,55.479075885109694,50.85581956135053,53.93799044385668,9.24651264751833,30.82170882506091,3.082170882506034,3.082170882506148,9.246512647518273,9.746680126570489,9.246512647518216,61.64341765012182,53.93799044385662,64.74393218852484,"{'others': ['m1', 'm3', 'm12', 'e1', 'e2']}"
17,179,17,0.5672333333333321,4.971303636021741,139.9931814565525,11.116172866936388,26.771289386283748,39.33303479366038,42.47483688527985,44.0177988042945,86.47782367777693,59.73844123439977,57.38034486988403,50.30605577633668,55.02224850536817,8.646353336557922,33.799381224726176,3.930160607526318,2.3580963645157453,11.116172866936315,11.444800442125205,11.004449701073668,64.45463396343132,51.878120019347136,64.76065175016655,"{'others': ['m1', 'm3', 'm12', 'e1', 'e2']}"
18,179,18,0.6005999999999987,4.623256323759165,134.21606758500002,10.897119658978935,26.198452501301745,36.98605059007309,38.55794542132073,44.69147779633829,86.31454330487098,60.12208646813973,57.79070404698916,50.85581956135047,57.020161326362654,9.24651264751833,32.36279426631393,4.623256323759165,1.541085441253017,13.869768971277438,12.708116104775828,13.09922625065093,60.1023322088688,52.3969050026036,58.58152069821022,"{'others': ['m1', 'm3', 'm12', 'e1', 'e2']}"
19,179,19,0.6339666666666652,7.83162283662005,132.2308517594202,9.34256121496077,26.155563986662152,36.893766660911474,38.42839593905719,44.54132047475787,87.56020518411047,61.43630410311437,57.59653509666976,50.68495088506938,56.82858129538079,9.215445615467274,33.789967256712885,4.607722807733467,3.071815205155758,16.964653959515076,16.964653959515076,17.662937429645353,58.364488897958665,52.220858487647206,56.84933301463931,"{'others': ['m1', 'm3', 'm12', 'e1', 'e2']}"
20,179,20,0.6673333333333318,6.298580918221485,133.12313877278766,10.801977158805965,26.014605919143264,38.190756496069525,39.747753404475816,42.77364727559785,85.56093301992338,59.577580133868366,56.52231961418289,48.88416831496892,56.52231961418289,9.929596688978108,32.84405058661969,3.81907564960693,2.291445389764249,18.39510425532189,21.44131244875424,20.62300850787756,62.63284065355396,50.41179857481171,52.029211838286415,"{'others': ['m1', 'm3', 'm12', 'e1', 'e2']}"
21,179,21,0.7006999999999983,9.12818105581846,131.15530017779042,9.254092949351657,25.90788700294371,36.51272422327372,38.06450284158182,44.119541769789066,88.29152876473712,62.39445433652191,57.81181335351664,48.683632297698296,57.81181335351664,9.12818105581846,34.99136071397061,4.564090527909116,3.0427270186062287,16.80400919862731,18.319642585996284,17.495680356985304,57.81181335351664,47.16226878839518,54.95892775798893,"{'others': ['m1', 'm3', 'm12', 'e1', 'e2']}"
22,179,22,0.7340666666666649,9.19486240117078,136.60552493143985,9.321694080848353,26.097144068511373,36.77944960468346,39.96211272081357,42.93671481330441,87.3646345581921,61.29908267447229,56.70165147388684,47.50678907271606,55.16917440702503,8.42862386773993,36.0132110712525,5.363669734016298,2.2987156002926667,15.62826093612361,18.45346754044665,17.623486268910767,56.70165147388684,44.44183493899237,52.30665487232805,"{'others': ['m1', 'm3', 'm12', 'e1', 'e2']}"
23,179,23,0.7674333333333314,6.343116269304005,139.87254572600557,9.514674403956064,27.004844428493037,41.2302557504762,42.8453910329877,45.98759295245429,88.81778538338278,61.84538362571436,58.673825491062416,47.57337201978021,57.08804642373627,6.343116269304005,36.47291854849823,6.343116269304005,0.0,12.784959572638815,14.620160610656589,14.272011605934154,58.67382549106236,47.573372019780265,47.8106471676105,"{'others': ['m1', 'm3', 'm12', 'e1', 'e2']}"
24,179,24,0.800799999999998,6.461855489340152,142.9276099430731,9.403380960009486,26.642912720026857,40.74798416004103,42.43114663132279,43.882444480044114,86.21190516970721,59.57536396057373,56.420285760056686,43.882444480044114,53.2858254400536,4.7016904800048,37.61352384003783,6.268920640006286,1.5672301600014862,12.92371097868036,14.449148134944828,14.888686520015028,57.98751592005834,47.016904800047314,48.685141586668,"{'others': ['m1', 'm3', 'm12', 'e1', 'e2']}"
