,video_id,frame_seq,time_seconds,m1,m3,m4,m5,m6,m7,m8,m9,m10,m11,m12,m13,m14,m15,m16,m17,e1,e2,e3,b1,b2,b3
0,276,0,0.0,6.66065628598179,153.33982308844028,18.83918090788211,28.648565931993836,43.42216647980062,43.42216647980062,34.28782680835443,86.84433295960147,58.25694958748827,54.16264511016118,32.968566588793806,61.22733795061697,14.129385680911582,37.67836181576433,4.709795226970527,9.419590453941055,28.648565931993776,28.648565931993723,28.258771361823165,80.06651885849908,37.67836181576422,62.83650572906687
1,276,1,0.0333666666666666,14.815831024632647,153.47084248281774,19.317480250172597,28.498819995163934,38.63496050034497,43.195198993395366,25.230451085075263,87.52633219992441,59.26332409853135,49.19436003932742,28.1110628796157,60.907302905833944,21.08329715971172,39.824005746122225,7.027765719903982,2.3425885733012137,29.631662049265746,28.111062879615588,28.111062879615474,84.33318863884688,37.48141717282084,67.08152803480758
2,276,2,0.0667333333333332,14.898845011809042,149.7315392670372,19.42571724714522,29.79769002361783,38.85143449429033,43.437224276306914,25.371818811215118,89.39307007085374,59.59538004723591,49.4699989803122,32.979999320208094,65.9599986404163,25.912856608734955,35.33571355736592,2.3557142371578266,2.355714237157713,24.023665727431194,23.557142371577356,23.557142371577356,89.51714101199366,37.691427794523634,73.14103870420675
3,276,3,0.1000999999999998,19.539907191408243,145.99270054745438,19.539907191408243,24.164883733207084,43.69256075402588,43.692560754025855,27.633601757601227,89.91854820682262,66.00835364757505,52.13035964202152,33.173865226740986,66.34773045348197,26.0651798210107,35.54342702865108,2.369561801910095,2.369561801909981,17.087153154335287,17.087153154335287,11.847809009550247,94.78247207640288,37.912988830561176,69.00268122938726
4,276,4,0.1334666666666664,13.520536708357358,139.20244525688295,19.709399784730135,29.077013637569507,40.842316658688,39.418799569460184,30.232839172167978,90.69851751650364,62.1430107464466,52.58254755468545,28.681389575282992,66.92324234232694,19.120926383522033,38.24185276704395,4.780231595880423,4.780231595880423,17.235370127540108,15.116419586083845,14.340694787641496,90.82440032172946,38.24185276704395,65.01817907629413
5,276,5,0.166833333333333,10.745081473378091,139.9338028764777,19.81295126820877,30.39167989691053,39.62590253641773,39.62590253641776,30.39167989691053,91.17503969073148,60.78335979382095,52.85881171614358,33.6374256375459,72.08019779474125,24.02673259824701,33.637425637546016,4.8053465196493335,0.0,17.32592327296841,17.32592327296841,14.416039558948228,96.10693039298837,38.44277215719541,69.96690143823884
6,276,6,0.2001999999999996,6.673157615650776,128.36074964110924,19.45543052179001,29.843268106330992,38.91086104358021,44.764902159496614,25.410627150231946,80.63207025895075,50.82125430046389,44.82703251855628,28.311810011719786,66.0608900273462,23.593175009766583,28.311810011719672,9.437270003906633,1.1368683772161603e-13,17.013280449741707,17.013280449741806,11.796587504883178,89.65406503711256,28.31181001171973,64.18037482055438
7,276,7,0.2335666666666662,4.755170343654754,129.35461838646702,24.246706372753188,30.074337896069142,34.618162644054415,40.628193225809035,31.898652399009197,90.22301368820753,60.148675792138384,54.68445895202956,38.04136274923803,76.08272549847595,28.53102206192841,28.53102206192841,9.510340687309508,0.0,17.145010497612933,19.60606959469318,16.64309620279164,90.3482365294401,28.531022061928468,64.67730919323307
8,276,8,0.2669333333333328,10.551188625377367,129.82679163106363,24.06041195248178,29.843268106330992,34.35218134162554,34.35218134162551,27.51413370572295,91.13197887162728,61.3422550253928,51.904985021486254,33.03044501367299,75.49816003125272,30.671127512696444,30.67112751269633,2.3593175009766583,2.3593175009766583,21.102377250754888,21.102377250754838,18.874540007813152,89.65406503711262,28.31181001171973,65.72298044551678
9,276,9,0.3002999999999994,14.981168335116122,134.83051501604606,19.53305372860718,29.96233667023246,34.48923955135845,43.67723594532089,31.779857159573677,95.92628207164425,65.98520175683888,54.48080604176391,37.89969115948793,80.53684371391194,30.793499067083985,30.793499067083985,2.3687306974679814,7.106192092403944,21.186571439715735,19.53305372860707,18.949845579743965,85.27430510884795,18.949845579743965,65.98520175683886
10,276,10,0.333666666666666,19.677108834878222,140.3604916479647,19.677108834878222,32.0142317107324,40.775402535809164,40.77540253580912,36.345514734023794,107.24634893286849,75.45826779045444,62.04119857227681,42.95159901157626,85.90319802315264,31.02059928613835,35.79299917631374,2.386199945087469,7.158599835262635,21.34282114048835,24.33456016667123,23.861999450875828,85.9031980231527,19.089599560700606,66.47183868435052
11,276,11,0.3670333333333326,30.302160763142766,145.481932989629,19.754591932991808,34.880406457821636,39.50918386598337,45.45324114471408,32.140295040334664,116.67315688717808,81.87192994233152,62.28549992347621,47.91192301805859,91.03265373431145,40.72513456534989,40.72513456534989,2.395596150902975,16.769173056320483,21.426863360223074,24.43038304028368,23.955961509029294,86.24146143250556,19.164769207223458,65.16726079469294
12,276,12,0.4003999999999992,29.029375231556724,140.36049164796466,24.334560166671142,34.74359563606537,39.354217669756196,45.27496067427243,30.55826940750238,116.21553175915878,81.55080507161881,62.04119857227704,47.72399890175154,90.6755979133278,45.33779895666396,40.565399066488794,2.386199945087583,16.70339961561308,21.34282114048835,25.700159934143652,23.86199945087577,81.13079813297759,19.089599560700606,53.35705285122098
13,276,13,0.4337666666666658,30.183307116181798,146.39681850966193,19.67710883487822,34.74359563606537,39.354217669756224,45.27496067427243,32.0142317107325,116.21553175915878,81.55080507161881,62.04119857227704,42.95159901157638,90.6755979133278,38.17919912140121,42.95159901157638,4.772399890175166,14.317199670525383,19.677108834878275,24.334560166671125,23.861999450875715,85.9031980231527,19.089599560700606,57.665127277364185
14,276,14,0.4671333333333324,15.037168948034624,145.86828970801164,24.246706372753188,25.60737598657916,36.21429841700747,45.111506844103836,31.898652399009098,96.2848609535328,70.69068923398153,59.4396292956842,38.04136274923792,85.59306618578535,33.28619240558328,28.531022061928297,4.755170343654868,4.755170343654868,25.607375986579214,28.924571991568335,28.53102206192841,85.59306618578529,23.775851718273657,57.45694187465345
15,276,15,0.5004999999999991,0.0,146.57960678205183,25.99603366640928,25.99603366640928,35.143582147414506,39.80728408226806,36.763943378943814,88.74960768017411,62.755449418296884,57.92810715535086,43.446080366513115,86.89216073302623,31.37772470914831,16.89569792031068,12.068355657364691,2.413671131472938,25.99603366640928,29.363576637972304,26.550382446202548,86.89216073302623,24.136711314729496,58.32899849345154
16,276,16,0.5338666666666656,4.827342262945876,146.57960678205228,24.61471239755229,25.99603366640928,41.24483037453964,41.24483037453918,36.763943378943814,88.74960768017411,62.755449418296884,57.92810715535086,43.446080366513115,86.89216073302623,31.37772470914831,16.89569792031068,16.89569792031068,2.413671131472938,25.99603366640928,25.99603366640928,26.550382446202434,82.06481847008035,19.30936905178362,58.32899849345113
17,276,17,0.5672333333333321,20.111214944471843,146.7364934602538,24.871416537760616,26.26714345487188,35.51009071730097,41.6749681940815,37.14735051867942,107.97218421915798,81.76491826410674,68.28760521516563,53.65454695477297,92.67603564915328,39.021488694380196,29.266116520785317,4.877686086797439,9.755372173594992,21.813675325968383,20.1112149444719,19.510744347190098,82.92066347555811,24.38843043398765,55.61417807514516
18,276,18,0.6005999999999987,44.05157590868292,149.86065607824196,20.057600828204286,26.197118362549105,44.85015891742101,49.610224576066926,30.76695519101747,120.34560496922582,94.45505352556978,70.53789992716816,58.37619304317366,92.4289723183582,46.21448615917916,41.34980340558127,7.297024130396721,21.891072391190164,6.879700326780428,13.759400653560776,9.72936550719561,77.83492405756488,29.18809652158683,43.51104530406241
19,276,19,0.6339666666666652,43.87026628646983,158.69498598596815,19.975046777556944,29.468919089666837,44.6655624483556,49.40603639686411,32.49897031803347,124.55583401432085,95.18247570835467,70.24757660220882,58.13592546389691,92.04854865117022,46.02427432558511,46.02427432558511,12.111651138311913,21.8009720489614,17.467671683886202,10.832990106011156,12.111651138311856,77.514567285196,29.067962731948512,50.579740085188696
20,276,20,0.6673333333333318,34.33508017497369,158.09058127916302,20.02062008059283,29.536152773511056,49.518756847214085,48.799317780642745,29.53615277351087,113.35777548884046,83.82261314529823,65.55213366563066,58.268563258338304,87.40284488750751,43.70142244375381,38.84570883889228,4.855713604861535,19.42285441944614,10.857705699740793,10.857705699740793,12.139284012153837,72.83570407292297,33.989995234030744,41.487235226126245
21,276,21,0.7006999999999983,34.19468758754124,148.57011742339228,24.90848275286877,30.895170472719677,44.23515225478188,49.09319387969648,20.141186965489993,109.23092273587217,78.76753855808647,61.06194212060939,58.61946443578495,83.04424128402866,51.292031381311745,36.63716527236568,2.442477684824439,21.98229916341927,10.923092273587404,10.92309227358715,9.769910739297472,68.38937517508242,34.19468758754118,40.28237393098003
22,276,22,0.7340666666666649,29.053050074649605,150.80868372073357,19.368700049766403,29.453800730825982,39.03886301267493,48.42175012441612,24.690344876671066,102.14579378880767,72.79385207798606,58.10610014929921,58.106100149299095,72.63262518662395,41.15848760575352,36.31631259331198,2.421087506220829,16.94761254354546,14.526525037324802,15.312301868469637,14.526525037324745,67.7904501741823,38.73740009953275,39.929598068046445
23,276,23,0.7674333333333314,14.5811140943581,146.1348064715705,29.564484821055053,29.564484821054865,44.01253462251235,48.846127688557225,20.039824516740225,93.49110988400913,63.92820422965405,55.894270695039495,58.32445637743251,68.04519910700458,43.74334228307441,29.1622281887162,4.860371364786033,14.5811140943581,10.868120767554947,14.5811140943581,12.150928411965083,63.18482774221849,43.743342283074355,44.810409876597916
24,276,24,0.800799999999998,14.564994642813872,150.81784507297982,29.531801222434172,29.531801222434286,43.96387867519594,43.96387867519594,19.419992857085276,92.75461064610643,63.301432071464035,55.832479464119956,58.2599785712556,67.96997499979818,43.694983928441616,29.129989285627857,0.0,14.564994642813872,14.564994642813872,14.564994642813929,14.564994642813929,58.2599785712556,38.83998571417038,44.76087187655175
25,276,25,0.8341666666666645,9.621112643789388,149.20481542272117,24.052781609473413,29.261471744710256,38.48445057515755,43.29500689705219,24.5291205565782,87.12288044691634,57.926768926702074,52.916119540841464,62.537232184630966,67.3477885065256,40.88972873610487,21.647503448526095,7.2158344828420695,16.836947126631458,9.621112643789331,15.21231478970934,12.026390804736764,57.726675862736215,43.29500689705219,43.56144022345815
26,276,26,0.867533333333331,19.254761394275192,149.30202078529288,24.545101019745665,28.88214209141279,43.32321313711918,43.32321313711918,19.254761394275192,91.58670508010108,62.76284339658108,52.95059383425689,57.76428418282569,62.57797453139449,40.9163679628349,31.288987265697187,2.406845174284399,16.847916219990793,15.222225452247303,14.441071045706451,14.441071045706394,52.95059383425678,43.32321313711918,48.376989281706486
27,276,27,0.9008999999999976,15.611427845019199,157.97654245643207,24.68383475881751,34.55736866234463,44.43090256587175,49.36766951763502,24.683834758817625,98.85868116835157,64.36756597172324,56.77281994528039,64.17797037292564,64.17797037292564,39.49413561410802,34.55736866234463,0.0,14.810300855290507,14.810300855290507,14.810300855290564,14.810300855290564,54.30443646939864,44.43090256587158,44.43090256587175
28,276,28,0.934266666666664,19.51219512195121,151.29816994410584,24.39024390243901,29.268292682926926,48.780487804877794,49.02378351766263,19.51219512195121,92.68292682926835,63.41463414634143,53.65853658536582,63.41463414634143,58.536585365853625,41.46341463414626,31.707317073170884,2.439024390243844,17.07317073170725,14.634146341463463,9.756097560975604,12.195121951219505,48.78048780487802,43.90243902439022,48.780487804877794
29,276,29,0.9676333333333308,19.506393963766868,156.35564205178838,24.38299245470853,29.25959094565019,49.00920828810997,49.00920828810997,20.10673067188043,92.78361411774976,63.583065222709656,53.64258340035883,63.395780382242265,53.64258340035883,39.012787927533736,34.13618943659185,4.87659849094166,19.506393963766868,19.50639396376681,14.629795472825094,14.629795472825094,48.76598490941706,48.76598490941706,43.889386418475624
30,276,30,1.0009999999999972,19.499149787053398,156.297575558141,19.499149787053284,29.248724680579926,43.873087020870116,48.99100751937285,24.85663631566337,92.74915665226244,63.55945209558237,53.622661914396645,63.37223680792329,53.62266191439653,34.12351212734336,34.12351212734325,4.874787446763321,14.624362340290077,14.624362340289963,14.624362340289963,14.624362340289963,43.87308702087,48.74787446763332,48.99100751937286
