,frame_seq,m1,m3,m4,m5,m6,m7,m8,m9,m10,m11,m12,m13,m14,m15,m16,m17,e1,e2,e3,b1,b2,b3
0,0,1.0,50.00999900019995,7.0,9.0,13.038404810405298,13.0,11.0,28.0,19.0,18.5,18.0,17.0,6.5,10.5,0.5,0.5,11.0,10.04987562112089,10.0,24.0,27.0,26.0
1,1,0.0,51.03920062069938,7.0,10.0,12.0,13.038404810405298,11.0,28.0,18.0,18.0,18.0,16.0,6.0,11.0,0.0,0.0,11.0,10.04987562112089,10.0,25.0,27.0,27.0
2,2,0.0,49.01020301937138,7.0,10.04987562112089,13.038404810405298,13.0,10.0,27.018512172212592,17.0,17.0,17.0,16.0,6.5,10.5,0.5,0.5,10.0,9.055385138137417,9.5,24.0,28.0,26.0
3,3,0.0,51.03920062069938,7.0,9.0,14.0,14.035668847618199,11.0,27.0,18.0,18.0,18.0,16.0,6.0,10.0,0.0,0.0,10.0,10.04987562112089,10.0,24.0,28.0,25.019992006393608
4,4,1.0,50.039984012787215,7.0710678118654755,9.0,13.038404810405298,14.035668847618199,10.04987562112089,27.0,18.0,17.5,18.0,16.0,7.0,10.0,0.0,1.0,11.0,9.055385138137417,9.5,24.0,28.0,27.0
5,5,0.0,52.08646657242167,7.0,10.0,14.035668847618199,15.033296378372908,11.0,28.0,18.0,18.0,19.0,16.0,6.5,10.5,0.5,0.5,10.0,10.04987562112089,10.5,24.0,28.0,26.019223662515376
6,6,0.0,51.03920062069938,7.0710678118654755,10.0,13.0,14.0,11.045361017187261,28.0,18.0,18.0,18.0,16.0,6.0,11.0,0.0,0.0,10.0,10.04987562112089,10.0,24.0,28.0,27.018512172212592
7,7,0.0,51.03920062069938,7.0710678118654755,10.0,13.0,14.0,11.0,28.0178514522438,18.027756377319946,18.0,18.0,16.0,6.0,11.0,0.0,0.0,10.0,10.04987562112089,9.5,23.0,28.0,27.018512172212592
8,8,0.0,51.03920062069938,7.0,10.04987562112089,14.0,14.0,11.0,28.0178514522438,18.0,18.0,18.0,16.0,6.0,11.0,0.0,0.0,10.0,10.04987562112089,10.0,23.0,27.0,26.0
9,9,0.0,51.03920062069938,7.0,10.04987562112089,14.0,14.035668847618199,11.0,28.0178514522438,18.0,18.0,18.0,16.0,6.0,11.0,1.0,0.0,10.0,10.04987562112089,9.5,25.0,29.0,26.0
10,10,1.0,51.03920062069938,7.0,9.0,13.0,14.035668847618199,11.0,27.018512172212592,18.027756377319946,18.0,18.0,16.0,6.0,10.0,0.0,0.0,10.0,10.198039027185569,10.0,24.0,27.0,26.019223662515376
11,11,1.0,51.03920062069938,7.0,9.0,13.0,14.035668847618199,11.0,27.018512172212592,18.027756377319946,18.0,18.0,16.0,6.0,10.0,0.0,0.0,10.0,10.04987562112089,10.0,24.0,27.0,26.0
12,12,0.0,50.00999900019995,7.0,10.04987562112089,13.0,13.038404810405298,11.0,28.0178514522438,18.0,18.0,18.0,17.0,6.5,10.5,0.5,0.5,11.0,10.04987562112089,10.0,24.0,27.0,26.019223662515376
13,13,1.0,50.00999900019995,7.0710678118654755,9.0,13.0,14.035668847618199,11.045361017187261,28.0,19.0,18.5,18.0,17.0,6.5,10.5,0.5,0.5,11.045361017187261,10.04987562112089,10.0,24.0,28.0,27.018512172212592
14,14,1.0,50.00999900019995,6.0,9.0,14.035668847618199,15.033296378372908,11.0,27.0,18.0,17.5,17.0,16.0,5.5,10.5,0.5,0.5,10.0,10.04987562112089,10.5,24.0,28.0,26.019223662515376
15,15,0.0,51.0098029794274,7.0,10.0,14.0,14.0,11.0,28.0,18.0,18.0,17.0,16.0,5.5,11.5,0.5,0.5,10.0,9.055385138137417,9.5,24.0,27.0,27.0
16,16,0.0,50.00999900019995,7.0,10.04987562112089,13.0,13.0,11.0,28.0178514522438,18.0,18.0,18.0,17.0,6.5,10.5,0.5,0.5,11.0,9.055385138137417,9.5,24.0,27.0,26.019223662515376
17,17,1.0,51.0098029794274,6.082762530298219,9.0,14.0,14.035668847618199,11.0,27.018512172212592,18.027756377319946,17.5,17.0,16.0,5.5,10.5,0.5,0.5,11.0,10.04987562112089,10.5,24.0,28.0,26.019223662515376
18,18,0.0,50.039984012787215,6.082762530298219,10.0,13.0,14.0,11.045361017187261,27.0,17.0,17.0,17.0,15.0,5.0,11.0,1.0,0.0,10.0,10.04987562112089,10.0,23.0,27.0,27.018512172212592
19,19,1.0,50.039984012787215,6.0,9.055385138137417,13.0,14.035668847618199,11.0,27.018512172212592,18.0,17.5,17.0,15.0,5.0,11.0,1.0,0.0,10.0,9.219544457292887,9.5,23.0,27.0,26.019223662515376
20,20,0.0,50.00999900019995,7.0710678118654755,10.0,13.0,14.0,11.045361017187261,28.0,18.0,18.0,17.0,16.0,5.5,11.5,0.5,0.5,10.0,10.04987562112089,10.0,23.0,26.0,26.0
21,21,0.0,50.00999900019995,7.0710678118654755,10.0,13.0,14.0,10.04987562112089,27.0,17.0,17.0,16.0,15.0,5.5,11.5,0.5,0.5,11.045361017187261,10.04987562112089,9.5,24.0,27.0,26.0
22,22,0.0,50.039984012787215,7.0,10.0,13.0,15.0,10.04987562112089,27.018512172212592,17.029386365926403,17.0,16.0,14.0,5.0,12.0,1.0,1.0,11.0,10.04987562112089,10.0,22.0,26.0,26.0
23,23,1.0,50.039984012787215,6.0,9.055385138137417,14.0,15.033296378372908,10.0,26.019223662515376,17.0,16.5,16.0,14.0,5.0,11.0,1.0,0.0,11.045361017187261,10.04987562112089,10.5,23.0,27.0,27.018512172212592
24,24,1.0,51.0098029794274,7.0,9.055385138137417,14.0,14.0,10.0,27.018512172212592,18.0,17.5,16.0,15.0,5.5,11.5,0.5,0.5,10.04987562112089,10.04987562112089,10.0,23.0,27.0,26.0
25,25,1.0,50.039984012787215,6.0,9.0,13.0,14.0,10.0,26.0,17.0,16.5,16.0,14.0,5.0,11.0,1.0,0.0,10.0,10.0,10.0,23.0,27.0,26.019223662515376
26,26,1.0,51.0098029794274,6.082762530298219,9.0,14.0,15.033296378372908,10.04987562112089,26.0,17.0,16.5,15.0,14.0,4.5,11.5,1.5,0.5,10.04987562112089,10.04987562112089,10.5,23.0,26.0,27.0
27,27,1.0,51.0098029794274,6.0,10.0,14.0,14.035668847618199,10.0,27.0,17.0,16.5,15.0,14.0,4.5,12.5,1.5,0.5,10.04987562112089,10.04987562112089,10.0,23.0,26.0,26.0
28,28,1.0,50.00999900019995,6.0,9.0,14.0,15.0,10.0,26.0,17.0,16.5,15.0,14.0,4.5,11.5,1.5,0.5,11.0,10.04987562112089,10.5,23.0,26.0,26.0
29,29,1.0,52.009614495783374,6.0,10.0,14.0,15.0,10.0,27.0,17.0,16.5,15.0,14.0,4.5,12.5,1.5,0.5,10.0,10.04987562112089,10.0,23.0,27.0,28.0
30,30,1.0,51.0098029794274,6.0,9.0,15.0,14.035668847618199,10.0,26.0,17.0,16.5,15.0,14.0,4.5,11.5,1.5,0.5,10.0,10.0,10.0,24.0,27.0,26.0
31,31,1.0,51.0098029794274,6.0,9.0,13.0,14.035668847618199,10.0,26.0,17.0,16.5,15.0,14.0,4.5,11.5,1.5,0.5,11.0,10.04987562112089,10.5,24.0,28.0,26.0
32,32,0.0,51.03920062069938,6.0,10.0,14.0,14.0,11.0,27.0,17.0,17.0,16.0,14.0,4.0,12.0,1.0,1.0,10.0,10.04987562112089,10.0,24.0,27.0,26.019223662515376
33,33,1.0,51.0098029794274,6.0,10.04987562112089,14.0,15.0,10.0,27.018512172212592,17.0,16.5,15.0,14.0,4.5,12.5,1.5,0.5,11.0,10.04987562112089,10.0,23.0,26.0,27.0
34,34,1.4142135623730951,52.009614495783374,6.0,9.0,14.0,15.033296378372908,10.04987562112089,26.0,17.0,16.5,15.0,14.0,4.5,11.5,1.5,0.5,10.0,10.04987562112089,10.5,24.0,27.0,26.019223662515376
35,35,1.0,52.009614495783374,7.0710678118654755,10.04987562112089,14.0,15.0,10.04987562112089,27.0,17.029386365926403,17.0,15.0,14.0,4.5,12.5,1.5,1.5,11.0,10.04987562112089,10.0,23.0,26.0,27.0
36,36,1.0,51.0098029794274,6.0,9.0,15.0,15.0,11.0,27.0,18.0,17.5,16.0,15.0,4.5,11.5,1.5,0.5,11.045361017187261,10.04987562112089,10.5,25.0,27.0,27.0
37,37,1.0,51.0098029794274,6.082762530298219,10.0,15.0,15.033296378372908,10.04987562112089,27.0,17.0,16.5,16.0,15.0,5.5,11.5,0.5,0.5,11.045361017187261,11.045361017187261,11.0,24.0,26.0,27.0
38,38,1.0,50.00999900019995,6.0,10.0,14.0,15.0,10.0,27.0,17.0,16.5,15.0,14.0,4.5,12.5,1.5,0.5,11.045361017187261,11.045361017187261,11.0,24.0,27.0,27.0
39,39,1.4142135623730951,51.03920062069938,6.0,10.04987562112089,15.0,15.0,11.045361017187261,28.0178514522438,18.110770276274835,17.5,17.0,15.0,5.0,12.0,1.0,0.0,11.045361017187261,11.045361017187261,11.5,25.0,28.0,27.0
40,40,0.0,51.0,7.0,11.0,14.0,14.0,10.04987562112089,28.0178514522438,17.029386365926403,17.0,16.0,16.0,6.0,12.0,0.0,0.0,12.041594578792296,11.045361017187261,11.0,24.0,27.0,26.0
41,41,0.0,50.00999900019995,7.0,11.0,14.0,14.0,11.0,29.0,18.0,18.0,17.0,16.0,5.5,12.5,0.5,0.5,11.045361017187261,10.04987562112089,10.5,25.0,27.0,26.0
42,42,2.0,51.0098029794274,6.0,11.0,14.0,15.0,10.04987562112089,29.017236257093817,18.027756377319946,17.0,17.0,16.0,6.5,12.5,0.5,1.5,10.0,10.04987562112089,10.5,25.0,28.0,27.0
43,43,6.0,52.0,5.0,11.0,14.0,14.0,10.0,32.0,21.0,18.0,17.0,17.0,7.0,15.0,4.0,3.0,7.0,6.082762530298219,6.0,27.0,29.0,28.0178514522438
44,44,7.0,53.0,5.0,11.0,14.0,14.0,11.045361017187261,34.0147027033899,23.021728866442675,19.5,18.0,18.0,7.0,16.0,4.0,2.0,5.0,4.0,4.0,29.0,31.0,34.0
45,45,8.0,53.0,6.0,11.045361017187261,13.038404810405298,15.033296378372908,10.04987562112089,35.0,24.020824298928627,20.0,19.0,19.0,9.0,16.0,4.0,3.0,3.0,4.0,4.0,29.0,33.0,34.0147027033899
46,46,8.0,54.00925846556311,6.0,12.0,15.0,15.0,10.04987562112089,36.013886210738214,24.020824298928627,20.0,19.0,18.0,8.5,17.5,5.5,3.5,6.0,5.0990195135927845,5.0,23.0,28.0,32.0624390837628
47,47,10.0,54.00925846556311,6.0,12.0,14.0,15.0,10.0,38.0,26.0,21.0,20.0,19.0,9.5,18.5,5.5,4.5,7.0,7.0710678118654755,7.5,24.0,29.0,33.06055050963308
48,48,9.0,53.0,5.0,13.0,14.0,16.0,11.0,38.0,25.0,20.5,19.0,19.0,8.0,19.0,6.0,4.0,8.0,8.06225774829855,8.0,24.0,30.0,35.05709628591621
49,49,11.0,54.00925846556311,6.0,12.041594578792296,15.0,16.0,10.04987562112089,39.0,27.018512172212592,21.5,20.0,19.0,9.5,19.5,6.5,4.5,10.0,9.055385138137417,9.5,25.0,31.0,34.0147027033899
50,50,14.0,55.00909015790027,5.0,12.0,15.033296378372908,17.0,10.0,41.0,29.0,22.0,19.0,18.0,8.5,22.5,9.5,4.5,11.0,10.04987562112089,10.5,30.0,35.0,36.013886210738214
51,51,13.0,56.00892785976178,6.0,12.0,16.0,16.0,10.0,41.0,29.0,22.5,20.0,19.0,9.5,21.5,8.5,4.5,10.0,10.04987562112089,10.0,31.0,35.0,36.013886210738214
52,52,14.0,56.00892785976178,5.0,12.0,15.0,16.0,10.0,41.0,29.0,22.0,19.0,18.0,8.5,22.5,9.5,3.5,11.0,10.04987562112089,10.5,30.0,33.0,33.0
53,53,14.0,57.0350769263968,6.0,11.0,16.0,17.0,9.0,40.0,29.0,22.0,19.0,17.0,9.0,22.0,10.0,4.0,11.045361017187261,10.04987562112089,10.5,27.0,30.0,31.0
54,54,13.0,56.0357029044876,5.0,12.041594578792296,15.033296378372908,16.0312195418814,10.0,40.01249804748511,28.0,21.5,19.0,17.0,8.0,22.0,9.0,4.0,11.0,10.04987562112089,10.5,26.0,29.0,30.0
55,55,14.0,56.0357029044876,5.0,11.045361017187261,16.0312195418814,17.029386365926403,10.0,40.01249804748511,29.0,22.0,19.0,17.0,8.0,22.0,10.0,4.0,11.045361017187261,10.04987562112089,10.5,26.0,30.0,30.0
56,56,10.04987562112089,58.034472514187634,6.0,12.0,15.033296378372908,16.0312195418814,10.0,38.01315561749642,26.019223662515376,21.0,18.0,16.0,7.0,21.0,9.0,3.0,10.0,9.055385138137417,9.5,24.0,27.0,30.0
57,57,10.04987562112089,58.034472514187634,6.0,12.0,15.033296378372908,16.0312195418814,10.0,38.01315561749642,26.019223662515376,21.0,18.0,16.0,7.0,21.0,9.0,3.0,10.0,9.055385138137417,9.5,24.0,27.0,30.0
58,58,10.0,58.077534382926416,5.0,11.045361017187261,16.0312195418814,17.029386365926403,10.0,36.013886210738214,25.0,20.0,18.0,15.0,6.5,19.5,7.5,2.5,11.0,9.055385138137417,9.5,25.0,28.0,30.0
59,59,8.06225774829855,59.07622195096772,6.0,11.0,16.0,17.029386365926403,9.0,34.0147027033899,23.021728866442675,19.0,18.0,15.0,7.5,17.5,6.5,2.5,10.04987562112089,9.055385138137417,9.5,25.0,28.0,30.0
60,60,8.0,59.07622195096772,5.0,11.045361017187261,16.0312195418814,17.0,9.0,33.015148038438355,22.0,18.0,17.0,14.0,6.5,17.5,6.5,2.5,10.0,9.055385138137417,9.0,24.0,27.0,29.0
61,61,8.0,58.034472514187634,6.082762530298219,11.0,15.033296378372908,16.0,8.0,33.015148038438355,22.02271554554524,18.0,16.0,14.0,7.0,18.0,6.0,2.0,10.0,10.0,10.0,24.0,27.0,28.0178514522438
62,62,8.0,59.07622195096772,5.0,11.0,16.0,16.0,9.0,33.0,22.0,18.0,17.0,14.0,6.5,17.5,6.5,1.5,9.0,9.0,9.5,24.0,27.0,28.0
63,63,9.0,59.033888572581766,6.0,11.0,16.0,17.0,8.0,34.0,23.0,18.5,17.0,15.0,8.0,18.0,6.0,2.0,10.0,10.0,9.5,24.0,27.0,30.0
64,64,9.0,57.07889277132134,6.0,11.0,16.0312195418814,16.0,9.0,35.0,24.0,19.5,19.0,16.0,8.5,17.5,5.5,3.5,10.0,9.0,9.5,25.0,28.0,30.0
65,65,9.0,58.034472514187634,6.082762530298219,11.0,15.0,16.0312195418814,9.055385138137417,35.0,24.0,19.5,19.0,17.0,9.0,17.0,5.0,4.0,10.0,10.0,10.0,26.0,28.0,30.0
66,66,10.0,57.0350769263968,6.0,11.0,15.0,16.0312195418814,9.0,36.0,25.0,20.0,20.0,18.0,10.0,17.0,5.0,4.0,10.0,9.0,9.5,26.0,29.0,30.0
67,67,8.0,55.08175741568164,6.0,12.0,14.0,16.0312195418814,10.0,36.0,24.0,20.0,20.0,17.0,8.5,17.5,5.5,3.5,10.0,10.04987562112089,9.5,26.0,28.0,30.0
68,68,5.0990195135927845,55.08175741568164,7.0,11.0,15.033296378372908,16.0,12.0,35.014282800023196,24.020824298928627,21.5,21.0,18.0,7.5,15.5,3.5,1.5,9.0,9.0,9.5,26.0,30.0,29.0
69,69,1.0,54.08326913195984,8.0,10.0,14.0,15.0,12.0,31.0,21.0,20.5,20.0,17.0,6.5,12.5,1.5,0.5,10.0,9.055385138137417,9.5,26.0,29.0,29.017236257093817
70,70,1.0,56.0357029044876,8.0,11.0,14.0,15.0,12.0,30.0,19.0,19.5,19.0,17.0,6.0,12.0,1.0,1.0,10.0,9.055385138137417,9.5,25.0,28.0,30.01666203960727
71,71,1.0,55.00909015790027,7.0,11.0,14.035668847618199,16.0312195418814,12.0,29.0,18.0,18.5,17.0,16.0,4.5,12.5,1.5,1.5,10.0,10.04987562112089,10.0,25.0,28.0,29.0
72,72,0.0,54.00925846556311,8.0,11.0,15.033296378372908,16.0312195418814,12.0,31.0,20.0,20.0,17.0,16.0,4.5,14.5,2.5,1.5,11.0,10.04987562112089,10.0,25.0,28.0,28.0
73,73,5.0990195135927845,56.00892785976178,8.06225774829855,13.0,16.0,17.0,11.045361017187261,37.013511046643494,24.020824298928627,21.5,17.0,16.0,5.5,20.5,6.5,1.5,11.0,11.045361017187261,10.5,24.0,26.0,29.0
74,74,10.0,57.0087712549569,7.0,12.0,16.0312195418814,18.0,9.0,38.0,26.0,21.0,17.0,16.0,7.5,21.5,8.5,1.5,11.0,10.04987562112089,10.0,25.0,27.0,27.018512172212592
75,75,10.04987562112089,58.034472514187634,6.0,13.0,16.0,17.0,9.0,38.01315561749642,25.019992006393608,20.0,17.0,15.0,7.0,22.0,9.0,1.0,11.0,10.04987562112089,10.0,25.0,27.0,28.0
76,76,10.0,58.034472514187634,5.0,13.0,16.0,17.029386365926403,9.0,37.0,24.0,19.0,17.0,15.0,7.0,21.0,7.0,2.0,10.0,10.04987562112089,10.0,25.0,27.0,29.017236257093817
77,77,9.0,58.034472514187634,6.082762530298219,12.0,16.0,18.027756377319946,8.0,35.014282800023196,23.021728866442675,18.5,16.0,14.0,7.0,20.0,7.0,2.0,10.04987562112089,9.055385138137417,9.5,25.0,28.0,29.0
78,78,10.0,58.008620049092706,6.0,12.041594578792296,17.029386365926403,17.0,8.0,36.013886210738214,24.0,19.0,16.0,15.0,7.5,20.5,7.5,2.5,11.045361017187261,10.198039027185569,10.5,25.0,28.0,30.01666203960727
79,79,10.0,59.033888572581766,6.0,12.0,16.0,17.0,8.0,36.0,24.0,19.0,17.0,15.0,8.0,20.0,7.0,2.0,11.0,10.04987562112089,10.5,24.0,27.0,29.017236257093817
80,80,7.0,56.00892785976178,7.0,13.0,16.0,17.029386365926403,9.0,36.0,23.0,19.5,17.0,16.0,7.5,19.5,6.5,1.5,11.0,10.0,10.5,25.0,27.0,29.0
81,81,1.0,53.009433122794285,8.0,11.0,15.0,16.0312195418814,11.0,31.0,20.0,19.5,16.0,15.0,4.5,15.5,3.5,2.5,11.045361017187261,10.0,10.5,26.0,27.0,29.0
82,82,1.0,53.03772242470448,7.0,11.0,14.035668847618199,16.0,12.0,31.0,20.0,19.5,18.0,16.0,5.0,14.0,2.0,1.0,11.045361017187261,11.045361017187261,11.0,25.0,27.0,29.017236257093817
83,83,0.0,53.009433122794285,8.0,11.0,14.0,15.0,11.0,30.0,19.0,19.0,17.0,16.0,5.5,13.5,1.5,1.5,11.045361017187261,11.045361017187261,10.5,25.0,27.0,27.0
84,84,1.0,53.03772242470448,9.0,12.041594578792296,15.033296378372908,15.033296378372908,10.0,32.01562118716424,20.0,19.5,18.0,16.0,7.0,15.0,2.0,0.0,10.0,9.055385138137417,9.5,25.0,27.0,28.0178514522438
85,85,7.0,55.08175741568164,7.0,12.041594578792296,15.0,17.029386365926403,8.0,34.0147027033899,22.0,18.5,18.0,15.0,8.5,17.5,4.5,2.5,11.045361017187261,10.04987562112089,10.0,24.0,27.0,27.018512172212592
86,86,6.0,55.036351623268054,7.0,14.0,16.0312195418814,17.0,7.0,34.0,20.0,17.0,17.0,15.0,9.0,18.0,4.0,3.0,11.045361017187261,10.0,10.0,25.0,27.0,27.018512172212592
87,87,6.0,57.0350769263968,7.0,13.0,16.0,18.027756377319946,7.0,33.0,20.0,17.0,17.0,15.0,9.0,17.0,4.0,3.0,11.0,10.04987562112089,10.5,24.0,26.0,30.01666203960727
88,88,6.0,57.0350769263968,7.0,13.0,16.0,18.027756377319946,7.0,33.0,20.0,17.0,17.0,15.0,9.0,17.0,4.0,3.0,11.0,10.04987562112089,10.5,24.0,26.0,30.01666203960727
89,89,6.082762530298219,57.0350769263968,7.0710678118654755,12.041594578792296,17.0,17.0,8.0,33.015148038438355,21.0,18.0,18.0,16.0,9.0,16.0,3.0,3.0,10.0,10.04987562112089,10.0,24.0,27.0,28.0
90,90,8.06225774829855,58.034472514187634,7.0,12.041594578792296,17.0,17.0,8.0,35.0,23.021728866442675,19.0,18.0,16.0,9.0,18.0,5.0,3.0,11.045361017187261,10.0,10.0,24.0,27.0,29.017236257093817
91,91,9.0,57.07889277132134,6.0,12.0,17.0,17.029386365926403,9.0,36.0,24.0,19.5,19.0,16.0,8.5,18.5,6.5,3.5,10.0,10.04987562112089,10.0,25.0,28.0,29.0
92,92,9.0,57.0087712549569,6.0,12.0,16.0,17.029386365926403,9.0,36.0,24.0,19.5,17.0,16.0,7.5,19.5,6.5,2.5,10.0,10.04987562112089,10.0,25.0,28.0,29.017236257093817
93,93,8.0,58.034472514187634,6.0,12.0,16.0,17.029386365926403,9.0,35.0,23.0,19.0,18.0,16.0,8.0,18.0,6.0,3.0,10.0,10.04987562112089,10.0,25.0,28.0,29.0
94,94,9.0,58.008620049092706,6.0,12.0,16.0,18.0,8.0,35.0,23.0,18.5,17.0,16.0,8.5,18.5,5.5,2.5,10.0,10.04987562112089,10.0,24.0,28.0,29.017236257093817
95,95,8.0,58.034472514187634,6.0,12.0,16.0,17.0,8.0,34.0,22.0,18.0,17.0,15.0,8.0,18.0,6.0,2.0,10.0,10.04987562112089,10.0,24.0,28.0,28.0178514522438
96,96,5.0,58.077534382926416,6.0,12.0,16.0,17.029386365926403,9.0,32.0,20.0,17.5,18.0,15.0,7.5,15.5,3.5,2.5,11.0,10.0,10.5,24.0,27.0,29.017236257093817
97,97,1.0,57.07889277132134,6.0,11.045361017187261,15.0,16.0312195418814,10.0,28.0178514522438,17.0,16.5,17.0,14.0,5.5,12.5,0.5,0.5,11.0,10.04987562112089,10.5,24.0,27.0,29.0
98,98,1.0,55.08175741568164,8.0,11.045361017187261,15.033296378372908,15.033296378372908,11.045361017187261,29.068883707497267,18.027756377319946,18.5,18.0,15.0,5.5,12.5,1.5,0.5,10.0,10.04987562112089,10.5,25.0,28.0,29.0
99,99,0.0,54.08326913195984,7.0710678118654755,11.0,15.033296378372908,14.035668847618199,11.0,29.017236257093817,18.027756377319946,18.0,18.0,15.0,5.5,12.5,1.5,0.5,10.0,10.04987562112089,10.0,24.0,28.0,28.0
100,100,2.0,53.150729063673246,7.0,11.0,14.035668847618199,15.033296378372908,12.041594578792296,32.01562118716424,21.02379604162864,20.0,20.0,16.0,6.0,14.0,2.0,0.0,10.0,9.055385138137417,9.5,23.0,28.0,27.018512172212592
101,101,3.1622776601683795,51.15662224971465,7.0,12.0,13.038404810405298,14.035668847618199,12.0,34.0147027033899,22.02271554554524,20.5,20.0,16.0,6.0,16.0,4.0,0.0,10.0,9.055385138137417,9.5,23.0,29.0,27.018512172212592
102,102,0.0,52.08646657242167,8.0,10.04987562112089,13.038404810405298,14.035668847618199,14.0,32.01562118716424,22.0,22.0,21.0,18.0,5.5,12.5,2.5,0.5,10.0,10.04987562112089,10.0,23.0,28.0,28.0178514522438
103,103,1.0,52.08646657242167,8.0,10.0,13.038404810405298,14.035668847618199,14.0,32.01562118716424,22.02271554554524,22.0,21.0,18.0,5.5,12.5,2.5,0.5,10.0,9.055385138137417,9.0,23.0,28.0,27.018512172212592
104,104,0.0,53.08483775994799,8.0,11.0,12.041594578792296,13.038404810405298,14.035668847618199,33.015148038438355,22.02271554554524,22.0,21.0,18.0,5.5,13.5,2.5,1.5,9.0,9.055385138137417,9.5,23.0,28.0,29.017236257093817
105,105,3.0,53.08483775994799,8.06225774829855,11.0,13.038404810405298,14.0,12.0,34.0147027033899,23.021728866442675,21.5,20.0,17.0,6.5,15.5,3.5,0.5,10.0,9.055385138137417,9.0,23.0,28.0,28.0178514522438
106,106,7.0,55.08175741568164,7.0710678118654755,13.0,15.0,16.0312195418814,10.0,37.013511046643494,24.020824298928627,20.5,20.0,17.0,8.5,18.5,5.5,1.5,9.0,10.04987562112089,10.0,23.0,28.0,28.0178514522438
107,107,10.0,57.07889277132134,6.0,12.041594578792296,15.033296378372908,17.029386365926403,9.0,37.013511046643494,25.0,20.0,19.0,16.0,8.5,19.5,6.5,3.5,10.0,9.055385138137417,9.5,23.0,27.0,28.0
108,108,10.0,56.08029957123981,6.0,12.0,16.0312195418814,17.029386365926403,9.0,37.0,25.0,20.0,19.0,16.0,8.5,19.5,7.5,3.5,10.0,9.055385138137417,9.5,24.0,28.0,27.0
109,109,9.055385138137417,57.07889277132134,6.082762530298219,11.045361017187261,15.033296378372908,16.0312195418814,8.06225774829855,34.0,23.021728866442675,18.5,17.0,14.0,7.5,18.5,6.5,2.5,11.0,10.04987562112089,10.0,23.0,28.0,28.0178514522438
110,110,7.0,58.077534382926416,7.0,12.041594578792296,16.0,17.029386365926403,8.0,34.0147027033899,22.0,18.5,17.0,14.0,7.5,18.5,6.5,1.5,11.0,9.055385138137417,9.5,23.0,27.0,29.017236257093817
111,111,9.0,58.077534382926416,5.0,11.0,16.0,17.029386365926403,9.0,34.0,23.0,18.5,17.0,14.0,6.5,18.5,6.5,1.5,10.0,10.04987562112089,10.0,23.0,27.0,29.0
112,112,7.0,58.077534382926416,6.0,12.0,16.0312195418814,17.029386365926403,8.0,33.0,21.0,17.5,16.0,13.0,6.5,18.5,6.5,1.5,10.0,10.04987562112089,10.0,23.0,27.0,29.017236257093817
113,113,7.0,58.077534382926416,6.082762530298219,12.0,15.033296378372908,16.0312195418814,8.06225774829855,33.0,21.0,17.5,16.0,13.0,6.5,18.5,6.5,1.5,10.0,10.04987562112089,10.0,25.0,29.0,29.017236257093817
114,114,7.0,58.077534382926416,6.0,11.0,16.0,17.029386365926403,9.0,33.0,22.0,18.5,17.0,14.0,6.5,17.5,6.5,1.5,10.04987562112089,10.04987562112089,10.0,29.0,33.0,36.013886210738214
115,115,7.0,57.0350769263968,6.082762530298219,11.0,17.0,17.0,9.0,33.015148038438355,22.02271554554524,18.5,16.0,14.0,6.0,18.0,6.0,1.0,5.0,6.0,6.0,29.0,34.0,37.013511046643494
116,116,8.0,58.008620049092706,6.0,11.0,16.0,17.0,9.055385138137417,34.0147027033899,23.021728866442675,19.0,17.0,16.0,7.5,17.5,5.5,2.5,3.1622776601683795,4.0,4.0,25.0,29.0,32.01562118716424
117,117,8.0,58.008620049092706,6.0,12.0,16.0,18.0,9.055385138137417,35.014282800023196,23.021728866442675,19.0,17.0,16.0,7.5,18.5,6.5,2.5,3.0,4.0,4.0,25.0,30.0,32.0624390837628
118,118,10.04987562112089,57.0,6.0,11.0,15.0,17.0,10.0,37.013511046643494,26.019223662515376,21.0,18.0,18.0,8.0,19.0,7.0,3.0,4.0,5.0,4.5,24.0,27.0,31.016124838541646
119,119,13.038404810405298,57.0,6.0,11.045361017187261,16.0,16.0,9.055385138137417,39.01281840626232,28.071337695236398,21.5,19.0,19.0,10.0,20.0,8.0,5.0,9.0,8.0,8.5,25.0,29.0,36.013886210738214
120,120,14.035668847618199,56.00892785976178,6.0,11.0,15.033296378372908,17.0,9.055385138137417,40.049968789001575,29.068883707497267,22.0,19.0,20.0,10.5,20.5,8.5,4.5,10.0,9.0,9.0,27.0,32.0,38.05259518088089
121,121,14.035668847618199,56.00892785976178,5.0,11.0,15.033296378372908,17.0,10.04987562112089,40.049968789001575,29.068883707497267,22.0,19.0,20.0,9.5,20.5,8.5,4.5,10.04987562112089,9.0,9.0,28.0,32.0,38.05259518088089
122,122,14.0,57.0,6.0,10.0,16.0,16.0,10.04987562112089,40.01249804748511,30.01666203960727,23.0,19.0,19.0,9.0,21.0,9.0,4.0,10.04987562112089,10.0,10.5,32.0,34.0,38.0
123,123,14.0,57.0,6.0,10.0,16.0,16.0,10.04987562112089,40.01249804748511,30.01666203960727,23.0,19.0,19.0,9.0,21.0,9.0,4.0,10.04987562112089,10.0,10.5,32.0,34.0,38.0
124,124,13.0,56.00892785976178,6.0,12.0,14.0,16.0,9.055385138137417,40.01249804748511,28.0178514522438,21.5,18.0,19.0,9.5,21.5,8.5,4.5,11.045361017187261,10.0,10.0,32.0,34.0,37.013511046643494
125,125,14.035668847618199,58.0,5.0,11.0,15.0,17.029386365926403,10.0,40.01249804748511,29.017236257093817,22.0,19.0,19.0,9.0,21.0,9.0,4.0,11.0,10.04987562112089,10.5,33.0,34.0,38.0
126,126,14.0,57.0,5.0,11.0,15.033296378372908,16.0,10.04987562112089,40.01249804748511,29.017236257093817,22.0,18.0,18.0,8.0,22.0,10.0,3.0,11.045361017187261,10.04987562112089,10.0,32.0,33.0,36.013886210738214
127,127,13.0,56.00892785976178,5.0,11.0,15.0,15.033296378372908,9.219544457292887,38.05259518088089,27.073972741361768,20.5,18.0,17.0,8.5,20.5,8.5,3.5,11.045361017187261,11.045361017187261,11.0,33.0,33.0,35.014282800023196
128,128,12.041594578792296,57.0,5.0,10.0,15.0,17.0,9.0,36.013886210738214,26.019223662515376,20.0,17.0,17.0,8.0,19.0,8.0,3.0,10.04987562112089,10.0,10.5,30.0,32.0,35.0
129,129,10.0,56.00892785976178,5.0,10.0,15.0,16.0,10.04987562112089,35.014282800023196,25.019992006393608,20.0,18.0,17.0,7.5,17.5,6.5,2.5,10.04987562112089,11.045361017187261,10.5,29.0,32.0,34.0
130,130,7.0710678118654755,56.00892785976178,6.0,11.0,15.0,16.0,9.0,33.015148038438355,22.02271554554524,18.5,17.0,16.0,7.5,16.5,4.5,2.5,11.0,10.04987562112089,10.5,30.0,32.0,34.0
131,131,6.0,56.0357029044876,6.0,10.0,15.0,15.033296378372908,9.0,31.0,21.0,18.0,17.0,15.0,7.0,15.0,4.0,1.0,11.0,10.04987562112089,10.0,30.0,32.0,34.0
132,132,3.0,55.036351623268054,7.0,10.0,14.035668847618199,14.035668847618199,9.0,29.0,19.0,17.5,17.0,15.0,7.0,13.0,2.0,1.0,11.0,11.045361017187261,11.0,30.0,32.0,33.0
133,133,1.0,55.08175741568164,8.0,11.0,14.0,15.033296378372908,10.0,28.0,17.0,17.5,18.0,15.0,6.5,11.5,0.5,0.5,11.0,11.045361017187261,11.0,30.0,32.0,34.0
134,134,0.0,54.037024344425184,7.0,11.045361017187261,14.035668847618199,15.0,10.0,28.0178514522438,17.0,17.0,17.0,15.0,6.0,12.0,1.0,0.0,11.045361017187261,10.04987562112089,10.5,30.0,32.0,33.0
135,135,0.0,53.03772242470448,7.0,11.0,15.0,15.033296378372908,10.0,28.0,17.0,17.0,17.0,15.0,6.0,12.0,0.0,0.0,11.045361017187261,10.04987562112089,10.0,29.0,32.0,34.0147027033899
136,136,1.0,55.08175741568164,8.0,11.0,15.0,15.033296378372908,9.0,27.0,16.0,16.5,17.0,14.0,6.5,11.5,0.5,0.5,11.0,10.0,10.0,29.0,31.0,32.0
137,137,0.0,55.00909015790027,7.0,12.0,15.0,16.0,9.0,28.0,16.0,16.0,16.0,15.0,6.5,12.5,0.5,0.5,11.045361017187261,10.0,10.0,30.0,31.0,33.0
138,138,1.0,53.0,7.0,12.0,15.0,15.0,10.0,30.0,18.0,17.5,17.0,17.0,7.0,13.0,0.0,1.0,10.04987562112089,10.04987562112089,10.5,30.0,31.0,33.0
139,139,1.0,51.0,9.0,13.0,14.035668847618199,15.0,10.0,33.0,20.0,19.5,17.0,17.0,7.0,16.0,2.0,1.0,11.0,10.04987562112089,10.5,31.0,31.0,30.01666203960727
140,140,4.0,50.0,8.0,12.0,15.0,15.0,11.0,35.0,23.0,21.0,19.0,19.0,8.0,16.0,2.0,1.0,10.04987562112089,10.04987562112089,10.0,30.0,30.0,29.017236257093817
141,141,5.0,49.0,8.06225774829855,13.0,13.0,14.0,10.0,36.013886210738214,23.021728866442675,20.5,19.0,19.0,9.0,17.0,2.0,1.0,11.045361017187261,10.0,10.5,28.0,28.0,31.016124838541646
142,142,3.0,48.0,9.0,13.0,14.0,15.0,11.0,36.0,23.0,21.5,20.0,20.0,9.0,16.0,2.0,1.0,11.0,11.0,11.0,29.0,29.0,28.071337695236398
143,143,1.0,49.01020301937138,9.0,13.038404810405298,13.0,14.035668847618199,11.045361017187261,34.0,21.02379604162864,20.5,20.0,19.0,8.5,14.5,0.5,0.5,11.045361017187261,10.0,10.0,28.0,28.0,27.018512172212592
144,144,0.0,49.01020301937138,9.0,12.041594578792296,13.0,14.0,11.045361017187261,32.0,20.024984394500787,20.0,20.0,19.0,8.5,12.5,0.5,0.5,11.0,11.0,10.5,29.0,28.0,30.01666203960727
145,145,1.0,51.0098029794274,8.0,12.0,13.0,15.0,11.045361017187261,32.01562118716424,20.024984394500787,19.5,20.0,19.0,8.5,12.5,0.5,0.5,11.045361017187261,10.04987562112089,10.0,29.0,29.0,29.017236257093817
146,146,1.0,51.0098029794274,8.0,12.0,14.035668847618199,14.0,11.0,32.0,20.0,19.5,20.0,19.0,8.5,12.5,0.5,1.5,10.04987562112089,10.04987562112089,10.0,28.0,28.0,28.0178514522438
147,147,1.0,51.0098029794274,8.06225774829855,12.0,14.0,15.0,11.045361017187261,31.016124838541646,19.026297590440446,19.0,19.0,18.0,7.5,12.5,0.5,0.5,10.04987562112089,10.0,10.0,27.0,28.0,27.0
148,148,1.0,50.039984012787215,8.0,12.0,14.0,14.0,11.0,32.0,20.0,19.5,19.0,17.0,7.0,14.0,1.0,0.0,11.045361017187261,10.04987562112089,10.0,27.0,28.0,28.0
149,149,1.0,52.009614495783374,9.0,13.0,14.0,15.033296378372908,11.045361017187261,34.0147027033899,21.02379604162864,20.5,19.0,18.0,7.5,15.5,1.5,0.5,9.055385138137417,10.0,10.0,26.0,27.0,29.017236257093817
150,150,3.1622776601683795,51.03920062069938,8.0,13.0,14.0,15.033296378372908,11.045361017187261,35.05709628591621,22.090722034374522,20.5,19.0,17.0,7.0,17.0,3.0,0.0,10.0,9.0,9.5,27.0,28.0,28.0178514522438
151,151,3.0,52.009614495783374,8.0,13.038404810405298,13.038404810405298,14.0,12.041594578792296,36.05551275463989,23.021728866442675,21.5,19.0,18.0,6.5,17.5,3.5,0.5,10.04987562112089,10.04987562112089,10.0,25.0,28.0,27.018512172212592
152,152,3.0,52.03844732503075,7.0,12.041594578792296,14.035668847618199,14.035668847618199,12.0,34.0147027033899,22.0,20.5,19.0,17.0,6.0,16.0,3.0,0.0,10.0,9.055385138137417,9.5,25.0,28.0,29.0
153,153,2.0,52.03844732503075,8.0,12.0,14.035668847618199,15.033296378372908,12.041594578792296,34.0147027033899,22.02271554554524,21.0,19.0,17.0,6.0,16.0,3.0,0.0,10.0,9.055385138137417,9.5,25.0,28.0,28.0
154,154,2.0,52.03844732503075,8.0,12.041594578792296,14.0,15.033296378372908,11.0,33.015148038438355,21.0,20.0,18.0,16.0,6.0,16.0,3.0,1.0,10.04987562112089,10.04987562112089,10.0,25.0,27.0,28.0
155,155,3.0,50.00999900019995,8.0,12.0,14.0,16.0,11.045361017187261,34.0147027033899,22.02271554554524,20.5,17.0,16.0,5.5,17.5,3.5,1.5,11.045361017187261,10.04987562112089,10.5,26.0,27.0,27.018512172212592
156,156,8.0,50.00999900019995,6.0,13.0,14.0,15.0,9.055385138137417,36.013886210738214,23.021728866442675,19.0,17.0,16.0,7.5,19.5,5.5,1.5,10.04987562112089,10.04987562112089,10.0,25.0,27.0,27.018512172212592
157,157,8.0,52.03844732503075,7.0,14.0,15.0,16.0312195418814,9.0,38.0,24.0,20.0,18.0,16.0,8.0,21.0,6.0,2.0,10.04987562112089,11.045361017187261,11.0,25.0,28.0,26.019223662515376
158,158,8.0,51.03920062069938,7.0,13.0,15.0,16.0,9.055385138137417,37.013511046643494,24.020824298928627,20.0,18.0,16.0,8.0,20.0,6.0,2.0,10.0,10.0,10.5,24.0,27.0,28.0
159,159,3.0,53.08483775994799,8.0,12.0,14.035668847618199,15.033296378372908,10.04987562112089,33.015148038438355,21.02379604162864,19.5,18.0,15.0,6.5,16.5,3.5,0.5,11.045361017187261,10.04987562112089,10.0,25.0,27.0,28.0
160,160,1.0,54.037024344425184,7.0,10.0,14.035668847618199,14.035668847618199,11.0,29.0,19.0,18.5,17.0,15.0,5.0,13.0,2.0,1.0,10.0,10.04987562112089,10.5,25.0,28.0,27.0
161,161,0.0,54.037024344425184,8.0,11.0,15.0,15.0,11.045361017187261,30.01666203960727,19.026297590440446,19.0,18.0,16.0,6.0,13.0,1.0,1.0,11.045361017187261,10.04987562112089,10.0,26.0,28.0,27.0
162,162,2.0,56.0357029044876,8.06225774829855,12.0,15.033296378372908,16.0,11.0,33.015148038438355,21.02379604162864,20.0,17.0,15.0,5.0,17.0,4.0,1.0,10.0,10.04987562112089,10.0,25.0,28.0,26.019223662515376
163,163,4.0,55.08175741568164,8.0,13.0,16.0312195418814,17.029386365926403,11.045361017187261,36.013886210738214,23.021728866442675,21.0,19.0,16.0,6.5,18.5,4.5,0.5,11.045361017187261,10.04987562112089,10.5,25.0,27.0,27.018512172212592
164,164,6.0,57.0350769263968,8.0,14.035668847618199,16.0,17.0,10.0,38.01315561749642,24.0,21.0,19.0,17.0,8.0,20.0,5.0,1.0,11.0,10.04987562112089,10.0,26.0,28.0,27.018512172212592
165,165,6.0,58.034472514187634,8.0,14.035668847618199,16.0,17.0,9.0,37.013511046643494,23.0,20.0,18.0,16.0,8.0,20.0,5.0,1.0,11.0,10.04987562112089,10.0,27.0,28.0,28.0178514522438
166,166,7.0710678118654755,57.0350769263968,6.0,13.0,15.0,16.0,9.0,35.014282800023196,22.02271554554524,18.5,18.0,16.0,8.0,18.0,4.0,2.0,11.045361017187261,11.045361017187261,10.5,26.0,27.0,29.017236257093817
167,167,5.0,56.0357029044876,7.0,13.0,15.0,16.0,9.055385138137417,34.0147027033899,21.02379604162864,18.5,18.0,16.0,8.0,17.0,3.0,2.0,11.0,10.0,10.0,26.0,28.0,28.0178514522438
168,168,4.0,55.036351623268054,7.0,12.0,14.0,15.0,10.0,33.0,21.0,19.0,19.0,17.0,8.0,15.0,2.0,1.0,11.045361017187261,9.055385138137417,9.5,26.0,28.0,28.0178514522438
169,169,1.4142135623730951,54.037024344425184,8.0,12.0,14.0,15.0,11.0,32.01562118716424,20.024984394500787,19.5,18.0,16.0,6.0,15.0,2.0,1.0,10.0,10.04987562112089,10.5,25.0,27.0,28.0178514522438
170,170,2.0,55.00909015790027,8.0,11.0,13.038404810405298,15.0,10.0,31.0,20.0,19.0,17.0,16.0,6.5,14.5,2.5,0.5,10.0,10.0,10.5,25.0,27.0,28.0178514522438
171,171,1.0,54.037024344425184,8.0,11.0,15.0,16.0,11.0,31.0,20.0,19.5,18.0,16.0,6.0,14.0,2.0,1.0,11.0,10.04987562112089,10.0,25.0,27.0,27.018512172212592
172,172,2.0,53.009433122794285,7.0,11.0,15.0,15.033296378372908,11.0,31.0,20.0,19.0,17.0,16.0,5.5,14.5,2.5,1.5,10.0,10.04987562112089,10.0,25.0,26.0,27.018512172212592
173,173,2.0,54.0,7.0,11.0,15.0,15.0,11.0,31.0,20.0,19.0,16.0,16.0,5.0,15.0,3.0,2.0,10.04987562112089,10.0,10.0,26.0,28.0,28.0178514522438
174,174,2.0,56.00892785976178,7.0,14.0,16.0,16.0312195418814,9.055385138137417,32.01562118716424,18.027756377319946,17.0,17.0,16.0,7.5,15.5,0.5,1.5,10.0,10.0,10.0,25.0,27.0,30.01666203960727
175,175,5.0990195135927845,56.00892785976178,6.082762530298219,13.0,15.0,16.0,9.055385138137417,33.015148038438355,20.024984394500787,17.5,17.0,16.0,7.5,16.5,2.5,1.5,10.0,10.04987562112089,10.0,25.0,28.0,28.0
176,176,6.0,56.00892785976178,6.0,13.0,15.0,17.0,9.0,34.0,21.0,18.0,17.0,16.0,7.5,17.5,3.5,2.5,9.0,9.0,9.5,25.0,27.0,28.0178514522438
177,177,4.0,55.00909015790027,8.0,14.0,15.0,17.0,9.0,35.0,21.0,19.0,17.0,16.0,7.5,18.5,3.5,0.5,10.0,10.04987562112089,10.0,24.0,26.0,27.0
178,178,1.0,54.00925846556311,8.0,12.0,14.0,15.0,11.0,32.0,20.0,19.5,17.0,16.0,5.5,15.5,2.5,1.5,10.0,9.055385138137417,9.5,25.0,27.0,27.018512172212592
179,179,0.0,53.0,7.0,10.0,13.0,14.035668847618199,13.0,30.0,20.0,20.0,17.0,17.0,4.0,13.0,2.0,3.0,10.0,9.055385138137417,9.5,26.0,28.0,27.018512172212592
180,180,0.0,53.009433122794285,7.0,10.0,14.035668847618199,14.035668847618199,13.0,30.0,20.0,20.0,18.0,17.0,4.5,12.5,2.5,1.5,10.0,11.045361017187261,10.5,26.0,28.0,27.018512172212592
181,181,0.0,52.03844732503075,8.0,12.0,14.035668847618199,14.035668847618199,12.0,32.0,20.0,20.0,18.0,16.0,5.0,15.0,2.0,2.0,10.04987562112089,10.04987562112089,10.0,25.0,28.0,27.0
182,182,0.0,52.009614495783374,8.0,12.0,13.0,15.033296378372908,13.0,33.0,21.0,21.0,19.0,18.0,5.5,14.5,1.5,1.5,11.0,10.04987562112089,10.0,25.0,28.0,27.0
183,183,2.0,53.08483775994799,7.0,12.0,15.033296378372908,16.0312195418814,11.0,32.0,20.0,19.0,18.0,15.0,5.5,15.5,2.5,0.5,10.0,10.04987562112089,10.0,25.0,28.0,28.0178514522438
184,184,5.0,53.03772242470448,7.0,13.0,14.0,15.0,9.0,34.0,21.0,18.5,18.0,16.0,8.0,17.0,3.0,2.0,11.0,10.04987562112089,10.5,24.0,28.0,28.0
185,185,5.0,54.037024344425184,6.0,13.0,15.0,16.0312195418814,9.0,33.0,20.0,17.5,17.0,15.0,7.0,17.0,3.0,2.0,10.0,10.04987562112089,10.0,24.0,28.0,27.018512172212592
186,186,5.0,55.036351623268054,7.0,13.0,15.0,16.0,8.0,33.0,20.0,17.5,17.0,15.0,8.0,17.0,4.0,2.0,10.04987562112089,10.04987562112089,10.0,24.0,28.0,27.0
187,187,7.0,56.00892785976178,6.0,12.0,14.0,16.0,8.0,33.0,21.0,17.5,16.0,15.0,7.5,17.5,4.5,1.5,10.0,10.04987562112089,10.0,25.0,28.0,28.0
188,188,7.0,56.00892785976178,5.0,12.0,15.0,16.0,9.0,33.0,21.0,17.5,16.0,15.0,6.5,17.5,4.5,1.5,10.04987562112089,10.04987562112089,10.5,24.0,27.0,28.0
189,189,7.0,55.036351623268054,5.0,11.0,15.0,16.0,9.0,32.0,21.0,17.5,17.0,15.0,7.0,16.0,4.0,2.0,10.04987562112089,10.04987562112089,10.0,25.0,28.0,28.0
190,190,5.0,56.0357029044876,6.0,12.0,15.0,16.0,9.0,32.0,20.0,17.5,16.0,14.0,6.0,17.0,4.0,1.0,10.0,10.04987562112089,10.0,25.0,28.0,28.0
191,191,5.0,56.0357029044876,6.0,11.0,15.0,16.0312195418814,9.0,31.0,20.0,17.5,16.0,14.0,6.0,16.0,4.0,1.0,10.0,10.04987562112089,10.5,26.0,29.0,29.0
192,192,6.0,56.0357029044876,6.0,12.0,15.0,16.0,8.0,32.0,20.0,17.0,16.0,14.0,7.0,17.0,4.0,1.0,11.0,10.04987562112089,10.5,30.0,33.0,34.0
193,193,5.0,56.0357029044876,7.0,12.0,15.0,16.0,9.0,33.0,21.0,18.5,17.0,15.0,7.0,17.0,4.0,1.0,11.045361017187261,11.045361017187261,11.0,31.0,33.0,34.0
194,194,8.0,55.036351623268054,5.0,12.0,15.0,16.0,10.0,35.0,23.0,19.0,18.0,16.0,7.0,18.0,6.0,2.0,6.0,5.0,5.5,31.0,33.0,35.0
195,195,13.0,56.0357029044876,6.082762530298219,11.0,15.033296378372908,16.0312195418814,11.045361017187261,41.0,30.0,23.5,22.0,20.0,10.0,20.0,8.0,5.0,4.0,4.0,4.5,27.0,31.0,31.016124838541646
196,196,13.0,56.0357029044876,6.082762530298219,11.0,15.033296378372908,16.0312195418814,11.045361017187261,41.0,30.0,23.5,22.0,20.0,10.0,20.0,8.0,5.0,4.0,4.0,4.5,27.0,31.0,31.016124838541646
197,197,14.0,56.08029957123981,6.082762530298219,12.041594578792296,15.0,16.0,11.045361017187261,43.01162633521314,31.0,24.0,23.0,20.0,10.5,21.5,8.5,5.5,6.0,6.0,6.0,26.0,30.0,32.0624390837628
198,198,12.0,54.037024344425184,7.0,13.038404810405298,14.0,15.033296378372908,11.0,43.01162633521314,30.0,24.0,23.0,21.0,11.0,21.0,7.0,4.0,8.0,7.0710678118654755,7.0,28.0,32.0,35.0
199,199,8.06225774829855,53.08483775994799,9.0,12.0,14.035668847618199,16.0312195418814,13.038404810405298,42.04759208325728,30.066592756745816,26.0,25.0,22.0,10.5,18.5,5.5,3.5,10.0,9.055385138137417,9.0,31.0,35.0,37.05401462729781
200,200,3.1622776601683795,52.08646657242167,8.0,11.0,12.041594578792296,13.038404810405298,15.0,37.013511046643494,26.019223662515376,24.5,24.0,21.0,7.5,14.5,2.5,0.5,11.045361017187261,10.04987562112089,10.0,30.0,35.0,36.05551275463989
201,201,0.0,54.08326913195984,7.0,10.0,12.041594578792296,12.041594578792296,16.0312195418814,33.015148038438355,23.021728866442675,23.0,22.0,19.0,4.5,12.5,2.5,1.5,11.0,10.04987562112089,10.0,33.0,36.0,38.0
202,202,1.0,53.009433122794285,6.0,8.06225774829855,12.041594578792296,13.038404810405298,17.029386365926403,32.0,24.020824298928627,23.5,21.0,20.0,3.5,11.5,2.5,1.5,11.045361017187261,11.045361017187261,11.0,33.0,36.0,36.013886210738214
203,203,0.0,54.037024344425184,7.0,10.0,13.038404810405298,13.0,16.0,33.0,23.0,23.0,21.0,19.0,4.0,13.0,2.0,2.0,12.041594578792296,11.045361017187261,11.0,33.0,35.0,36.013886210738214
204,204,2.0,54.00925846556311,8.06225774829855,11.0,14.035668847618199,15.033296378372908,14.035668847618199,35.0,24.0,23.0,20.0,19.0,5.5,15.5,4.5,1.5,12.041594578792296,11.045361017187261,11.5,33.0,35.0,36.0
205,205,6.0,54.037024344425184,9.0,13.0,15.0,16.0312195418814,11.045361017187261,39.01281840626232,26.019223662515376,23.0,20.0,18.0,8.0,20.0,6.0,0.0,12.041594578792296,11.0,11.0,33.0,35.0,35.0
206,206,6.0,56.00892785976178,8.0,15.0,15.0,16.0312195418814,12.041594578792296,41.012193308819754,26.019223662515376,23.0,20.0,19.0,7.5,21.5,6.5,0.5,12.041594578792296,11.045361017187261,11.0,33.0,36.0,35.014282800023196
207,207,10.0,56.0357029044876,7.0,13.0,15.0,16.0312195418814,10.04987562112089,40.01249804748511,27.018512172212592,22.0,21.0,19.0,10.0,20.0,6.0,4.0,12.041594578792296,11.045361017187261,11.5,32.0,35.0,36.0
208,208,9.055385138137417,56.08029957123981,6.0,14.0,15.0,16.0312195418814,10.0,39.01281840626232,25.019992006393608,20.5,20.0,17.0,8.5,20.5,5.5,2.5,12.041594578792296,12.0,12.0,32.0,35.0,35.0
209,209,8.0,56.0357029044876,6.0,14.0,15.0,16.0312195418814,10.04987562112089,38.01315561749642,24.020824298928627,20.0,19.0,17.0,8.0,20.0,6.0,3.0,12.0,11.045361017187261,11.0,32.0,34.0,35.0
210,210,7.0,57.0350769263968,6.0,14.0,16.0312195418814,16.0,10.0,37.0,23.0,19.5,19.0,17.0,8.0,19.0,5.0,3.0,12.0,11.045361017187261,11.5,30.0,33.0,35.0
211,211,8.0,57.07889277132134,6.082762530298219,13.0,15.033296378372908,16.0312195418814,9.055385138137417,36.0,23.0,19.0,18.0,15.0,7.5,19.5,5.5,2.5,12.041594578792296,11.045361017187261,11.0,30.0,32.0,34.0
212,212,7.0,57.07889277132134,6.0,14.0,15.033296378372908,16.0312195418814,9.055385138137417,36.013886210738214,22.02271554554524,18.5,18.0,15.0,7.5,19.5,5.5,2.5,11.0,10.04987562112089,10.5,29.0,33.0,33.0
213,213,7.0710678118654755,58.034472514187634,6.082762530298219,14.035668847618199,15.033296378372908,16.0312195418814,9.0,36.013886210738214,22.0,18.5,17.0,15.0,7.0,20.0,6.0,2.0,12.041594578792296,11.045361017187261,11.0,29.0,33.0,33.0
214,214,7.0,57.07889277132134,6.0,14.035668847618199,14.0,16.0312195418814,9.0,36.013886210738214,22.0,18.5,17.0,14.0,6.5,20.5,6.5,1.5,12.0,11.045361017187261,11.0,28.0,32.0,32.01562118716424
215,215,8.0,58.137767414994535,6.0,13.0,16.0312195418814,17.029386365926403,9.055385138137417,36.013886210738214,23.021728866442675,19.0,18.0,14.0,7.0,20.0,6.0,2.0,12.0,11.180339887498949,11.0,29.0,32.0,29.017236257093817
216,216,7.0,58.077534382926416,6.0,12.041594578792296,15.033296378372908,16.0312195418814,9.0,34.0147027033899,22.0,18.5,17.0,14.0,6.5,18.5,5.5,1.5,11.0,10.04987562112089,10.5,28.0,31.0,30.0
217,217,7.0,57.07889277132134,6.0,12.0,16.0,17.0,8.0,33.0,21.0,17.5,16.0,13.0,6.5,18.5,5.5,1.5,11.045361017187261,11.045361017187261,11.0,27.0,31.0,31.0
218,218,6.082762530298219,58.077534382926416,6.0,12.0,15.033296378372908,16.0312195418814,8.0,32.01562118716424,20.024984394500787,17.0,16.0,13.0,6.5,17.5,4.5,1.5,11.045361017187261,10.04987562112089,10.5,28.0,31.0,32.0
219,219,4.123105625617661,57.07889277132134,7.0710678118654755,12.041594578792296,15.0,16.0312195418814,8.0,31.016124838541646,19.0,17.0,16.0,13.0,6.5,16.5,4.5,0.5,11.0,10.04987562112089,10.5,28.0,31.0,31.0
220,220,5.0,58.034472514187634,6.0,12.0,15.0,16.0,8.0,31.0,19.0,16.5,15.0,13.0,6.0,17.0,5.0,1.0,12.041594578792296,11.045361017187261,11.0,28.0,31.0,32.0
221,221,6.0,57.07889277132134,6.0,12.0,16.0312195418814,17.029386365926403,8.0,32.0,20.0,17.0,16.0,13.0,6.5,17.5,5.5,1.5,11.045361017187261,11.045361017187261,11.0,28.0,31.0,32.0
222,222,6.0,56.0357029044876,6.0,12.0,15.033296378372908,16.0,8.0,32.0,20.0,17.0,15.0,13.0,6.0,18.0,6.0,1.0,11.0,10.04987562112089,10.0,27.0,30.0,30.0
223,223,6.0,57.0350769263968,6.082762530298219,12.0,15.0,16.0312195418814,8.0,32.01562118716424,20.024984394500787,17.0,15.0,13.0,6.0,18.0,5.0,1.0,11.0,10.04987562112089,10.0,27.0,29.0,30.0
224,224,6.082762530298219,57.0350769263968,7.0,12.0,16.0,17.029386365926403,8.0,33.015148038438355,21.02379604162864,18.0,16.0,14.0,7.0,18.0,5.0,1.0,10.04987562112089,10.04987562112089,10.0,27.0,29.0,29.0
225,225,5.0,55.00909015790027,7.0,12.0,15.0,16.0,8.0,32.0,20.0,17.5,16.0,15.0,7.5,16.5,3.5,1.5,10.04987562112089,10.04987562112089,10.0,27.0,29.0,30.01666203960727
226,226,5.0990195135927845,53.03772242470448,7.0,13.0,14.0,15.0,7.0,32.01562118716424,19.026297590440446,16.5,17.0,15.0,9.0,16.0,2.0,2.0,10.04987562112089,10.04987562112089,10.5,27.0,29.0,29.017236257093817
227,227,3.0,53.009433122794285,7.0,14.0,15.0,15.0,8.06225774829855,32.01562118716424,18.027756377319946,16.5,17.0,16.0,8.5,15.5,0.5,2.5,11.045361017187261,10.04987562112089,10.5,28.0,29.0,29.0
228,228,3.0,51.0098029794274,8.0,13.0,15.0,16.0312195418814,8.0,32.0,19.0,17.5,17.0,16.0,8.5,15.5,1.5,1.5,10.04987562112089,10.0,10.0,27.0,29.0,29.0
229,229,3.0,51.03920062069938,8.0,13.0,15.0,15.0,9.0,33.0,20.0,18.5,19.0,17.0,9.0,15.0,1.0,2.0,10.04987562112089,10.04987562112089,10.0,26.0,29.0,28.0178514522438
230,230,1.0,49.040799340956916,9.0,14.0,13.0,15.0,10.0,34.0,20.0,19.5,19.0,17.0,8.0,16.0,1.0,0.0,11.045361017187261,10.04987562112089,10.0,26.0,29.0,28.0
231,231,2.23606797749979,49.01020301937138,8.0,14.0,14.0,15.0,11.045361017187261,35.0,21.0,20.0,19.0,18.0,7.5,16.5,1.5,0.5,11.045361017187261,9.055385138137417,9.5,26.0,28.0,29.0
232,232,2.23606797749979,48.010415536631214,8.0,14.0,14.0,15.0,11.0,35.014282800023196,21.02379604162864,20.0,19.0,18.0,7.5,16.5,1.5,0.5,10.04987562112089,10.04987562112089,10.0,26.0,28.0,28.0
233,233,3.1622776601683795,49.0,8.0,15.0,15.0,16.0,10.0,36.013886210738214,21.02379604162864,19.5,17.0,17.0,7.0,19.0,3.0,0.0,10.0,10.0,10.0,26.0,28.0,28.0178514522438
234,234,4.0,51.0,8.0,15.0,14.0,15.0,9.055385138137417,36.013886210738214,21.02379604162864,19.0,17.0,17.0,8.0,19.0,3.0,1.0,11.045361017187261,10.04987562112089,10.5,28.0,29.0,29.0
235,235,6.0,51.0,7.0,14.0,14.0,15.0,8.06225774829855,35.014282800023196,21.02379604162864,18.0,17.0,17.0,9.0,18.0,2.0,2.0,10.04987562112089,10.0,10.0,29.0,30.0,32.01562118716424
236,236,5.0,51.0098029794274,7.0,14.0,14.0,14.0,8.0,34.0,20.0,17.5,17.0,16.0,8.5,17.5,2.5,2.5,11.180339887498949,10.04987562112089,10.5,30.0,32.0,33.0
237,237,5.0,51.03920062069938,6.0,15.0,13.0,15.033296378372908,8.0,34.0,19.0,16.5,17.0,15.0,8.0,18.0,3.0,2.0,11.045361017187261,11.045361017187261,11.0,31.0,33.0,35.014282800023196
238,238,6.0,50.00999900019995,6.0,14.0,13.0,15.0,8.0,34.0,20.0,17.0,17.0,16.0,8.5,17.5,2.5,2.5,11.045361017187261,11.045361017187261,11.0,32.0,34.0,35.0
239,239,6.0,51.0098029794274,6.0,14.0,14.0,14.035668847618199,8.0,34.0,20.0,17.0,17.0,16.0,8.5,17.5,2.5,2.5,11.045361017187261,11.045361017187261,11.0,32.0,34.0,34.0
240,240,6.0,51.03920062069938,6.0,14.0,14.0,14.0,8.0,34.0,20.0,17.0,17.0,15.0,8.0,18.0,3.0,2.0,11.045361017187261,11.045361017187261,11.5,32.0,34.0,35.014282800023196
241,241,5.0,50.039984012787215,6.0,14.0,13.0,15.0,9.0,34.0,20.0,17.5,18.0,16.0,8.0,17.0,2.0,3.0,11.045361017187261,11.045361017187261,11.0,31.0,34.0,35.0
242,242,5.0,50.039984012787215,6.0,14.0,13.0,15.0,9.0,34.0,20.0,17.5,18.0,16.0,8.0,17.0,2.0,3.0,12.165525060596439,11.045361017187261,11.0,31.0,34.0,34.0
243,243,2.0,50.039984012787215,7.0,14.0,14.0,15.0,10.0,33.0,19.0,18.0,18.0,16.0,7.0,16.0,2.0,1.0,11.045361017187261,11.045361017187261,11.5,31.0,33.0,34.0
244,244,3.0,48.041648597857254,7.0,13.0,13.0,14.0,10.0,33.0,20.0,18.5,19.0,17.0,8.0,15.0,1.0,1.0,11.180339887498949,11.045361017187261,11.5,31.0,33.0,34.0
245,245,2.0,48.041648597857254,7.0,14.0,14.035668847618199,15.033296378372908,11.0,34.0,20.0,19.0,19.0,17.0,7.0,16.0,1.0,1.0,12.041594578792296,11.045361017187261,11.5,31.0,33.0,33.0
246,246,1.0,48.010415536631214,8.0,14.0,14.0,14.0,11.0,34.0,20.0,19.5,19.0,18.0,7.5,15.5,0.5,0.5,11.045361017187261,12.041594578792296,12.0,31.0,34.0,32.0
247,247,1.0,47.01063709417264,8.0,14.0,13.0,14.0,12.0,35.0,21.0,20.5,19.0,18.0,6.5,16.5,1.5,0.5,11.045361017187261,11.045361017187261,11.5,31.0,33.0,33.0
248,248,1.0,47.01063709417264,8.0,14.0,12.0,13.0,12.0,35.0,21.0,20.5,20.0,19.0,7.5,15.5,0.5,0.5,12.041594578792296,11.045361017187261,11.0,30.0,33.0,32.01562118716424
249,249,1.0,47.01063709417264,8.0,14.0,13.0,13.0,11.0,34.0,20.0,19.5,19.0,18.0,7.5,15.5,0.5,0.5,11.045361017187261,11.045361017187261,11.0,31.0,33.0,33.015148038438355
250,250,3.0,48.010415536631214,7.0,14.0,13.0,14.0,12.041594578792296,36.013886210738214,22.02271554554524,20.5,19.0,18.0,6.5,17.5,2.5,0.5,11.045361017187261,11.045361017187261,11.0,28.0,31.0,29.0
251,251,3.0,47.01063709417264,7.0,14.0,12.0,14.0,12.041594578792296,36.013886210738214,22.02271554554524,20.5,19.0,18.0,6.5,17.5,2.5,0.5,12.165525060596439,11.180339887498949,11.0,29.0,31.0,29.0
252,252,3.0,49.0,8.0,14.035668847618199,13.0,15.0,11.045361017187261,36.0,22.02271554554524,20.5,18.0,18.0,7.0,18.0,3.0,0.0,11.045361017187261,11.045361017187261,11.5,27.0,31.0,27.0
253,253,5.0,50.00999900019995,7.0,14.0,14.0,15.0,10.0,36.0,22.0,19.5,18.0,17.0,7.5,18.5,3.5,1.5,11.045361017187261,11.180339887498949,11.5,27.0,30.0,28.0178514522438
254,254,5.0,51.03920062069938,7.0,14.0,14.0,16.0312195418814,10.0,36.0,22.0,19.5,18.0,16.0,7.0,19.0,4.0,1.0,11.045361017187261,12.041594578792296,12.0,27.0,30.0,29.017236257093817
255,255,4.0,53.03772242470448,7.0,13.0,14.0,16.0,10.04987562112089,34.0147027033899,21.02379604162864,19.0,17.0,15.0,6.0,18.0,4.0,0.0,11.045361017187261,11.045361017187261,11.5,27.0,30.0,28.0
256,256,4.0,53.009433122794285,6.0,12.0,15.0,16.0,11.045361017187261,33.015148038438355,21.02379604162864,19.0,16.0,15.0,4.5,17.5,4.5,0.5,11.045361017187261,11.045361017187261,11.0,26.0,29.0,28.0
257,257,4.0,54.037024344425184,7.0,12.0,15.0,16.0,9.0,32.0,20.0,18.0,16.0,14.0,6.0,17.0,4.0,0.0,11.0,11.045361017187261,11.0,26.0,29.0,28.0
258,258,4.0,54.00925846556311,6.0,12.0,15.0,15.0,10.0,32.0,20.0,18.0,16.0,15.0,5.5,16.5,3.5,0.5,11.045361017187261,10.04987562112089,10.5,27.0,29.0,28.0
259,259,2.0,55.036351623268054,6.0,13.038404810405298,15.0,16.0312195418814,9.055385138137417,30.0,17.029386365926403,16.0,16.0,14.0,6.0,15.0,1.0,1.0,12.041594578792296,11.045361017187261,11.0,26.0,29.0,28.0
260,260,3.0,56.00892785976178,6.0,12.0,15.0,16.0312195418814,10.0,31.0,19.0,17.5,16.0,15.0,5.5,15.5,2.5,0.5,11.0,10.04987562112089,10.5,26.0,29.0,29.0
261,261,3.0,55.00909015790027,6.082762530298219,13.0,14.035668847618199,15.033296378372908,10.04987562112089,32.0,19.0,17.5,17.0,16.0,6.5,15.5,1.5,1.5,10.04987562112089,10.04987562112089,10.0,26.0,29.0,30.0
262,262,5.0,57.0087712549569,6.0,12.0,15.0,16.0,10.0,33.0,21.0,18.5,18.0,17.0,7.5,15.5,2.5,2.5,7.0,7.0710678118654755,7.0,27.0,29.0,29.0
263,263,5.0,57.0087712549569,6.0,12.0,15.0,16.0,10.0,33.0,21.0,18.5,18.0,17.0,7.5,15.5,2.5,2.5,7.0,7.0710678118654755,7.0,27.0,29.0,29.0
264,264,8.0,57.0087712549569,6.0,13.0,14.0,15.0,10.0,37.0,24.0,20.0,20.0,19.0,9.5,17.5,4.5,3.5,5.0,4.0,4.0,31.0,32.0,31.0
265,265,10.0,56.0,7.0,13.0,15.0,16.0,11.0,41.0,28.0,23.0,23.0,23.0,12.0,18.0,5.0,5.0,5.0,5.0,4.5,30.0,32.0,31.016124838541646
266,266,13.0,53.03772242470448,7.0,13.0,14.0,15.0,11.0,44.0,31.0,24.5,26.0,24.0,14.0,19.0,6.0,7.0,6.0,6.0,6.0,26.0,29.0,31.016124838541646
267,267,12.0,52.03844732503075,7.0,12.0,13.038404810405298,15.033296378372908,13.038404810405298,44.01136216933077,32.01562118716424,26.0,27.0,25.0,13.0,18.0,5.0,7.0,8.0,8.0,8.0,26.0,31.0,33.015148038438355
268,268,10.0,53.03772242470448,8.0,14.0,15.033296378372908,16.0312195418814,13.0,45.0,31.0,26.0,27.0,25.0,13.0,19.0,4.0,6.0,8.0,8.0,8.0,25.0,30.0,35.014282800023196
269,269,8.0,52.03844732503075,9.0,12.041594578792296,13.0,15.033296378372908,13.038404810405298,42.04759208325728,30.01666203960727,26.0,26.0,24.0,12.0,17.0,4.0,4.0,9.0,9.0,9.0,26.0,32.0,33.06055050963308
270,270,2.0,53.08483775994799,8.06225774829855,11.0,14.0,14.035668847618199,16.0,37.013511046643494,26.019223662515376,25.0,26.0,23.0,8.5,12.5,0.5,1.5,11.0,10.0,10.0,24.0,29.0,32.0624390837628
271,271,1.0,53.03772242470448,8.0,10.0,14.035668847618199,14.035668847618199,16.0,34.0147027033899,24.020824298928627,24.0,24.0,22.0,7.0,11.0,1.0,1.0,11.045361017187261,10.04987562112089,10.0,27.0,31.0,32.01562118716424
272,272,1.0,53.03772242470448,8.0,11.045361017187261,13.038404810405298,14.0,15.0,35.014282800023196,24.0,23.5,24.0,22.0,8.0,12.0,1.0,1.0,11.045361017187261,11.045361017187261,11.0,26.0,31.0,32.0624390837628
273,273,1.0,53.03772242470448,9.0,11.0,13.0,13.038404810405298,15.0,36.0,25.0,24.5,24.0,22.0,8.0,13.0,1.0,0.0,11.045361017187261,10.04987562112089,10.5,33.0,36.0,36.0
274,274,5.0,53.03772242470448,9.0,13.038404810405298,14.035668847618199,15.0,13.038404810405298,40.0,27.018512172212592,24.5,23.0,21.0,9.0,18.0,4.0,1.0,11.0,11.045361017187261,11.0,29.0,34.0,36.013886210738214
275,275,9.0,55.08175741568164,8.0,14.0,15.033296378372908,16.0312195418814,12.0,43.0,29.0,24.5,24.0,21.0,10.5,20.5,5.5,3.5,11.045361017187261,10.0,10.5,29.0,33.0,34.0147027033899
276,276,10.04987562112089,55.036351623268054,7.0,14.0,15.033296378372908,16.0312195418814,11.045361017187261,42.0,28.0,23.0,23.0,21.0,11.0,20.0,5.0,5.0,11.0,11.045361017187261,11.0,27.0,33.0,36.013886210738214
277,277,11.045361017187261,55.036351623268054,6.0,14.0,14.0,16.0,11.045361017187261,42.0,28.0,22.5,23.0,21.0,11.0,20.0,5.0,5.0,11.0,10.0,10.5,27.0,33.0,36.013886210738214
278,278,11.045361017187261,55.036351623268054,6.0,14.0,15.0,16.0312195418814,11.045361017187261,42.0,28.0,22.5,23.0,21.0,11.0,20.0,5.0,5.0,11.045361017187261,11.045361017187261,11.0,28.0,33.0,35.014282800023196
279,279,13.038404810405298,56.08029957123981,6.0,13.0,15.033296378372908,17.029386365926403,11.0,43.01162633521314,30.01666203960727,23.5,23.0,20.0,10.5,21.5,7.5,5.5,12.041594578792296,10.04987562112089,10.5,29.0,33.0,33.06055050963308
280,280,14.0,56.00892785976178,6.0,14.0,15.0,16.0312195418814,10.0,44.0,30.0,23.0,22.0,21.0,11.5,22.5,7.5,5.5,12.041594578792296,11.045361017187261,11.0,32.0,36.0,38.01315561749642
281,281,15.0,57.0087712549569,6.0,13.0,16.0,17.029386365926403,11.0,45.0,32.0,24.5,22.0,21.0,10.5,23.5,9.5,4.5,12.0,11.045361017187261,11.5,32.0,35.0,39.0
282,282,12.0,57.0087712549569,7.0,14.0,15.0,17.0,10.0,43.0,29.0,23.0,20.0,19.0,9.5,23.5,8.5,3.5,12.041594578792296,11.045361017187261,11.5,33.0,35.0,38.0
283,283,14.0,58.008620049092706,6.0,13.0,15.0,17.029386365926403,10.04987562112089,43.01162633521314,30.01666203960727,23.0,20.0,19.0,9.5,23.5,9.5,3.5,11.045361017187261,10.04987562112089,10.5,34.0,35.0,37.013511046643494
284,284,9.0,59.00847396772772,6.0,13.0,15.0,16.0312195418814,10.0,38.0,25.0,20.5,19.0,18.0,8.5,19.5,5.5,2.5,12.041594578792296,12.041594578792296,12.0,34.0,35.0,38.0
285,285,9.0,58.008620049092706,6.0,13.0,15.0,16.0,10.0,38.0,25.0,20.5,19.0,18.0,8.5,19.5,5.5,2.5,13.038404810405298,12.041594578792296,12.0,34.0,35.0,38.0
286,286,8.0,58.034472514187634,6.0,12.0,16.0,16.0,10.0,36.0,24.0,20.0,19.0,17.0,8.0,18.0,5.0,2.0,12.041594578792296,11.045361017187261,11.5,34.0,35.0,37.0
287,287,7.0,58.008620049092706,6.0,12.0,15.0,16.0,10.0,35.0,23.0,19.5,18.0,17.0,7.5,17.5,4.5,2.5,11.045361017187261,11.0,11.0,34.0,34.0,36.013886210738214
288,288,7.0,57.0087712549569,6.082762530298219,11.0,15.0,17.029386365926403,9.0,33.015148038438355,22.02271554554524,18.5,17.0,16.0,7.5,16.5,4.5,2.5,12.041594578792296,11.045361017187261,11.0,32.0,33.0,35.014282800023196
289,289,7.0,58.034472514187634,6.0,12.0,16.0312195418814,17.0,9.055385138137417,34.0147027033899,22.02271554554524,18.5,18.0,16.0,8.0,17.0,4.0,3.0,12.041594578792296,11.045361017187261,11.5,31.0,32.0,33.015148038438355
290,290,8.0,59.00847396772772,6.0,11.0,16.0,17.0,9.0,34.0,23.0,19.0,18.0,17.0,8.5,16.5,3.5,3.5,12.041594578792296,11.045361017187261,11.0,32.0,32.0,33.015148038438355
291,291,6.0,57.0087712549569,7.0,12.0,16.0,17.0,8.0,33.0,21.0,18.0,18.0,17.0,9.5,15.5,2.5,3.5,12.0,10.04987562112089,10.5,30.0,31.0,32.0
292,292,2.0,58.0,7.0,13.0,16.0,17.0,9.0,31.0,18.0,17.0,18.0,18.0,9.0,13.0,0.0,3.0,11.0,10.04987562112089,10.5,28.0,29.0,33.015148038438355
293,293,2.0,57.0087712549569,6.0,13.0,15.0,16.0,9.055385138137417,30.01666203960727,17.029386365926403,16.0,18.0,17.0,8.5,12.5,0.5,2.5,11.0,11.045361017187261,10.5,29.0,29.0,32.01562118716424
294,294,2.0,56.00892785976178,7.0,13.0,15.0,16.0,9.055385138137417,31.016124838541646,18.027756377319946,17.0,19.0,18.0,9.5,12.5,1.5,3.5,11.0,10.04987562112089,10.5,28.0,30.0,32.0
295,295,2.0,56.00892785976178,6.0,13.0,15.0,16.0312195418814,9.0,30.0,17.0,16.0,18.0,17.0,8.5,12.5,0.5,2.5,11.0,11.045361017187261,10.5,28.0,30.0,31.0
296,296,2.0,56.00892785976178,7.0,13.0,15.0,16.0,9.0,31.0,18.0,17.0,19.0,18.0,9.5,12.5,0.5,3.5,11.0,10.04987562112089,10.0,26.0,28.0,31.0
297,297,8.0,57.0087712549569,6.0,11.0,16.0,17.0,9.0,34.0,23.0,19.0,18.0,17.0,8.5,16.5,4.5,3.5,10.04987562112089,10.04987562112089,10.5,27.0,30.0,31.016124838541646
298,298,11.0,57.0087712549569,7.0,13.0,16.0,18.0,8.0,39.0,26.0,20.5,19.0,18.0,10.5,20.5,6.5,4.5,10.0,9.055385138137417,9.5,27.0,29.0,31.016124838541646
299,299,10.0,57.0087712549569,7.0,14.0,17.0,17.029386365926403,9.055385138137417,40.01249804748511,26.019223662515376,21.0,19.0,18.0,9.5,21.5,7.5,3.5,10.0,10.04987562112089,10.0,26.0,29.0,29.0
300,300,8.0,57.07889277132134,7.0,12.0,16.0,18.027756377319946,9.0,36.0,24.0,20.0,19.0,16.0,8.5,18.5,5.5,2.5,10.0,10.0,10.0,26.0,29.0,30.0
301,301,6.0,58.034472514187634,7.0,12.0,16.0312195418814,17.029386365926403,9.0,34.0,22.0,19.0,18.0,16.0,8.0,17.0,4.0,2.0,10.0,10.04987562112089,10.0,26.0,29.0,29.0
302,302,2.23606797749979,58.034472514187634,8.0,13.038404810405298,17.0,17.029386365926403,9.055385138137417,32.01562118716424,19.0,18.0,17.0,15.0,7.0,16.0,2.0,0.0,10.0,9.0,9.5,25.0,27.0,29.0
303,303,1.0,58.034472514187634,8.0,13.0,17.0,18.027756377319946,9.055385138137417,31.016124838541646,18.027756377319946,17.5,17.0,15.0,7.0,15.0,1.0,0.0,10.0,10.04987562112089,9.5,26.0,29.0,30.0
304,304,1.0,57.07889277132134,8.0,13.0,16.0,17.0,9.055385138137417,31.016124838541646,18.027756377319946,17.5,18.0,15.0,7.5,14.5,0.5,0.5,10.0,10.04987562112089,10.0,26.0,29.0,30.01666203960727
305,305,1.0,58.034472514187634,8.0,13.0,17.0,17.029386365926403,9.0,31.0,18.0,17.5,17.0,15.0,7.0,15.0,1.0,0.0,10.04987562112089,10.0,10.0,25.0,28.0,30.0
306,306,3.0,57.0087712549569,7.0,13.0,16.0312195418814,16.0312195418814,9.0,32.0,19.0,17.5,17.0,16.0,7.5,15.5,2.5,1.5,10.0,9.055385138137417,9.5,26.0,29.0,29.0
307,307,7.0710678118654755,58.008620049092706,6.0,12.0,16.0,17.0,9.0,34.0147027033899,22.02271554554524,18.5,16.0,15.0,6.5,18.5,5.5,0.5,10.0,10.04987562112089,10.0,25.0,27.0,30.0
308,308,7.0,59.0,7.0,13.0,16.0,18.0,8.06225774829855,35.014282800023196,22.02271554554524,18.5,16.0,16.0,8.0,19.0,5.0,1.0,11.045361017187261,10.04987562112089,10.0,26.0,27.0,31.0
309,309,5.0,58.008620049092706,7.0,13.0,17.0,17.0,9.0,34.0,21.0,18.5,17.0,16.0,7.5,17.5,3.5,1.5,10.0,10.04987562112089,10.0,26.0,28.0,31.0
310,310,4.123105625617661,59.00847396772772,7.0,12.0,17.0,17.029386365926403,9.0,32.01562118716424,20.024984394500787,18.0,17.0,16.0,7.5,15.5,2.5,1.5,10.0,10.04987562112089,10.0,27.0,27.0,29.017236257093817
311,311,1.0,58.008620049092706,8.0,13.0,16.0312195418814,17.029386365926403,9.0,31.0,18.0,17.5,18.0,17.0,8.5,13.5,0.5,1.5,11.045361017187261,10.04987562112089,10.0,26.0,28.0,29.017236257093817
312,312,1.0,58.008620049092706,7.0,12.0,17.0,17.029386365926403,10.04987562112089,30.01666203960727,18.027756377319946,17.5,17.0,16.0,6.5,13.5,0.5,0.5,11.045361017187261,11.045361017187261,11.0,26.0,28.0,29.017236257093817
313,313,0.0,58.008620049092706,8.0,13.0,17.029386365926403,17.0,10.0,31.0,18.0,18.0,18.0,17.0,7.5,13.5,0.5,0.5,10.0,10.0,10.0,26.0,28.0,31.0
314,314,1.0,57.0087712549569,7.0,13.0,16.0,16.0312195418814,10.0,31.0,18.0,17.5,17.0,16.0,6.5,14.5,0.5,0.5,11.0,10.04987562112089,10.0,27.0,29.0,29.0
315,315,7.0,58.034472514187634,7.0,11.0,17.029386365926403,17.0,9.0,34.0,23.0,19.5,18.0,16.0,8.0,17.0,5.0,2.0,10.0,9.055385138137417,9.5,26.0,28.0,30.0
316,316,10.0,57.0350769263968,6.0,14.0,17.029386365926403,18.027756377319946,9.0,39.0,25.0,20.0,18.0,16.0,8.0,22.0,7.0,3.0,10.0,9.055385138137417,9.5,26.0,28.0,29.017236257093817
317,317,12.0,58.034472514187634,7.0710678118654755,14.0,17.0,19.026297590440446,8.0,41.012193308819754,27.018512172212592,21.0,19.0,17.0,10.0,23.0,8.0,3.0,10.0,10.04987562112089,10.0,25.0,28.0,29.0
318,318,10.0,58.008620049092706,7.0,13.0,17.0,18.027756377319946,9.055385138137417,39.01281840626232,26.019223662515376,21.0,18.0,17.0,8.5,21.5,7.5,2.5,10.0,10.04987562112089,10.0,25.0,28.0,29.0
319,319,6.082762530298219,56.00892785976178,7.0,12.0,17.0,17.029386365926403,10.0,35.014282800023196,23.021728866442675,20.0,18.0,17.0,7.5,17.5,4.5,1.5,11.0,10.0,10.5,26.0,28.0,29.017236257093817
320,320,0.0,57.0350769263968,8.0,12.0,16.0,17.029386365926403,10.0,30.0,18.0,18.0,17.0,15.0,6.0,14.0,2.0,1.0,10.04987562112089,11.0,10.5,25.0,28.0,29.0
321,321,1.4142135623730951,57.0350769263968,8.0,12.0,17.029386365926403,17.029386365926403,8.0,29.017236257093817,17.029386365926403,16.5,17.0,15.0,8.0,13.0,1.0,1.0,11.0,10.04987562112089,10.0,25.0,28.0,29.0
322,322,4.123105625617661,57.0350769263968,7.0,12.0,17.029386365926403,17.029386365926403,8.06225774829855,31.064449134018133,19.1049731745428,17.0,16.0,14.0,7.0,16.0,4.0,2.0,10.04987562112089,10.04987562112089,9.5,26.0,28.0,29.0
323,323,7.0,58.034472514187634,6.0,12.0,17.029386365926403,18.0,8.06225774829855,33.015148038438355,21.02379604162864,17.5,16.0,14.0,7.0,18.0,5.0,2.0,10.0,10.04987562112089,9.5,26.0,28.0,29.017236257093817
324,324,7.0,58.034472514187634,6.0,12.0,17.029386365926403,18.027756377319946,8.06225774829855,33.015148038438355,21.02379604162864,17.5,16.0,14.0,7.0,18.0,5.0,2.0,10.0,9.055385138137417,9.5,26.0,28.0,29.0
325,325,6.0,60.03332407921454,7.0,13.0,17.0,18.027756377319946,7.0710678118654755,33.015148038438355,20.024984394500787,17.0,15.0,13.0,7.0,19.0,6.0,1.0,10.0,9.055385138137417,9.5,26.0,28.0,29.0
326,326,6.0,61.00819617067857,7.0,13.0,17.029386365926403,18.027756377319946,6.082762530298219,32.01562118716424,19.026297590440446,16.0,13.0,12.0,6.5,19.5,5.5,0.5,10.0,10.04987562112089,10.0,25.0,27.0,29.0
327,327,5.0,61.032778078668514,8.0,13.0,17.0,19.026297590440446,6.082762530298219,32.01562118716424,19.026297590440446,16.5,14.0,12.0,7.0,19.0,5.0,0.0,10.0,9.0,9.5,25.0,27.0,29.0
328,328,6.0,61.032778078668514,7.0,12.0,17.0,18.0,6.082762530298219,31.016124838541646,19.026297590440446,16.0,13.0,11.0,6.0,19.0,6.0,0.0,10.0,10.04987562112089,10.0,25.0,27.0,30.01666203960727
329,329,5.0,61.032778078668514,7.0,14.0,17.029386365926403,18.027756377319946,6.082762530298219,32.01562118716424,18.027756377319946,15.5,13.0,11.0,6.0,20.0,6.0,0.0,11.045361017187261,10.0,10.0,24.0,27.0,31.0
330,330,8.0,61.032778078668514,6.0,12.0,16.0,18.027756377319946,6.0,32.0,20.0,16.0,13.0,11.0,6.0,20.0,7.0,0.0,10.04987562112089,10.04987562112089,10.0,24.0,27.0,30.01666203960727
331,331,7.0,62.00806399170998,6.0,12.041594578792296,17.029386365926403,18.027756377319946,7.0,32.01562118716424,20.0,16.5,13.0,12.0,5.5,19.5,7.5,0.5,9.055385138137417,9.055385138137417,9.5,26.0,28.0,30.01666203960727
332,332,6.082762530298219,61.032778078668514,7.0,12.0,17.0,17.029386365926403,7.0,32.01562118716424,20.024984394500787,17.0,14.0,12.0,6.0,19.0,6.0,0.0,10.0,10.0,10.0,28.0,29.0,33.015148038438355
333,333,6.0,60.00833275470999,6.0,12.0,17.0,18.0,7.0710678118654755,31.016124838541646,19.026297590440446,16.0,13.0,12.0,5.5,18.5,5.5,0.5,11.045361017187261,10.198039027185569,10.5,31.0,32.0,35.0
334,334,3.0,58.008620049092706,7.0,14.0,16.0,17.029386365926403,7.0710678118654755,31.016124838541646,17.029386365926403,15.5,14.0,13.0,6.5,17.5,3.5,0.5,11.045361017187261,10.04987562112089,10.0,33.0,34.0,36.013886210738214
335,335,3.0,58.0,7.0,14.0,16.0,16.0,7.0710678118654755,31.016124838541646,17.029386365926403,15.5,14.0,14.0,7.0,17.0,3.0,1.0,10.04987562112089,11.045361017187261,10.5,33.0,34.0,36.013886210738214
336,336,6.0,56.00892785976178,6.0,12.0,15.033296378372908,16.0312195418814,8.06225774829855,32.01562118716424,20.024984394500787,17.0,16.0,15.0,7.5,16.5,3.5,2.5,8.0,8.06225774829855,8.0,32.0,35.0,37.013511046643494
337,337,7.0,55.0,6.0,13.0,15.0,17.0,10.04987562112089,36.013886210738214,23.021728866442675,19.5,19.0,19.0,9.0,17.0,3.0,4.0,5.0,5.0,4.5,28.0,32.0,33.015148038438355
338,338,10.0,53.009433122794285,6.0,13.0,15.0,16.0,10.04987562112089,39.01281840626232,26.019223662515376,21.0,21.0,20.0,10.5,18.5,4.5,5.5,4.0,5.0,5.0,25.0,28.0,31.064449134018133
339,339,10.04987562112089,53.009433122794285,7.0,13.0,15.0,16.0312195418814,12.0,42.01190307520001,29.017236257093817,24.0,25.0,24.0,12.5,17.5,3.5,6.5,6.0,7.0,6.5,25.0,28.0,32.0624390837628
340,340,8.0,53.0,9.0,15.0,15.0,16.0,12.041594578792296,44.01136216933077,29.017236257093817,25.0,25.0,25.0,13.0,19.0,3.0,4.0,9.0,9.055385138137417,9.0,28.0,32.0,35.05709628591621
341,341,8.0,53.0,9.055385138137417,15.0,15.0,15.0,12.0,44.01136216933077,29.017236257093817,25.0,25.0,25.0,13.0,19.0,3.0,5.0,10.0,9.055385138137417,9.0,28.0,32.0,35.05709628591621
342,342,8.0,53.009433122794285,9.0,14.0,14.0,15.033296378372908,13.0,44.0,30.0,26.0,26.0,25.0,12.5,18.5,3.5,4.5,11.045361017187261,11.045361017187261,11.0,29.0,32.0,35.05709628591621
343,343,7.0,52.009614495783374,8.0,13.0,14.035668847618199,15.0,13.0,41.0,28.0,24.5,24.0,23.0,10.5,17.5,4.5,3.5,11.0,11.0,11.0,29.0,33.0,35.05709628591621
344,344,3.0,51.03920062069938,8.0,11.0,13.038404810405298,14.0,16.0,38.0,27.0,25.5,25.0,23.0,8.0,14.0,2.0,2.0,12.041594578792296,12.041594578792296,11.5,29.0,34.0,35.05709628591621
345,345,1.0,53.009433122794285,6.0,9.0,13.0,13.0,16.0312195418814,32.01562118716424,23.021728866442675,22.5,20.0,19.0,3.5,12.5,2.5,1.5,11.0,11.045361017187261,11.0,33.0,35.0,39.0
346,346,1.0,53.009433122794285,6.0,9.0,13.0,13.0,16.0312195418814,32.01562118716424,23.021728866442675,22.5,20.0,19.0,3.5,12.5,2.5,1.5,11.0,11.045361017187261,11.0,33.0,35.0,39.0
347,347,1.0,54.00925846556311,6.0,10.04987562112089,13.0,14.0,15.033296378372908,32.0,22.02271554554524,21.5,19.0,18.0,3.5,13.5,2.5,1.5,12.041594578792296,12.041594578792296,12.0,28.0,32.0,36.05551275463989
348,348,3.0,53.009433122794285,7.0,11.0,14.035668847618199,15.033296378372908,13.038404810405298,34.0147027033899,23.021728866442675,21.5,18.0,17.0,4.5,16.5,4.5,1.5,12.041594578792296,11.180339887498949,11.0,28.0,31.0,35.014282800023196
349,349,5.0,55.00909015790027,8.0,13.0,14.0,15.0,11.045361017187261,37.013511046643494,24.020824298928627,21.5,18.0,17.0,6.5,19.5,5.5,0.5,12.041594578792296,12.041594578792296,12.0,33.0,34.0,36.013886210738214
350,350,4.0,53.03772242470448,8.06225774829855,14.0,14.0,15.033296378372908,11.045361017187261,37.0,23.0,21.0,19.0,17.0,7.0,19.0,5.0,0.0,12.0,12.041594578792296,12.0,33.0,35.0,37.0
351,351,3.0,52.03844732503075,7.0,13.038404810405298,14.035668847618199,15.033296378372908,11.045361017187261,34.0,21.02379604162864,19.5,19.0,17.0,7.0,16.0,2.0,1.0,12.0,12.041594578792296,11.5,32.0,34.0,36.013886210738214
352,352,3.0,52.03844732503075,7.0,13.038404810405298,13.038404810405298,15.033296378372908,11.045361017187261,34.0,21.02379604162864,19.5,19.0,17.0,7.0,16.0,2.0,1.0,11.0,12.041594578792296,12.0,31.0,33.0,36.013886210738214
353,353,2.0,51.03920062069938,7.0,13.0,14.0,15.033296378372908,12.0,34.0,21.0,20.0,19.0,17.0,6.0,16.0,3.0,0.0,12.041594578792296,12.041594578792296,12.0,33.0,34.0,37.013511046643494
354,354,4.0,48.041648597857254,7.0,13.0,12.041594578792296,14.035668847618199,11.045361017187261,35.014282800023196,22.02271554554524,20.0,19.0,17.0,7.0,17.0,3.0,1.0,12.0,12.041594578792296,12.0,33.0,36.0,36.013886210738214
355,355,4.0,48.041648597857254,7.0,13.0,12.041594578792296,14.035668847618199,11.045361017187261,35.014282800023196,22.02271554554524,20.0,19.0,17.0,7.0,17.0,3.0,1.0,12.0,12.041594578792296,12.0,33.0,36.0,36.013886210738214
356,356,4.123105625617661,47.042533945356304,7.0,13.0,13.0,14.035668847618199,12.041594578792296,36.0,23.0,21.0,20.0,18.0,7.0,17.0,3.0,1.0,12.041594578792296,11.180339887498949,11.0,32.0,35.0,35.0
357,357,2.0,46.04345773288535,7.0,12.041594578792296,11.0,13.038404810405298,13.038404810405298,34.0,22.02271554554524,21.0,19.0,17.0,5.0,16.0,3.0,1.0,12.041594578792296,11.045361017187261,11.0,33.0,34.0,35.0
358,358,1.0,48.041648597857254,7.0,10.0,12.0,12.041594578792296,14.0,32.0,22.0,21.5,19.0,17.0,4.0,14.0,3.0,2.0,12.041594578792296,12.041594578792296,12.0,33.0,34.0,35.0
359,359,1.0,48.010415536631214,7.0,10.0,12.0,13.038404810405298,13.038404810405298,31.016124838541646,21.02379604162864,20.5,18.0,17.0,4.5,13.5,2.5,1.5,12.041594578792296,11.045361017187261,11.0,32.0,33.0,34.0
360,360,1.0,49.01020301937138,7.0,11.0,12.0,13.038404810405298,13.038404810405298,32.01562118716424,21.02379604162864,20.5,18.0,17.0,4.5,14.5,2.5,1.5,12.041594578792296,11.180339887498949,11.0,32.0,33.0,33.0
361,361,1.0,50.00999900019995,8.0,12.041594578792296,15.033296378372908,15.0,11.045361017187261,32.0,20.024984394500787,19.5,17.0,16.0,5.5,15.5,2.5,0.5,12.041594578792296,11.045361017187261,11.0,32.0,33.0,34.0
362,362,2.0,51.0098029794274,8.0,13.038404810405298,15.0,15.033296378372908,10.04987562112089,33.0,20.024984394500787,19.0,16.0,15.0,5.5,17.5,3.5,1.5,12.041594578792296,11.045361017187261,11.0,31.0,33.0,34.0
363,363,2.0,53.03772242470448,8.0,14.0,15.0,16.0312195418814,10.0,34.0,20.0,19.0,17.0,15.0,6.0,18.0,3.0,1.0,12.041594578792296,11.045361017187261,11.0,30.0,31.0,33.0
364,364,3.0,53.03772242470448,7.0,14.0,16.0,17.029386365926403,9.0,33.0,19.0,17.5,15.0,13.0,5.0,19.0,4.0,1.0,12.041594578792296,11.045361017187261,11.0,30.0,31.0,33.015148038438355
365,365,4.0,55.036351623268054,7.0,12.041594578792296,14.0,15.033296378372908,8.0,31.016124838541646,19.0,17.0,15.0,13.0,6.0,17.0,4.0,0.0,12.041594578792296,11.180339887498949,11.0,30.0,31.0,32.0
366,366,5.0,55.08175741568164,6.0,12.0,14.035668847618199,15.033296378372908,8.0,31.0,19.0,16.5,15.0,12.0,5.5,17.5,4.5,0.5,11.045361017187261,11.045361017187261,11.5,29.0,31.0,32.01562118716424
367,367,4.0,56.0357029044876,7.0,13.038404810405298,15.033296378372908,16.0312195418814,8.0,32.01562118716424,19.0,17.0,15.0,13.0,6.0,18.0,4.0,1.0,12.041594578792296,11.045361017187261,11.0,27.0,29.0,29.0
368,368,5.0,56.00892785976178,6.082762530298219,13.0,15.0,16.0312195418814,9.055385138137417,33.0,20.0,17.5,15.0,14.0,5.5,18.5,4.5,0.5,11.045361017187261,11.045361017187261,11.0,27.0,29.0,30.0
369,369,8.0,56.0357029044876,6.0,13.0,15.033296378372908,16.0312195418814,8.0,35.0,22.0,18.0,16.0,14.0,7.0,20.0,6.0,2.0,12.0,11.045361017187261,11.0,27.0,29.0,29.0
370,370,9.0,55.036351623268054,6.0,13.0,16.0,16.0312195418814,9.0,37.0,24.0,19.5,17.0,15.0,7.0,21.0,7.0,2.0,11.045361017187261,11.180339887498949,11.5,27.0,28.0,29.017236257093817
371,371,11.045361017187261,56.0357029044876,6.0,12.0,15.033296378372908,17.029386365926403,9.055385138137417,38.0,26.0,20.5,17.0,15.0,7.0,22.0,9.0,2.0,11.045361017187261,11.045361017187261,11.0,27.0,28.0,30.0
372,372,11.0,58.077534382926416,6.0,12.0,16.0,17.029386365926403,10.0,39.0,27.0,21.5,19.0,16.0,7.5,21.5,9.5,2.5,11.0,10.04987562112089,10.5,27.0,29.0,29.0
373,373,12.0,56.0357029044876,6.0,12.0,15.033296378372908,16.0312195418814,9.0,39.0,27.0,21.0,19.0,17.0,9.0,21.0,9.0,4.0,11.045361017187261,10.04987562112089,10.0,27.0,28.0,29.0
374,374,12.0,56.08029957123981,6.0,12.0,15.033296378372908,16.0312195418814,9.0,39.0,27.0,21.0,19.0,16.0,8.5,21.5,9.5,3.5,11.045361017187261,10.04987562112089,10.5,26.0,28.0,28.0178514522438
375,375,12.0,58.034472514187634,6.0,11.0,16.0312195418814,17.029386365926403,10.0,39.0,28.0,22.0,20.0,18.0,9.0,20.0,8.0,4.0,11.0,11.045361017187261,10.5,27.0,28.0,30.0
376,376,11.045361017187261,59.033888572581766,6.0,12.041594578792296,16.0,17.029386365926403,10.04987562112089,39.01281840626232,27.0,21.5,20.0,18.0,9.0,20.0,8.0,4.0,11.0,9.055385138137417,9.5,27.0,29.0,30.01666203960727
377,377,11.045361017187261,58.077534382926416,6.0,12.041594578792296,16.0312195418814,17.029386365926403,9.0,38.0,26.019223662515376,20.5,20.0,17.0,9.5,19.5,7.5,4.5,11.045361017187261,10.04987562112089,10.5,27.0,29.0,30.0
378,378,9.0,58.077534382926416,6.0,12.0,16.0,17.029386365926403,10.0,37.0,25.0,20.5,20.0,17.0,8.5,18.5,6.5,3.5,10.0,10.04987562112089,10.0,27.0,30.0,29.0
379,379,8.0,59.135437767890075,6.0,12.0,16.0312195418814,16.0312195418814,9.0,35.0,23.0,19.0,19.0,15.0,8.0,18.0,6.0,3.0,11.0,10.04987562112089,10.0,26.0,29.0,29.0
380,380,7.0,59.135437767890075,5.0,11.045361017187261,17.029386365926403,18.027756377319946,9.055385138137417,32.0,21.02379604162864,17.5,17.0,13.0,6.0,17.0,5.0,2.0,11.0,11.045361017187261,10.5,26.0,29.0,29.0
381,381,4.0,60.07495318350236,6.082762530298219,12.0,16.0312195418814,17.029386365926403,9.0,31.016124838541646,19.026297590440446,17.0,16.0,13.0,5.5,16.5,4.5,0.5,10.0,10.04987562112089,10.0,25.0,28.0,30.0
382,382,3.0,61.1310068623117,6.082762530298219,12.0,17.029386365926403,17.029386365926403,9.055385138137417,30.0,18.0,16.5,17.0,13.0,6.0,15.0,2.0,1.0,11.045361017187261,10.198039027185569,10.0,26.0,29.0,30.01666203960727
383,383,3.0,60.13318551349163,6.0,13.038404810405298,16.0312195418814,17.029386365926403,8.0,30.01666203960727,17.0,15.5,16.0,12.0,6.0,16.0,3.0,1.0,11.045361017187261,10.04987562112089,10.0,25.0,29.0,31.016124838541646
384,384,6.0,60.13318551349163,5.0,11.045361017187261,16.0312195418814,17.029386365926403,9.0,31.016124838541646,20.0,17.0,16.0,12.0,5.0,17.0,5.0,1.0,11.0,10.04987562112089,10.0,25.0,29.0,30.0
385,385,6.0,61.07372593840988,6.0,13.038404810405298,16.0312195418814,17.029386365926403,8.0,33.015148038438355,20.0,17.0,15.0,12.0,5.5,19.5,6.5,0.5,10.0,10.04987562112089,10.0,25.0,30.0,30.0
386,386,8.0,59.135437767890075,5.0,12.041594578792296,16.0312195418814,17.029386365926403,9.055385138137417,34.058772731852805,22.02271554554524,18.0,16.0,12.0,5.0,20.0,7.0,1.0,11.045361017187261,10.04987562112089,10.0,25.0,30.0,30.0
387,387,2.0,56.142675390472796,7.0,13.0,16.0312195418814,17.11724276862369,10.04987562112089,32.01562118716424,19.026297590440446,18.0,16.0,12.0,4.0,18.0,5.0,2.0,11.0,10.198039027185569,10.0,24.0,29.0,29.0
388,388,2.0,53.08483775994799,6.0,12.041594578792296,15.033296378372908,16.0312195418814,12.0,32.01562118716424,20.0,19.0,17.0,14.0,3.5,16.5,3.5,1.5,12.0,10.198039027185569,10.5,24.0,29.0,29.0
389,389,1.0,53.03772242470448,7.0,11.045361017187261,15.033296378372908,16.0312195418814,11.045361017187261,30.0,19.026297590440446,18.5,17.0,15.0,5.0,14.0,2.0,0.0,11.045361017187261,10.04987562112089,10.0,24.0,28.0,28.0178514522438
390,390,1.0,51.088159097779204,7.0,12.041594578792296,15.033296378372908,15.033296378372908,11.0,31.016124838541646,19.0,18.5,18.0,15.0,5.5,14.5,1.5,0.5,12.0,11.045361017187261,11.0,24.0,28.0,29.017236257093817
391,391,2.0,51.03920062069938,7.0,13.0,15.0,16.0312195418814,10.0,32.0,19.0,18.0,17.0,15.0,6.0,16.0,2.0,0.0,11.0,11.045361017187261,11.0,25.0,29.0,29.0
392,392,2.0,51.03920062069938,7.0,13.038404810405298,15.0,16.0312195418814,10.04987562112089,32.0,19.026297590440446,18.0,17.0,15.0,6.0,16.0,1.0,0.0,11.045361017187261,11.180339887498949,11.0,25.0,29.0,29.0
393,393,1.0,51.088159097779204,8.0,14.0,15.033296378372908,15.033296378372908,9.0,32.0,18.0,17.5,17.0,14.0,6.5,16.5,1.5,0.5,12.041594578792296,10.198039027185569,10.5,25.0,30.0,29.017236257093817
394,394,1.0,53.08483775994799,8.0,13.0,15.033296378372908,16.0312195418814,9.0,31.0,18.0,17.5,16.0,13.0,5.5,16.5,2.5,0.5,11.045361017187261,11.180339887498949,11.0,25.0,30.0,29.017236257093817
395,395,1.0,52.08646657242167,8.0,13.038404810405298,15.033296378372908,16.0312195418814,9.0,31.016124838541646,18.0,17.5,16.0,13.0,5.5,16.5,2.5,0.5,12.0,10.198039027185569,10.5,25.0,30.0,30.01666203960727
396,396,2.0,52.08646657242167,7.0,14.035668847618199,16.0,17.029386365926403,9.0,32.01562118716424,18.0,17.0,16.0,13.0,5.5,17.5,2.5,0.5,11.045361017187261,10.198039027185569,10.5,24.0,29.0,29.017236257093817
397,397,3.0,54.08326913195984,8.0,14.035668847618199,16.0312195418814,17.029386365926403,8.0,33.015148038438355,19.0,17.5,17.0,14.0,7.5,17.5,2.5,1.5,11.0,11.180339887498949,11.0,25.0,29.0,29.0
398,398,3.0,55.08175741568164,8.0,16.0,15.0,17.029386365926403,8.0,35.0,19.0,17.5,16.0,13.0,6.5,20.5,3.5,0.5,12.041594578792296,10.198039027185569,10.0,26.0,30.0,28.0178514522438
399,399,7.0,57.07889277132134,7.0,15.0,16.0312195418814,18.027756377319946,8.0,37.0,22.0,18.5,17.0,14.0,7.5,21.5,5.5,1.5,12.0,11.180339887498949,11.0,26.0,30.0,28.0
400,400,8.0,58.034472514187634,8.0,15.0,16.0,18.027756377319946,8.0,39.0,24.0,20.0,18.0,16.0,9.0,22.0,6.0,2.0,12.0,10.198039027185569,10.0,27.0,31.0,30.0
401,401,7.0,58.077534382926416,8.0,15.0,16.0,18.027756377319946,8.06225774829855,38.01315561749642,23.021728866442675,19.5,19.0,16.0,9.5,20.5,5.5,2.5,12.0,11.045361017187261,11.0,26.0,30.0,31.0
402,402,7.0,59.07622195096772,7.0,14.0,16.0,17.029386365926403,8.0,36.0,22.0,18.5,18.0,15.0,8.5,19.5,5.5,2.5,12.0,11.045361017187261,11.0,27.0,31.0,29.017236257093817
403,403,6.0,60.07495318350236,7.0,14.0,17.0,18.027756377319946,8.0,35.0,21.0,18.0,17.0,14.0,7.5,19.5,5.5,1.5,11.0,11.045361017187261,11.0,27.0,31.0,30.0
404,404,7.0710678118654755,61.1310068623117,7.0710678118654755,12.041594578792296,17.029386365926403,18.027756377319946,8.06225774829855,34.0,22.02271554554524,18.5,18.0,14.0,8.0,18.0,5.0,2.0,11.0,11.045361017187261,11.0,27.0,31.0,29.017236257093817
405,405,6.0,61.07372593840988,7.0,13.0,17.0,18.027756377319946,8.0,34.0,21.0,18.0,16.0,13.0,6.5,19.5,5.5,0.5,11.0,11.180339887498949,11.0,26.0,30.0,30.01666203960727
406,406,6.0,62.07253821135398,7.0,13.0,17.029386365926403,19.026297590440446,7.0,33.0,20.0,17.0,16.0,13.0,7.5,18.5,4.5,1.5,12.0,11.045361017187261,11.0,26.0,30.0,31.0
407,407,7.0,61.07372593840988,6.0,13.0,17.0,18.027756377319946,8.0,34.0,21.0,17.5,15.0,12.0,5.5,20.5,6.5,0.5,11.0,11.045361017187261,11.0,25.0,29.0,29.0
408,408,8.0,61.07372593840988,6.0,13.0,17.029386365926403,18.027756377319946,7.0,34.0,21.0,17.0,14.0,11.0,5.5,21.5,8.5,0.5,11.0,11.180339887498949,11.0,25.0,28.0,31.0
409,409,9.0,61.07372593840988,6.0,12.0,16.0312195418814,18.027756377319946,7.0,34.0,22.0,17.5,14.0,11.0,5.5,21.5,8.5,0.5,10.0,10.04987562112089,10.5,25.0,28.0,29.0
410,410,9.055385138137417,61.07372593840988,6.082762530298219,12.041594578792296,17.0,18.027756377319946,6.082762530298219,33.0,21.02379604162864,16.5,13.0,10.0,5.5,21.5,8.5,0.5,11.0,11.045361017187261,11.0,24.0,28.0,29.0
411,411,8.0,62.03224967708329,6.0,12.0,17.0,18.027756377319946,6.0,32.0,20.0,16.0,12.0,10.0,5.0,21.0,8.0,0.0,11.0,11.045361017187261,11.0,24.0,27.0,30.01666203960727
412,412,9.0,61.07372593840988,5.0,12.0,16.0312195418814,17.029386365926403,7.0,33.0,21.0,16.5,13.0,10.0,4.5,21.5,8.5,0.5,11.0,10.04987562112089,10.0,25.0,29.0,29.017236257093817
413,413,8.0,61.07372593840988,5.0,12.041594578792296,17.0,18.027756377319946,7.0,32.01562118716424,20.0,16.0,12.0,9.0,3.5,21.5,8.5,0.5,11.0,11.045361017187261,11.0,25.0,29.0,29.0
414,414,8.0,61.07372593840988,6.0,12.041594578792296,16.0,17.029386365926403,6.0,32.01562118716424,20.0,16.0,12.0,9.0,4.5,21.5,8.5,0.5,11.0,11.045361017187261,11.0,25.0,28.0,28.0
415,415,8.0,61.07372593840988,6.0,12.041594578792296,16.0,17.029386365926403,7.0,33.015148038438355,21.0,17.0,13.0,10.0,4.5,21.5,8.5,0.5,12.0,11.180339887498949,11.0,26.0,28.0,29.017236257093817
416,416,9.0,62.07253821135398,5.0,11.0,17.029386365926403,18.027756377319946,8.0,33.0,22.0,17.5,14.0,11.0,4.5,20.5,8.5,0.5,10.04987562112089,10.04987562112089,10.0,26.0,28.0,28.0178514522438
417,417,9.0,62.07253821135398,5.0,12.0,16.0312195418814,17.029386365926403,8.0,34.0,22.0,17.5,15.0,12.0,5.5,20.5,8.5,1.5,11.0,11.045361017187261,11.0,26.0,28.0,31.0
418,418,8.0,63.071388124885914,7.0,12.041594578792296,16.0312195418814,18.027756377319946,8.0,35.014282800023196,23.0,19.0,16.0,13.0,6.5,20.5,7.5,1.5,11.045361017187261,10.04987562112089,10.0,27.0,29.0,31.0
419,419,9.0,63.071388124885914,6.0,12.0,16.0,17.029386365926403,8.0,35.0,23.0,18.5,17.0,14.0,7.5,19.5,6.5,1.5,10.0,10.04987562112089,10.0,26.0,28.0,31.0
420,420,9.0,62.12889826803627,6.0,11.0,17.0,18.027756377319946,8.0,34.0,23.0,18.5,17.0,13.0,7.0,19.0,7.0,1.0,11.045361017187261,10.04987562112089,10.0,26.0,28.0,31.0
421,421,8.0,62.03224967708329,6.0,12.0,17.029386365926403,18.027756377319946,9.0,35.0,23.0,19.0,16.0,14.0,6.0,20.0,8.0,1.0,10.0,9.0,9.5,27.0,30.0,30.01666203960727
422,422,8.0,63.071388124885914,6.0,11.045361017187261,16.0312195418814,18.027756377319946,9.055385138137417,34.0,23.021728866442675,19.0,17.0,14.0,6.5,18.5,7.5,1.5,8.0,7.0,7.5,26.0,29.0,30.0
423,423,6.0,63.071388124885914,7.0,12.0,17.0,18.110770276274835,8.06225774829855,33.015148038438355,21.02379604162864,18.0,16.0,13.0,6.5,18.5,6.5,0.5,5.0990195135927845,4.123105625617661,4.5,27.0,30.0,30.0
424,424,7.0,62.12889826803627,6.0,12.0,17.029386365926403,18.027756377319946,8.0,33.0,21.0,17.5,16.0,12.0,6.0,19.0,7.0,1.0,4.0,5.0,5.0,26.0,30.0,30.0
425,425,9.0,61.07372593840988,6.082762530298219,12.0,16.0,18.0,8.0,35.014282800023196,23.021728866442675,18.5,15.0,12.0,5.5,21.5,8.5,0.5,5.0,5.0990195135927845,5.5,26.0,29.0,31.016124838541646
426,426,10.0,60.07495318350236,6.082762530298219,13.0,16.0312195418814,18.027756377319946,7.0,36.013886210738214,23.021728866442675,18.0,14.0,11.0,5.5,23.5,9.5,0.5,8.06225774829855,7.0710678118654755,7.0,25.0,29.0,28.0178514522438
427,427,10.0,61.1310068623117,5.0990195135927845,13.0,17.029386365926403,18.027756377319946,7.0,35.014282800023196,22.02271554554524,17.0,14.0,10.0,5.0,23.0,9.0,1.0,9.0,8.06225774829855,8.0,25.0,28.0,28.0178514522438
428,428,7.0710678118654755,60.03332407921454,6.0,14.0,16.0312195418814,18.027756377319946,6.0,33.015148038438355,19.026297590440446,15.5,12.0,10.0,5.0,22.0,8.0,0.0,11.045361017187261,9.055385138137417,9.5,24.0,27.0,29.017236257093817
429,429,7.0,62.07253821135398,6.0,12.041594578792296,16.0,17.0,6.0,31.016124838541646,19.0,15.5,11.0,8.0,3.5,21.5,8.5,1.5,11.0,10.04987562112089,10.5,24.0,27.0,28.0178514522438
430,430,7.0,60.07495318350236,6.0,12.041594578792296,16.0,17.029386365926403,6.0,31.016124838541646,19.0,15.5,12.0,9.0,4.5,20.5,7.5,0.5,11.045361017187261,10.04987562112089,10.5,25.0,28.0,28.0
431,431,6.0,60.07495318350236,6.082762530298219,12.0,15.033296378372908,17.029386365926403,6.0,30.01666203960727,18.027756377319946,15.0,12.0,9.0,4.5,19.5,6.5,0.5,11.045361017187261,11.180339887498949,11.0,24.0,27.0,28.0
432,432,6.0,61.032778078668514,6.0,12.0,16.0312195418814,18.027756377319946,6.082762530298219,30.01666203960727,18.027756377319946,15.0,11.0,9.0,4.0,20.0,7.0,1.0,12.0,11.180339887498949,11.0,24.0,27.0,28.0
433,433,6.0,61.07372593840988,7.0710678118654755,12.0,17.029386365926403,18.0,6.0,31.016124838541646,19.026297590440446,16.0,12.0,9.0,4.5,20.5,7.5,0.5,11.0,10.04987562112089,10.5,24.0,27.0,29.017236257093817
434,434,6.0,61.032778078668514,7.0710678118654755,12.0,16.0312195418814,17.029386365926403,6.0,31.016124838541646,19.026297590440446,16.0,12.0,10.0,5.0,20.0,7.0,0.0,12.041594578792296,11.045361017187261,11.0,24.0,28.0,28.0
435,435,7.0,61.032778078668514,6.0,13.0,16.0312195418814,17.029386365926403,6.082762530298219,32.01562118716424,19.026297590440446,15.5,12.0,10.0,5.0,21.0,8.0,0.0,11.0,11.045361017187261,11.0,24.0,28.0,28.0
436,436,8.0,61.032778078668514,5.0,12.0,16.0312195418814,18.027756377319946,7.0710678118654755,32.01562118716424,20.024984394500787,16.0,12.0,10.0,4.0,21.0,8.0,0.0,11.0,11.045361017187261,11.0,25.0,28.0,29.0
437,437,8.0,61.07372593840988,5.0,13.038404810405298,16.0312195418814,17.029386365926403,7.0,33.015148038438355,20.0,16.0,13.0,10.0,4.5,21.5,8.5,0.5,11.0,11.045361017187261,11.0,26.0,30.0,31.0
438,438,7.0,61.07372593840988,7.0,13.0,17.029386365926403,18.0,7.0710678118654755,34.0147027033899,21.02379604162864,17.5,15.0,12.0,6.5,20.5,7.5,1.5,11.0,10.04987562112089,10.5,29.0,32.0,34.0147027033899
439,439,9.0,62.12889826803627,7.0,13.038404810405298,16.0312195418814,18.027756377319946,7.0,36.013886210738214,23.0,18.5,17.0,13.0,8.0,21.0,8.0,2.0,5.0,5.0990195135927845,5.0,32.0,35.0,37.013511046643494
440,440,11.0,61.07372593840988,6.0,12.0,17.029386365926403,19.026297590440446,10.0,39.0,27.0,21.5,20.0,17.0,8.5,20.5,8.5,3.5,6.0,6.082762530298219,6.0,25.0,31.0,31.064449134018133
441,441,15.033296378372908,60.07495318350236,6.082762530298219,12.041594578792296,17.0,18.027756377319946,10.0,43.01162633521314,31.0,23.5,23.0,20.0,11.5,21.5,8.5,5.5,6.0,6.0,6.0,24.0,29.0,31.064449134018133
442,442,16.0,58.077534382926416,7.0,12.041594578792296,16.0312195418814,17.029386365926403,10.0,45.0111097397076,33.0,25.0,26.0,23.0,14.5,20.5,7.5,8.5,8.0,7.0,7.0,23.0,28.0,31.064449134018133
443,443,17.0,57.14017850864661,6.0,13.038404810405298,15.0,17.029386365926403,11.0,47.01063709417264,34.0,25.5,28.0,24.0,15.0,21.0,7.0,9.0,10.0,10.0,10.0,23.0,30.0,34.058772731852805
444,444,17.0,56.142675390472796,6.0,12.041594578792296,16.0312195418814,16.0312195418814,11.0,46.010868281309364,34.0,25.5,27.0,23.0,14.0,21.0,8.0,9.0,11.0,10.04987562112089,10.0,25.0,32.0,35.12833614050059
445,445,16.0312195418814,56.08029957123981,6.0,14.0,15.033296378372908,17.029386365926403,11.0,47.01063709417264,33.015148038438355,25.0,26.0,23.0,13.5,22.5,8.5,8.5,12.0,11.045361017187261,11.5,26.0,34.0,35.05709628591621
446,446,16.0,56.08029957123981,6.0,13.0,16.0312195418814,17.029386365926403,11.045361017187261,46.010868281309364,33.015148038438355,25.0,26.0,23.0,13.5,21.5,8.5,8.5,12.0,12.041594578792296,12.0,22.0,29.0,32.0624390837628
447,447,16.0,55.08175741568164,5.0990195135927845,13.0,15.0,17.11724276862369,11.0,45.0111097397076,32.01562118716424,24.0,24.0,21.0,11.5,22.5,9.5,6.5,12.041594578792296,12.165525060596439,12.0,27.0,35.0,36.124783736376884
448,448,15.0,56.08029957123981,6.0,13.038404810405298,15.0,17.029386365926403,11.0,45.0111097397076,32.0,24.5,24.0,21.0,11.5,22.5,8.5,6.5,13.038404810405298,12.041594578792296,12.0,30.0,36.0,39.05124837953327
449,449,14.0,56.0357029044876,6.082762530298219,14.035668847618199,15.033296378372908,16.0312195418814,10.04987562112089,44.01136216933077,30.0,23.0,22.0,20.0,11.0,23.0,9.0,6.0,12.0,12.041594578792296,12.0,26.0,33.0,36.05551275463989
450,450,12.041594578792296,56.08029957123981,6.0,14.0,15.033296378372908,16.0312195418814,10.0,42.01190307520001,28.0178514522438,22.0,22.0,19.0,10.5,21.5,7.5,5.5,12.041594578792296,12.041594578792296,12.5,26.0,33.0,36.05551275463989
451,451,10.04987562112089,55.08175741568164,6.0,13.0,15.033296378372908,16.0312195418814,10.0,39.01281840626232,26.019223662515376,21.0,22.0,19.0,10.5,18.5,4.5,5.5,12.041594578792296,12.041594578792296,12.0,32.0,37.0,39.05124837953327
452,452,9.055385138137417,54.037024344425184,6.0,12.0,15.0,16.0312195418814,9.055385138137417,36.0,24.0,19.5,19.0,17.0,9.0,18.0,5.0,4.0,13.038404810405298,12.041594578792296,12.0,33.0,38.0,40.049968789001575
453,453,8.0,55.00909015790027,6.082762530298219,12.0,15.033296378372908,16.0312195418814,9.0,35.014282800023196,23.021728866442675,19.0,19.0,18.0,9.5,16.5,3.5,4.5,13.0,11.045361017187261,11.5,32.0,36.0,39.01281840626232
454,454,6.0,54.00925846556311,7.0,12.0,15.0,16.0312195418814,9.0,34.0,22.0,19.0,18.0,17.0,8.5,16.5,3.5,2.5,13.038404810405298,12.041594578792296,12.0,33.0,36.0,38.0
455,455,6.0,54.0,7.0,12.0,15.0,16.0,9.0,34.0,22.0,19.0,18.0,18.0,9.0,16.0,2.0,3.0,13.0,12.041594578792296,12.0,33.0,36.0,38.01315561749642
456,456,7.0,54.00925846556311,6.0,13.0,15.033296378372908,17.029386365926403,9.0,35.0,22.0,18.5,18.0,17.0,8.5,17.5,3.5,3.5,12.041594578792296,11.045361017187261,11.5,32.0,35.0,36.0
457,457,7.0,55.00909015790027,6.0,14.0,15.0,16.0,9.0,36.0,22.0,18.5,18.0,17.0,8.5,18.5,4.5,3.5,12.041594578792296,12.041594578792296,12.0,31.0,33.0,36.0
458,458,7.0,56.00892785976178,6.0,13.0,16.0,16.0,9.0,35.0,22.0,18.5,18.0,17.0,8.5,17.5,4.5,2.5,13.038404810405298,12.041594578792296,12.0,31.0,33.0,30.0
459,459,7.0,55.00909015790027,7.0,14.0,15.0,16.0,8.0,36.0,22.0,18.5,17.0,16.0,8.5,19.5,4.5,2.5,12.041594578792296,12.041594578792296,12.0,30.0,31.0,33.0
460,460,8.0,56.00892785976178,6.082762530298219,14.0,15.0,16.0,9.055385138137417,37.0,23.0,19.0,18.0,17.0,8.5,19.5,4.5,3.5,12.041594578792296,12.041594578792296,12.0,30.0,32.0,33.06055050963308
461,461,8.0,55.00909015790027,6.082762530298219,14.0,15.0,16.0,9.055385138137417,37.0,23.0,19.0,18.0,17.0,8.5,19.5,4.5,2.5,12.041594578792296,12.041594578792296,12.0,29.0,30.0,31.0
462,462,4.0,56.00892785976178,8.0,14.0,16.0,17.0,10.0,36.0,22.0,20.0,17.0,16.0,6.5,19.5,4.5,0.5,12.041594578792296,12.165525060596439,12.0,29.0,31.0,30.01666203960727
463,463,1.0,55.00909015790027,8.0,13.0,16.0,16.0,11.0,33.0,20.0,19.5,17.0,16.0,5.5,16.5,2.5,1.5,12.0,12.165525060596439,12.0,27.0,29.0,29.0
464,464,0.0,55.00909015790027,7.0,12.041594578792296,15.0,16.0,11.045361017187261,30.0,18.027756377319946,18.0,16.0,15.0,4.5,14.5,2.5,1.5,12.041594578792296,12.041594578792296,11.5,28.0,30.0,30.01666203960727
465,465,1.0,54.00925846556311,7.0,11.0,14.0,15.033296378372908,11.045361017187261,30.01666203960727,19.026297590440446,18.5,17.0,16.0,5.5,13.5,1.5,0.5,12.041594578792296,11.180339887498949,11.0,28.0,30.0,31.0
466,466,0.0,52.0,8.0,13.0,14.0,15.0,11.045361017187261,32.01562118716424,19.026297590440446,19.0,17.0,17.0,6.0,15.0,1.0,1.0,12.0,11.045361017187261,11.5,28.0,30.0,31.0
467,467,0.0,52.0,8.0,14.0,15.0,16.0312195418814,11.180339887498949,33.06055050963308,19.1049731745428,19.0,17.0,17.0,6.0,16.0,1.0,1.0,11.045361017187261,11.045361017187261,11.5,28.0,30.0,31.016124838541646
468,468,1.0,53.009433122794285,8.0,13.0,15.0,16.0312195418814,11.045361017187261,33.015148038438355,20.024984394500787,19.5,18.0,17.0,6.5,15.5,1.5,0.5,12.041594578792296,12.041594578792296,12.0,27.0,29.0,30.0
469,469,2.0,52.009614495783374,8.0,14.0,15.033296378372908,16.0,11.045361017187261,35.014282800023196,21.02379604162864,20.0,19.0,18.0,7.5,16.5,1.5,0.5,12.041594578792296,11.045361017187261,11.5,27.0,29.0,30.0
470,470,2.0,53.009433122794285,8.0,14.0,15.033296378372908,16.0,10.04987562112089,34.0147027033899,20.024984394500787,19.0,17.0,16.0,6.5,17.5,2.5,0.5,12.041594578792296,11.045361017187261,11.0,28.0,29.0,29.0
471,471,4.0,55.0,7.0,13.0,15.0,16.0,8.0,32.0,19.0,17.0,16.0,16.0,8.0,16.0,2.0,1.0,12.0,12.041594578792296,12.0,28.0,29.0,31.0
472,472,5.0,56.00892785976178,7.0,13.0,15.0,16.0,8.0,33.0,20.0,17.5,17.0,16.0,8.5,16.5,2.5,2.5,11.045361017187261,11.045361017187261,11.0,28.0,30.0,33.015148038438355
473,473,5.0,57.0,7.0,14.0,15.0,16.0,9.0,35.0,21.0,18.5,17.0,17.0,8.0,18.0,3.0,2.0,11.045361017187261,11.045361017187261,11.0,31.0,32.0,34.0
474,474,7.0,58.008620049092706,7.0,14.0,15.0,17.0,9.0,37.0,23.0,19.5,19.0,18.0,9.5,18.5,3.5,2.5,11.0,11.045361017187261,11.0,33.0,35.0,38.01315561749642
475,475,10.0,58.034472514187634,8.0,14.035668847618199,15.033296378372908,17.029386365926403,9.0,41.012193308819754,27.0,22.0,22.0,20.0,12.0,20.0,5.0,5.0,13.038404810405298,11.045361017187261,11.5,32.0,36.0,38.01315561749642
476,476,12.0,58.034472514187634,7.0710678118654755,14.0,15.033296378372908,17.029386365926403,11.0,44.01136216933077,30.01666203960727,24.0,24.0,22.0,12.0,21.0,6.0,6.0,12.041594578792296,11.045361017187261,11.0,29.0,36.0,37.05401462729781
477,477,14.0,58.077534382926416,8.0,13.038404810405298,15.0,16.0312195418814,11.045361017187261,46.04345773288535,33.015148038438355,26.0,26.0,23.0,13.5,21.5,8.5,6.5,12.0,11.045361017187261,11.5,32.0,39.0,38.01315561749642
478,478,16.0,58.077534382926416,7.0,12.041594578792296,15.0,16.0312195418814,11.045361017187261,46.04345773288535,34.0147027033899,26.0,28.0,25.0,15.5,19.5,7.5,8.5,12.0,11.045361017187261,11.5,31.0,38.0,37.05401462729781
479,479,16.0,58.137767414994535,7.0710678118654755,12.0,14.0,16.0312195418814,11.0,46.010868281309364,34.0147027033899,26.0,28.0,24.0,15.0,20.0,7.0,8.0,12.0,11.045361017187261,11.5,28.0,37.0,36.124783736376884
480,480,17.0,57.14017850864661,6.0,12.041594578792296,15.0,17.11724276862369,12.041594578792296,47.042533945356304,35.014282800023196,26.5,28.0,24.0,14.0,21.0,9.0,8.0,12.041594578792296,12.041594578792296,12.0,32.0,39.0,38.05259518088089
481,481,16.0,57.21887800367987,7.0710678118654755,13.038404810405298,15.033296378372908,16.0312195418814,11.0,47.042533945356304,34.0147027033899,26.0,27.0,22.0,13.5,22.5,9.5,7.5,12.0,11.045361017187261,11.0,34.0,38.0,39.01281840626232
482,482,16.0,57.14017850864661,6.082762530298219,13.0,15.033296378372908,16.1245154965971,11.045361017187261,46.0,33.0,25.0,26.0,22.0,13.0,22.0,9.0,7.0,11.0,11.180339887498949,11.0,28.0,36.0,36.124783736376884
483,483,15.0,57.14017850864661,6.0,13.0,16.0,17.11724276862369,10.0,44.0,31.0,23.5,24.0,20.0,12.0,22.0,9.0,6.0,12.0,11.045361017187261,11.0,28.0,36.0,36.124783736376884
484,484,12.0,57.14017850864661,6.0,12.041594578792296,15.0,16.0312195418814,10.04987562112089,40.0,28.0178514522438,22.0,23.0,19.0,11.0,19.0,6.0,5.0,12.041594578792296,11.045361017187261,11.5,31.0,37.0,38.01315561749642
485,485,3.0,54.147945482723536,8.0,13.038404810405298,14.035668847618199,15.132745950421556,12.0,36.013886210738214,23.0,21.5,22.0,18.0,8.0,16.0,3.0,1.0,13.0,11.045361017187261,11.0,32.0,36.0,37.013511046643494
486,486,0.0,54.147945482723536,8.0,11.0,15.033296378372908,15.033296378372908,12.0,31.0,20.0,20.0,20.0,16.0,6.0,13.0,2.0,0.0,12.041594578792296,11.045361017187261,11.0,34.0,37.0,38.01315561749642
487,487,0.0,54.147945482723536,8.0,11.0,15.033296378372908,15.033296378372908,12.0,31.0,20.0,20.0,20.0,16.0,6.0,13.0,2.0,0.0,12.041594578792296,11.045361017187261,11.0,34.0,37.0,38.01315561749642
488,488,1.0,54.08326913195984,8.0,11.0,15.033296378372908,15.033296378372908,13.0,33.0,22.0,21.5,21.0,18.0,6.5,13.5,1.5,0.5,13.038404810405298,11.045361017187261,11.5,34.0,36.0,37.0
489,489,5.0,54.08326913195984,8.0,12.0,15.0,16.1245154965971,13.0,38.0,26.0,23.5,22.0,19.0,7.5,17.5,4.5,0.5,12.041594578792296,11.045361017187261,11.0,32.0,36.0,37.013511046643494
490,490,5.0,54.08326913195984,8.0,12.0,15.0,16.1245154965971,13.0,38.0,26.0,23.5,22.0,19.0,7.5,17.5,4.5,0.5,12.041594578792296,11.045361017187261,11.0,32.0,36.0,37.013511046643494
491,491,10.04987562112089,56.08029957123981,8.0,14.0,16.0312195418814,17.029386365926403,11.045361017187261,43.0,29.0,24.0,23.0,20.0,10.5,21.5,7.5,3.5,13.0,12.041594578792296,12.0,34.0,38.0,37.013511046643494
492,492,13.0,57.0350769263968,7.0,13.0,15.0,17.029386365926403,10.0,43.0,30.0,23.5,22.0,20.0,11.0,22.0,8.0,5.0,12.0,11.045361017187261,11.5,34.0,37.0,37.0
493,493,11.045361017187261,56.08029957123981,7.0,14.0,16.0312195418814,17.029386365926403,9.055385138137417,41.0,27.0,21.5,22.0,19.0,11.5,20.5,6.5,5.5,12.041594578792296,11.045361017187261,11.0,33.0,36.0,38.0
494,494,12.0,57.07889277132134,6.082762530298219,12.0,16.0,17.029386365926403,10.04987562112089,40.0,28.0,22.0,22.0,19.0,10.5,19.5,6.5,4.5,12.0,11.045361017187261,11.5,33.0,36.0,36.0
495,495,9.0,56.08029957123981,7.0,13.038404810405298,15.033296378372908,17.029386365926403,9.0,38.01315561749642,25.0,20.5,21.0,18.0,10.5,18.5,5.5,4.5,12.041594578792296,11.045361017187261,11.5,33.0,36.0,36.0
496,496,7.0,55.08175741568164,7.0,11.0,15.0,16.0312195418814,9.0,34.0,23.0,19.5,20.0,17.0,9.5,15.5,3.5,3.5,13.0,12.0,12.0,33.0,35.0,36.013886210738214
497,497,6.0,55.08175741568164,7.0,13.0,15.0,16.0312195418814,9.0,35.0,22.0,19.0,20.0,17.0,9.5,16.5,3.5,3.5,12.041594578792296,11.0,11.0,32.0,34.0,37.013511046643494
498,498,6.082762530298219,56.0357029044876,6.0,12.0,16.0312195418814,16.0312195418814,9.055385138137417,33.0,21.0,18.0,18.0,16.0,8.0,16.0,3.0,3.0,12.041594578792296,11.045361017187261,11.0,33.0,35.0,34.0147027033899
499,499,6.0,56.00892785976178,7.0,12.041594578792296,15.033296378372908,17.029386365926403,8.0,33.015148038438355,21.0,18.0,18.0,17.0,9.5,15.5,2.5,3.5,12.041594578792296,11.045361017187261,11.0,32.0,34.0,34.0147027033899
500,500,6.0,56.00892785976178,7.0,13.0,15.0,16.0,8.0,34.0,21.0,18.0,18.0,17.0,9.5,16.5,2.5,2.5,13.038404810405298,12.041594578792296,12.0,30.0,32.0,31.0
501,501,6.0,55.00909015790027,7.0,13.0,15.0,16.0312195418814,8.0,34.0,21.0,18.0,18.0,17.0,9.5,16.5,3.5,2.5,12.041594578792296,12.041594578792296,12.0,30.0,32.0,32.01562118716424
502,502,6.0,55.00909015790027,7.0,13.0,15.0,16.0,8.0,34.0,21.0,18.0,17.0,16.0,8.5,17.5,3.5,1.5,12.041594578792296,11.045361017187261,11.5,30.0,32.0,33.015148038438355
503,503,5.0,56.00892785976178,7.0,13.0,15.0,17.0,8.0,33.0,20.0,17.5,17.0,16.0,8.5,16.5,2.5,1.5,12.041594578792296,11.045361017187261,11.0,30.0,32.0,31.016124838541646
504,504,5.0990195135927845,56.00892785976178,7.0,13.0,16.0,17.029386365926403,8.0,33.015148038438355,20.024984394500787,17.5,17.0,16.0,8.5,16.5,2.5,1.5,11.0,11.045361017187261,11.0,28.0,30.0,30.01666203960727
505,505,5.0,57.0350769263968,7.0,13.0,15.0,17.0,8.0,33.0,20.0,17.5,17.0,15.0,8.0,17.0,3.0,1.0,12.041594578792296,12.041594578792296,12.0,28.0,29.0,31.016124838541646
506,506,4.0,57.0350769263968,7.0,13.0,16.0,17.029386365926403,8.0,32.0,19.0,17.0,17.0,15.0,8.0,16.0,2.0,1.0,10.0,10.04987562112089,10.0,27.0,29.0,29.0
507,507,3.0,58.034472514187634,7.0710678118654755,14.0,16.0,17.029386365926403,8.06225774829855,32.0,18.0,16.5,16.0,14.0,7.0,17.0,3.0,1.0,5.0,5.0990195135927845,5.0,26.0,29.0,29.017236257093817
508,508,3.0,57.0350769263968,7.0,13.038404810405298,16.0,17.029386365926403,9.0,32.01562118716424,19.0,17.5,17.0,15.0,7.0,16.0,2.0,1.0,4.0,4.0,4.0,27.0,31.0,28.0
509,509,6.0,57.14017850864661,7.0,13.038404810405298,16.0312195418814,17.11724276862369,8.0,34.0147027033899,21.0,18.0,18.0,14.0,8.0,18.0,5.0,2.0,4.123105625617661,4.0,4.0,26.0,32.0,30.0
510,510,8.0,57.42821606144492,6.082762530298219,13.038404810405298,17.029386365926403,18.110770276274835,9.055385138137417,36.013886210738214,23.0,19.0,20.0,13.0,7.5,19.5,6.5,2.5,4.123105625617661,3.1622776601683795,3.0,23.0,32.0,28.071337695236398
511,511,8.0,59.53990258641679,7.0710678118654755,12.041594578792296,17.11724276862369,18.110770276274835,8.0,35.05709628591621,23.021728866442675,19.0,20.0,12.0,8.0,19.0,7.0,3.0,6.082762530298219,5.0990195135927845,5.5,21.0,32.0,29.154759474226502
512,512,8.06225774829855,59.53990258641679,7.0,12.041594578792296,16.1245154965971,17.11724276862369,8.0,35.05709628591621,23.021728866442675,19.0,20.0,12.0,8.0,19.0,7.0,3.0,9.055385138137417,9.055385138137417,9.0,22.0,34.0,27.16615541441225
513,513,8.06225774829855,59.53990258641679,7.0,12.041594578792296,16.1245154965971,17.11724276862369,8.0,35.05709628591621,23.021728866442675,19.0,20.0,12.0,8.0,19.0,7.0,3.0,9.055385138137417,9.055385138137417,9.0,22.0,34.0,27.16615541441225
514,514,9.0,60.530983801686226,6.082762530298219,13.038404810405298,17.11724276862369,18.24828759089466,8.0,36.05551275463989,23.021728866442675,18.5,19.0,11.0,7.0,21.0,8.0,3.0,10.04987562112089,9.219544457292887,9.5,22.0,33.0,28.071337695236398
515,515,9.0,62.39390995922599,7.0710678118654755,13.038404810405298,17.11724276862369,18.110770276274835,8.0,37.05401462729781,24.020824298928627,19.5,19.0,12.0,7.5,21.5,8.5,2.5,10.0,10.04987562112089,10.0,22.0,32.0,29.017236257093817
516,516,13.0,61.29437168288782,5.0990195135927845,13.0,17.029386365926403,18.027756377319946,9.0,40.01249804748511,27.018512172212592,20.5,19.0,13.0,7.0,24.0,11.0,3.0,10.0,10.198039027185569,10.0,24.0,31.0,30.01666203960727
517,517,13.0,61.29437168288782,5.0990195135927845,13.0,17.029386365926403,18.027756377319946,9.0,40.01249804748511,27.018512172212592,20.5,19.0,13.0,7.0,24.0,11.0,3.0,10.0,10.198039027185569,10.0,24.0,31.0,30.01666203960727
518,518,14.0,63.198101237299845,6.082762530298219,12.0,17.029386365926403,18.110770276274835,8.06225774829855,40.0,28.0,21.0,18.0,13.0,7.5,24.5,12.5,3.5,10.0,10.04987562112089,10.0,25.0,31.0,29.0
519,519,13.0,63.12685640834652,6.0,13.038404810405298,17.029386365926403,18.110770276274835,8.0,40.01249804748511,27.0,20.5,17.0,13.0,7.0,25.0,12.0,2.0,10.0,9.055385138137417,9.5,25.0,31.0,30.0
520,520,10.0,62.12889826803627,6.0,13.038404810405298,17.029386365926403,19.026297590440446,9.0,38.01315561749642,25.0,20.0,17.0,13.0,6.0,23.0,10.0,2.0,11.0,10.04987562112089,10.0,25.0,31.0,30.01666203960727
521,521,9.0,64.1248781675256,6.0,12.041594578792296,17.029386365926403,19.026297590440446,8.0,35.014282800023196,23.0,18.5,15.0,11.0,5.0,22.0,9.0,1.0,10.0,10.04987562112089,10.5,26.0,31.0,28.0
522,522,9.0,64.1248781675256,6.082762530298219,11.0,16.0312195418814,18.027756377319946,7.0,33.015148038438355,22.02271554554524,17.5,15.0,11.0,6.0,20.0,9.0,1.0,10.0,10.04987562112089,10.0,25.0,30.0,29.0
523,523,9.0,64.07027391856539,6.0,11.045361017187261,17.029386365926403,19.026297590440446,7.0710678118654755,33.0,22.02271554554524,17.5,14.0,11.0,5.5,20.5,8.5,0.5,10.04987562112089,9.055385138137417,9.5,25.0,30.0,29.0
524,524,7.0,64.07027391856539,6.0,12.0,17.0,19.026297590440446,7.0,32.0,20.0,16.5,14.0,11.0,5.5,19.5,7.5,0.5,10.0,9.055385138137417,9.0,25.0,29.0,30.01666203960727
525,525,8.0,64.07027391856539,6.0,11.0,17.029386365926403,18.027756377319946,7.0710678118654755,32.01562118716424,21.02379604162864,17.0,14.0,11.0,5.5,19.5,7.5,0.5,11.0,10.04987562112089,10.0,25.0,28.0,31.016124838541646
526,526,8.0,64.07027391856539,6.0,11.0,17.029386365926403,18.027756377319946,6.082762530298219,31.016124838541646,20.024984394500787,16.0,13.0,10.0,5.5,19.5,7.5,0.5,11.0,9.055385138137417,9.5,25.0,28.0,29.0
527,527,8.0,64.07027391856539,6.0,12.041594578792296,18.027756377319946,18.027756377319946,7.0710678118654755,33.0,21.02379604162864,17.0,14.0,11.0,5.5,20.5,7.5,0.5,10.0,10.0,10.0,25.0,28.0,29.0
528,528,9.0,64.03124237432849,6.0,11.0,17.029386365926403,18.0,6.0,32.0,21.0,16.5,12.0,10.0,5.0,21.0,9.0,0.0,10.04987562112089,10.04987562112089,10.0,26.0,28.0,30.01666203960727
529,529,8.0,63.0317380372777,6.0,12.0,17.029386365926403,17.029386365926403,6.0,32.0,20.0,16.0,12.0,10.0,5.0,21.0,8.0,0.0,10.0,10.04987562112089,10.0,26.0,28.0,29.017236257093817
530,530,8.0,63.0317380372777,6.0,12.0,17.0,18.027756377319946,7.0710678118654755,33.015148038438355,21.02379604162864,17.0,13.0,11.0,5.0,21.0,8.0,0.0,10.04987562112089,9.0,9.5,27.0,28.0,30.066592756745816
531,531,8.0,62.03224967708329,6.0,11.0,17.0,18.027756377319946,7.0,32.0,21.0,17.0,13.0,11.0,5.0,20.0,9.0,0.0,11.045361017187261,10.0,10.0,26.0,27.0,30.01666203960727
532,532,8.0,61.032778078668514,6.0,12.0,16.0,17.0,7.0,33.0,21.0,17.0,13.0,11.0,5.0,21.0,9.0,0.0,11.0,10.0,10.0,26.0,28.0,28.0178514522438
533,533,8.0,61.00819617067857,6.0,11.0,17.0,18.0,7.0,32.0,21.0,17.0,12.0,11.0,4.5,20.5,8.5,0.5,10.0,9.055385138137417,9.5,26.0,27.0,29.017236257093817
534,534,8.0,61.00819617067857,6.082762530298219,12.0,17.0,18.027756377319946,7.0710678118654755,33.0,21.0,17.0,12.0,11.0,4.5,21.5,8.5,0.5,10.0,9.055385138137417,9.5,26.0,27.0,29.017236257093817
535,535,9.0,61.00819617067857,5.0,12.0,16.0312195418814,17.029386365926403,7.0710678118654755,33.015148038438355,21.02379604162864,16.5,13.0,12.0,5.5,20.5,8.5,1.5,11.0,11.045361017187261,11.0,27.0,28.0,28.0178514522438
536,536,9.0,59.00847396772772,6.0,13.0,16.0,17.029386365926403,8.06225774829855,36.013886210738214,23.021728866442675,18.5,15.0,14.0,6.5,21.5,8.5,1.5,10.04987562112089,10.04987562112089,10.0,28.0,29.0,29.017236257093817
537,537,11.0,58.034472514187634,6.0,12.0,16.0312195418814,17.0,8.0,37.0,25.0,19.5,17.0,15.0,8.0,21.0,8.0,3.0,10.04987562112089,10.0,9.5,31.0,32.0,33.015148038438355
538,538,11.0,58.034472514187634,5.0,12.0,16.0,17.029386365926403,10.04987562112089,38.01315561749642,26.019223662515376,20.5,19.0,17.0,8.0,20.0,7.0,3.0,5.0990195135927845,5.0,5.0,33.0,33.0,34.0147027033899
539,539,12.041594578792296,56.0357029044876,6.0,13.0,15.0,17.029386365926403,10.04987562112089,41.0,28.0,22.0,21.0,19.0,10.0,21.0,7.0,4.0,4.0,5.0,5.0,32.0,34.0,34.0
540,540,13.0,56.0357029044876,6.0,13.0,16.0312195418814,17.029386365926403,10.04987562112089,42.01190307520001,29.017236257093817,22.5,22.0,20.0,11.0,21.0,7.0,6.0,5.0,6.0,6.0,28.0,33.0,35.0
541,541,13.0,57.0087712549569,6.0,13.0,15.0,16.0,11.0,43.0,30.0,23.5,23.0,22.0,11.5,20.5,6.5,5.5,8.06225774829855,7.0,7.0,30.0,34.0,38.01315561749642
542,542,13.038404810405298,56.00892785976178,7.0,13.0,15.0,17.0,10.04987562112089,43.0,30.0,23.5,23.0,22.0,12.5,20.5,7.5,6.5,9.0,8.0,8.5,33.0,35.0,38.01315561749642
543,543,13.0,55.036351623268054,7.0,13.0,14.035668847618199,16.0,11.045361017187261,44.01136216933077,31.016124838541646,24.5,24.0,22.0,12.0,21.0,8.0,6.0,10.04987562112089,9.0,9.5,34.0,35.0,38.0
544,544,13.0,56.0357029044876,7.0,13.0,15.0,16.0,10.0,43.0,30.0,23.5,23.0,21.0,12.0,21.0,7.0,6.0,11.0,10.04987562112089,10.0,33.0,36.0,38.0
545,545,12.0,56.00892785976178,7.0,14.035668847618199,16.0,17.029386365926403,10.0,43.01162633521314,29.0,23.0,23.0,22.0,12.5,20.5,5.5,5.5,11.045361017187261,10.04987562112089,10.0,30.0,34.0,37.013511046643494
546,546,10.04987562112089,56.0,7.0,13.0,15.0,16.0312195418814,10.0,40.01249804748511,27.018512172212592,22.0,21.0,21.0,11.0,19.0,5.0,5.0,12.0,10.0,10.5,33.0,35.0,39.0
547,547,8.0,56.00892785976178,6.0,13.0,15.0,16.0,10.0,37.0,24.0,20.0,20.0,19.0,9.5,17.5,3.5,3.5,11.045361017187261,10.0,10.5,33.0,34.0,37.0
548,548,7.0,57.0,5.0,12.0,15.0,15.033296378372908,10.0,34.0,22.0,18.5,18.0,18.0,8.0,16.0,3.0,3.0,12.041594578792296,11.045361017187261,11.0,34.0,34.0,37.0
549,549,6.082762530298219,57.0087712549569,6.0,13.0,16.0,16.0,9.0,34.0147027033899,21.02379604162864,18.0,16.0,17.0,7.5,17.5,3.5,2.5,11.045361017187261,11.045361017187261,11.0,35.0,34.0,40.049968789001575
550,550,8.0,58.008620049092706,5.0,13.0,15.0,16.0,10.04987562112089,36.013886210738214,23.021728866442675,19.0,17.0,18.0,7.5,18.5,4.5,2.5,12.0,11.0,11.0,28.0,29.0,36.013886210738214
551,551,8.0,58.008620049092706,5.0,13.0,16.0,17.0,9.055385138137417,35.014282800023196,22.02271554554524,18.0,16.0,17.0,7.5,18.5,4.5,2.5,12.041594578792296,11.045361017187261,11.0,27.0,27.0,35.014282800023196
552,552,9.0,56.0357029044876,6.0,13.038404810405298,15.0,16.0,9.055385138137417,37.05401462729781,24.020824298928627,19.5,16.0,18.0,8.0,20.0,6.0,3.0,12.041594578792296,12.041594578792296,11.5,37.0,34.0,38.01315561749642
553,553,9.0,56.0,6.0,13.038404810405298,15.033296378372908,16.0,10.04987562112089,38.05259518088089,25.019992006393608,20.5,18.0,18.0,8.0,20.0,6.0,2.0,13.038404810405298,12.041594578792296,12.5,37.0,35.0,38.01315561749642
554,554,9.0,56.00892785976178,6.0,13.038404810405298,15.033296378372908,16.0,10.04987562112089,38.05259518088089,25.019992006393608,20.5,18.0,19.0,8.5,19.5,5.5,2.5,13.038404810405298,12.0,12.5,36.0,35.0,38.01315561749642
555,555,11.0,58.0,6.0,13.0,15.033296378372908,16.0,9.055385138137417,39.01281840626232,26.019223662515376,20.5,18.0,18.0,9.0,21.0,7.0,3.0,13.038404810405298,13.0,13.0,35.0,36.0,39.0
556,556,12.0,56.00892785976178,5.0,14.0,15.0,16.0312195418814,10.0,41.0,27.0,21.0,20.0,19.0,9.5,21.5,6.5,4.5,13.038404810405298,13.038404810405298,13.0,35.0,36.0,39.0
557,557,9.0,54.037024344425184,7.0,14.0,14.0,16.0,10.0,40.0,26.0,21.5,20.0,18.0,9.0,21.0,6.0,3.0,13.152946437965905,13.038404810405298,13.0,36.0,37.0,37.0
558,558,4.0,53.009433122794285,9.0,14.0,15.0,16.0312195418814,11.045361017187261,38.01315561749642,24.020824298928627,22.0,20.0,19.0,8.5,18.5,3.5,0.5,13.038404810405298,12.041594578792296,12.5,36.0,36.0,36.013886210738214
559,559,2.0,52.0,9.0,13.0,14.035668847618199,16.0,11.045361017187261,35.014282800023196,22.02271554554524,21.0,18.0,18.0,7.0,17.0,3.0,0.0,13.038404810405298,12.041594578792296,12.5,36.0,36.0,38.0
560,560,1.0,51.0098029794274,8.0,13.0,14.0,15.0,12.041594578792296,34.0147027033899,21.02379604162864,20.5,18.0,19.0,6.5,15.5,1.5,0.5,13.152946437965905,12.041594578792296,12.5,34.0,34.0,37.013511046643494
561,561,2.0,52.009614495783374,8.06225774829855,13.0,15.0,16.0,12.041594578792296,35.05709628591621,22.090722034374522,21.0,18.0,19.0,6.5,16.5,1.5,0.5,13.152946437965905,13.038404810405298,13.0,34.0,35.0,38.01315561749642
562,562,2.0,52.0,8.0,14.0,15.0,15.0,11.045361017187261,35.014282800023196,21.02379604162864,20.0,18.0,18.0,7.0,17.0,2.0,1.0,13.152946437965905,12.0,12.5,34.0,34.0,38.01315561749642
563,563,2.0,54.00925846556311,8.0,15.033296378372908,15.033296378372908,16.0,10.0,35.014282800023196,20.0,19.0,16.0,17.0,6.5,18.5,2.5,1.5,13.038404810405298,12.041594578792296,12.0,36.0,35.0,37.013511046643494
564,564,5.0990195135927845,54.00925846556311,7.0,14.0,15.033296378372908,16.0,9.055385138137417,35.05709628591621,21.095023109728988,18.5,16.0,17.0,7.5,18.5,3.5,0.5,12.041594578792296,12.041594578792296,12.0,34.0,33.0,36.05551275463989
565,565,5.0,55.00909015790027,7.0710678118654755,14.0,15.0,16.0,8.0,34.0147027033899,20.024984394500787,17.5,15.0,16.0,7.5,18.5,2.5,1.5,12.041594578792296,11.0,11.5,32.0,31.0,35.05709628591621
566,566,5.0,56.00892785976178,6.0,14.0,16.0312195418814,17.0,9.055385138137417,34.0147027033899,20.024984394500787,17.5,15.0,16.0,6.5,18.5,3.5,0.5,13.152946437965905,12.041594578792296,12.5,33.0,32.0,34.0147027033899
567,567,5.0,56.0357029044876,6.082762530298219,14.0,16.0,17.0,7.0,32.01562118716424,18.027756377319946,15.5,12.0,14.0,6.0,19.0,4.0,1.0,12.165525060596439,12.041594578792296,12.0,31.0,29.0,33.13608305156178
568,568,5.0,56.0357029044876,6.082762530298219,14.0,16.0312195418814,16.0,7.0,32.01562118716424,18.027756377319946,15.5,12.0,14.0,6.0,19.0,4.0,0.0,12.041594578792296,11.045361017187261,11.5,31.0,29.0,32.0624390837628
569,569,4.123105625617661,57.0350769263968,7.0710678118654755,14.035668847618199,16.0,17.029386365926403,6.0,31.016124838541646,17.0,15.0,11.0,13.0,6.0,19.0,4.0,0.0,12.041594578792296,11.0,11.0,30.0,28.0,30.01666203960727
570,570,5.0,56.0357029044876,6.0,13.0,16.0,17.029386365926403,7.0,31.0,18.0,15.5,11.0,13.0,5.0,19.0,5.0,0.0,11.045361017187261,11.045361017187261,11.5,30.0,27.0,30.066592756745816
571,571,5.0,56.08029957123981,6.0,13.038404810405298,16.0312195418814,17.0,7.0710678118654755,31.064449134018133,18.027756377319946,15.5,11.0,14.0,5.5,18.5,4.5,0.5,11.045361017187261,11.045361017187261,11.5,30.0,28.0,30.01666203960727
572,572,5.0,57.0350769263968,6.0,13.038404810405298,15.0,16.0,7.0,31.016124838541646,18.0,15.5,11.0,13.0,5.0,19.0,5.0,0.0,12.165525060596439,11.0,11.0,30.0,27.0,30.066592756745816
573,573,3.0,56.0357029044876,7.0,14.035668847618199,16.0,17.0,6.082762530298219,30.066592756745816,16.0312195418814,14.5,11.0,13.0,6.0,18.0,3.0,0.0,12.041594578792296,11.0,11.5,30.0,28.0,30.066592756745816
574,574,1.0,56.0357029044876,7.0,14.035668847618199,15.0,16.0312195418814,7.0,29.017236257093817,15.0,14.5,12.0,14.0,6.0,16.0,1.0,0.0,12.165525060596439,11.045361017187261,11.5,29.0,27.0,31.064449134018133
575,575,0.0,56.0357029044876,7.0,14.0,15.033296378372908,16.0312195418814,8.06225774829855,29.017236257093817,15.033296378372908,15.0,14.0,16.0,7.0,14.0,1.0,0.0,12.165525060596439,11.045361017187261,11.5,30.0,28.0,31.064449134018133
576,576,1.0,55.00909015790027,7.0710678118654755,13.0,16.0312195418814,16.0,8.0,29.017236257093817,16.0312195418814,15.5,14.0,15.0,6.5,14.5,0.5,0.5,11.045361017187261,12.0,11.5,30.0,28.0,30.066592756745816
577,577,2.0,57.0350769263968,7.0,13.038404810405298,15.0,16.0312195418814,8.0,30.01666203960727,17.0,16.0,14.0,16.0,7.0,15.0,0.0,0.0,12.041594578792296,11.0,11.0,29.0,29.0,30.066592756745816
578,578,3.0,57.0350769263968,7.0,14.035668847618199,16.0312195418814,16.0312195418814,8.0,32.01562118716424,18.0,16.5,15.0,17.0,8.0,16.0,0.0,1.0,12.041594578792296,11.045361017187261,11.5,30.0,30.0,30.01666203960727
579,579,7.0,58.008620049092706,7.0,14.0,16.0312195418814,17.0,7.0710678118654755,35.014282800023196,21.02379604162864,17.5,15.0,16.0,8.5,19.5,4.5,1.5,11.045361017187261,11.0,11.0,29.0,29.0,30.066592756745816
580,580,8.0,57.0,8.0,14.0,16.0,18.0,5.0,35.0,21.0,17.0,15.0,15.0,10.0,20.0,5.0,3.0,11.045361017187261,11.0,11.0,29.0,30.0,30.01666203960727
581,581,8.0,59.0,7.0,14.0,17.0,18.0,6.082762530298219,35.014282800023196,21.02379604162864,17.0,15.0,15.0,9.0,20.0,5.0,3.0,12.041594578792296,11.045361017187261,11.0,29.0,30.0,30.01666203960727
582,582,7.0,59.00847396772772,7.0,14.0,16.0,17.0,7.0710678118654755,35.014282800023196,21.02379604162864,17.5,14.0,15.0,7.5,20.5,5.5,1.5,12.041594578792296,11.045361017187261,11.5,30.0,31.0,30.066592756745816
583,583,8.0,60.00833275470999,7.0,14.0,17.0,18.0,7.0,36.0,22.0,18.0,14.0,15.0,7.5,21.5,6.5,1.5,11.045361017187261,11.045361017187261,11.5,29.0,30.0,31.016124838541646
584,584,8.0,60.00833275470999,7.0,14.0,17.0,18.0,7.0,36.0,22.0,18.0,14.0,15.0,7.5,21.5,6.5,1.5,11.045361017187261,11.045361017187261,11.0,29.0,30.0,31.016124838541646
585,585,10.0,60.00833275470999,7.0,14.0,17.0,18.0,7.0,38.0,24.0,19.0,14.0,15.0,7.5,23.5,8.5,1.5,12.041594578792296,12.041594578792296,12.0,29.0,30.0,30.066592756745816
586,586,14.0,60.00833275470999,6.0,13.0,17.0,18.0,8.0,41.0,28.0,21.0,15.0,16.0,7.5,25.5,11.5,2.5,11.045361017187261,11.045361017187261,11.5,28.0,28.0,29.017236257093817
587,587,14.0,60.00833275470999,6.0,13.0,17.0,18.0,8.0,41.0,28.0,21.0,15.0,16.0,7.5,25.5,11.5,2.5,11.045361017187261,11.045361017187261,11.5,28.0,28.0,29.017236257093817
588,588,13.0,60.00833275470999,6.0,13.0,17.0,19.0,8.0,40.0,27.0,20.5,15.0,16.0,7.5,24.5,10.5,2.5,12.041594578792296,10.0,10.5,28.0,28.0,30.01666203960727
589,589,11.0,60.00833275470999,5.0,13.038404810405298,17.029386365926403,18.0,8.0,37.013511046643494,24.0,18.5,14.0,15.0,6.5,22.5,8.5,1.5,11.045361017187261,11.045361017187261,11.5,28.0,27.0,31.064449134018133
590,590,9.055385138137417,61.032778078668514,5.0,13.0,16.0312195418814,18.0,8.0,35.014282800023196,22.02271554554524,17.5,12.0,14.0,5.0,22.0,8.0,0.0,12.041594578792296,11.0,11.5,29.0,28.0,30.01666203960727
591,591,8.0,61.032778078668514,6.0,13.0,16.0,18.0,7.0,34.0,21.0,17.0,11.0,13.0,5.0,22.0,8.0,0.0,11.045361017187261,11.0,11.0,29.0,28.0,30.066592756745816
592,592,9.0,61.032778078668514,5.0,12.0,17.029386365926403,18.0,7.0,33.0,21.0,16.5,11.0,13.0,5.0,21.0,7.0,0.0,11.045361017187261,10.04987562112089,10.5,28.0,27.0,29.017236257093817
593,593,8.0,61.032778078668514,6.0,12.0,17.029386365926403,19.0,7.0,33.0,21.0,17.0,11.0,13.0,5.0,21.0,7.0,0.0,11.045361017187261,11.0,11.0,27.0,27.0,29.017236257093817
594,594,8.0,61.032778078668514,6.0,12.0,16.0,18.0,7.0,33.0,21.0,17.0,11.0,13.0,5.0,21.0,8.0,0.0,10.04987562112089,10.0,10.5,27.0,27.0,30.01666203960727
595,595,8.0,62.0,6.0,12.0,17.0,18.0,6.0,32.0,20.0,16.0,11.0,11.0,5.0,21.0,7.0,0.0,9.055385138137417,9.0,9.0,28.0,28.0,30.01666203960727
596,596,7.0,62.00806399170998,6.0,13.0,16.0,18.0,7.0,33.0,20.0,16.5,11.0,12.0,4.5,21.5,7.5,0.5,4.123105625617661,4.0,4.5,28.0,27.0,30.01666203960727
597,597,7.0,61.00819617067857,6.0,12.0,16.0,18.0,7.0710678118654755,32.01562118716424,20.024984394500787,16.5,11.0,12.0,4.5,20.5,7.5,0.5,4.123105625617661,4.0,4.0,27.0,27.0,30.0
598,598,7.0,61.00819617067857,6.0,12.0,17.0,17.0,7.0,32.0,20.0,16.5,12.0,13.0,5.5,19.5,5.5,0.5,6.082762530298219,6.0,6.0,27.0,28.0,30.01666203960727
599,599,4.0,61.0,7.0,13.0,16.0,17.0,7.0,31.0,18.0,16.0,13.0,13.0,6.0,18.0,5.0,0.0,8.06225774829855,8.06225774829855,8.5,27.0,28.0,30.0
600,600,4.0,60.0,6.0,13.0,16.0,17.0,8.0,31.0,18.0,16.0,14.0,14.0,6.0,17.0,3.0,1.0,9.0,8.06225774829855,8.5,27.0,28.0,30.01666203960727
601,601,1.0,58.034472514187634,7.0,12.0,16.0,17.0,10.04987562112089,29.0,17.0,17.0,15.0,13.0,4.0,15.0,3.0,2.0,9.055385138137417,9.0,9.0,27.0,28.0,29.017236257093817
602,602,0.0,57.0087712549569,8.0,10.0,16.0,16.0,11.045361017187261,29.017236257093817,19.026297590440446,19.0,16.0,15.0,4.5,13.5,1.5,2.5,11.045361017187261,9.055385138137417,9.5,27.0,28.0,29.017236257093817
603,603,1.0,54.00925846556311,8.0,11.0,14.0,15.0,12.0,30.0,19.0,19.5,17.0,16.0,4.5,13.5,1.5,2.5,10.0,9.055385138137417,9.5,28.0,29.0,30.0
604,604,1.0,53.009433122794285,8.0,11.0,14.0,15.0,12.0,30.0,19.0,19.5,17.0,16.0,4.5,13.5,1.5,2.5,11.045361017187261,9.0,9.5,28.0,29.0,30.01666203960727
605,605,1.4142135623730951,52.0,8.0,11.045361017187261,14.0,15.0,12.0,32.0,21.02379604162864,20.5,17.0,17.0,5.0,15.0,2.0,2.0,10.04987562112089,10.04987562112089,10.0,27.0,28.0,30.01666203960727
606,606,1.0,52.0,8.0,12.0,14.035668847618199,16.0,13.0,34.0,22.0,21.5,18.0,18.0,5.0,16.0,3.0,1.0,10.04987562112089,10.04987562112089,10.5,28.0,28.0,29.068883707497267
607,607,2.0,54.00925846556311,8.06225774829855,13.0,14.0,15.0,11.045361017187261,34.0,21.0,20.0,18.0,17.0,6.5,16.5,2.5,0.5,10.0,9.055385138137417,9.5,27.0,27.0,29.017236257093817
608,608,4.0,55.0,8.0,15.0,16.0,16.0,10.0,37.0,22.0,20.0,18.0,18.0,8.0,19.0,3.0,1.0,11.045361017187261,10.04987562112089,10.5,27.0,28.0,29.017236257093817
609,609,5.0,57.0087712549569,8.0,14.0,15.0,17.0,9.0,36.0,22.0,19.5,17.0,16.0,7.5,19.5,4.5,0.5,10.0,10.04987562112089,10.5,27.0,28.0,29.0
610,610,4.0,57.0087712549569,8.0,15.0,17.0,17.0,10.0,37.0,22.0,20.0,18.0,17.0,7.5,19.5,3.5,0.5,10.04987562112089,10.04987562112089,10.5,28.0,28.0,28.0
611,611,7.0,56.0,6.0,14.0,16.0,16.0312195418814,9.055385138137417,36.013886210738214,22.02271554554524,18.5,17.0,17.0,8.0,19.0,4.0,2.0,11.0,11.045361017187261,11.0,27.0,27.0,29.017236257093817
612,612,5.0,58.0,8.0,15.0,16.0,18.0,9.055385138137417,37.013511046643494,22.02271554554524,19.5,17.0,17.0,8.0,20.0,4.0,1.0,11.0,10.04987562112089,10.5,28.0,28.0,30.01666203960727
613,613,6.0,58.008620049092706,7.0,14.0,17.0,17.029386365926403,9.0,36.0,22.0,19.0,17.0,16.0,7.5,19.5,4.5,1.5,10.0,10.0,10.0,28.0,29.0,30.01666203960727
614,614,7.0,57.0087712549569,7.0,13.0,16.0,17.0,9.055385138137417,36.013886210738214,23.021728866442675,19.5,18.0,17.0,8.5,18.5,4.5,2.5,8.0,7.0,7.5,28.0,29.0,31.016124838541646
615,615,8.0,57.0350769263968,7.0,12.0,16.0,17.0,10.04987562112089,37.013511046643494,25.019992006393608,21.0,20.0,18.0,9.0,18.0,5.0,3.0,5.0990195135927845,5.0,5.0,31.0,32.0,35.014282800023196
616,616,8.06225774829855,59.00847396772772,7.0,13.038404810405298,16.0312195418814,17.0,10.0,38.0,25.019992006393608,21.0,20.0,19.0,9.5,18.5,4.5,3.5,5.0,5.0,5.5,32.0,35.0,37.0
617,617,9.055385138137417,58.034472514187634,7.0,13.0,15.0,16.0312195418814,10.0,39.01281840626232,26.019223662515376,21.5,22.0,20.0,11.0,18.0,4.0,4.0,8.0,8.0,8.0,31.0,34.0,39.01281840626232
618,618,9.0,57.0087712549569,7.0,13.038404810405298,15.033296378372908,16.0312195418814,10.0,39.01281840626232,26.0,21.5,21.0,20.0,10.5,18.5,4.5,4.5,9.0,9.055385138137417,9.0,32.0,35.0,38.0
619,619,9.0,57.0350769263968,7.0,13.038404810405298,14.035668847618199,15.033296378372908,10.0,39.01281840626232,26.0,21.5,21.0,19.0,10.0,19.0,5.0,4.0,9.0,9.0,9.0,32.0,36.0,38.01315561749642
620,620,8.06225774829855,58.008620049092706,7.0,13.0,16.0,17.0,9.0,37.013511046643494,24.020824298928627,20.0,20.0,19.0,10.5,17.5,4.5,4.5,11.0,9.055385138137417,9.5,32.0,35.0,39.01281840626232
621,621,8.06225774829855,57.0087712549569,7.0,12.0,16.0,17.0,9.0,36.013886210738214,24.020824298928627,20.0,19.0,18.0,9.5,17.5,4.5,3.5,10.0,10.0,10.5,33.0,36.0,39.0
622,622,7.0,56.00892785976178,6.0,12.0,15.0,16.0,10.0,35.0,23.0,19.5,18.0,17.0,7.5,17.5,4.5,2.5,11.0,11.0,11.0,32.0,35.0,38.0
623,623,6.0,57.0087712549569,7.0,12.0,15.0,16.0,9.055385138137417,34.0147027033899,22.02271554554524,19.0,18.0,17.0,8.5,16.5,3.5,2.5,11.045361017187261,10.04987562112089,10.5,33.0,35.0,39.01281840626232
624,624,4.0,57.0087712549569,7.0,12.041594578792296,15.0,16.0,10.0,33.015148038438355,21.0,19.0,18.0,17.0,7.5,15.5,2.5,1.5,12.0,10.0,10.5,32.0,35.0,38.01315561749642
625,625,3.1622776601683795,57.0087712549569,6.0,14.0,16.0,17.0,9.0,32.01562118716424,18.027756377319946,16.5,17.0,16.0,7.5,15.5,1.5,1.5,11.045361017187261,11.045361017187261,11.0,32.0,35.0,38.01315561749642
626,626,3.0,59.00847396772772,7.0,13.038404810405298,16.0,17.0,9.0,32.01562118716424,19.0,17.5,17.0,16.0,7.5,15.5,1.5,1.5,11.045361017187261,11.045361017187261,11.5,31.0,35.0,37.013511046643494
627,627,5.0,59.00847396772772,7.0710678118654755,13.0,16.0,17.0,9.0,34.0147027033899,21.02379604162864,18.5,19.0,18.0,9.5,15.5,1.5,3.5,11.0,11.045361017187261,11.0,28.0,33.0,36.05551275463989
628,628,9.0,57.0087712549569,7.0,12.0,15.0,16.0312195418814,9.0,37.0,25.0,20.5,20.0,19.0,10.5,17.5,4.5,3.5,11.045361017187261,10.04987562112089,10.0,32.0,35.0,38.01315561749642
629,629,10.0,57.0087712549569,6.0,13.0,16.0,17.029386365926403,10.04987562112089,39.01281840626232,26.019223662515376,21.0,22.0,21.0,11.5,17.5,3.5,5.5,9.0,9.055385138137417,9.0,25.0,29.0,36.05551275463989
630,630,11.0,57.0087712549569,7.0,13.0,16.0,17.0,10.0,41.0,28.0,22.5,23.0,22.0,12.5,18.5,4.5,6.5,7.0,6.0,6.5,24.0,28.0,30.066592756745816
631,631,12.0,56.00892785976178,6.0,12.0,15.0,17.029386365926403,11.0,41.0,29.0,23.0,24.0,23.0,12.5,17.5,4.5,6.5,6.0,6.082762530298219,5.5,25.0,28.0,30.0
632,632,12.0,56.00892785976178,6.0,12.0,15.0,17.029386365926403,11.0,41.0,29.0,23.0,24.0,23.0,12.5,17.5,4.5,6.5,6.0,6.082762530298219,5.5,25.0,28.0,30.0
633,633,11.045361017187261,57.0087712549569,6.0,13.0,15.0,16.0,11.0,41.012193308819754,28.0178514522438,22.5,23.0,22.0,11.5,18.5,4.5,6.5,6.082762530298219,6.0,6.0,26.0,29.0,30.066592756745816
634,634,9.0,56.00892785976178,6.0,14.0,16.0,16.0,10.0,39.0,25.0,20.5,21.0,20.0,10.5,18.5,3.5,5.5,9.0,8.0,8.0,27.0,30.0,35.014282800023196
635,635,8.0,56.00892785976178,7.0,14.035668847618199,15.0,16.0,9.055385138137417,38.0,24.020824298928627,20.0,19.0,18.0,9.5,19.5,4.5,3.5,10.0,9.0,9.5,32.0,35.0,37.0
636,636,8.0,56.0,7.0,14.0,15.0,16.0,9.0,38.0,24.0,20.0,19.0,19.0,10.0,19.0,4.0,4.0,10.0,9.0,9.5,32.0,35.0,36.0
637,637,8.0,57.0087712549569,6.0,12.0,15.0,16.0,8.0,34.0,22.0,18.0,16.0,15.0,7.5,18.5,5.5,1.5,11.045361017187261,10.04987562112089,10.5,33.0,34.0,37.0
638,638,7.0,56.00892785976178,6.0,11.0,15.0,16.0,7.0,31.0,20.0,16.5,14.0,13.0,6.5,17.5,5.5,1.5,12.041594578792296,11.045361017187261,11.5,34.0,35.0,36.0
639,639,6.0,56.0,6.0,11.0,15.0,16.0,8.0,31.0,20.0,17.0,14.0,14.0,6.0,17.0,4.0,1.0,12.041594578792296,11.045361017187261,11.5,35.0,35.0,36.0
640,640,5.0,55.00909015790027,6.0,11.045361017187261,15.0,16.0,8.06225774829855,30.0,19.026297590440446,16.5,14.0,13.0,5.5,16.5,3.5,0.5,12.041594578792296,12.041594578792296,12.0,34.0,35.0,38.0
641,641,4.0,55.00909015790027,6.0,12.0,15.0,15.0,8.0,30.0,18.0,16.0,14.0,13.0,5.5,16.5,3.5,0.5,13.038404810405298,12.041594578792296,12.0,35.0,35.0,38.0
642,642,6.0,56.00892785976178,5.0,11.0,15.0,16.0312195418814,9.0,31.0,20.0,17.0,14.0,13.0,4.5,17.5,5.5,0.5,12.041594578792296,12.041594578792296,12.0,34.0,35.0,38.0
643,643,6.0,56.00892785976178,5.0,12.0,15.0,16.0312195418814,9.0,32.0,20.0,17.0,14.0,13.0,4.5,18.5,6.5,0.5,12.041594578792296,12.041594578792296,12.0,34.0,35.0,38.01315561749642
644,644,7.0,57.0087712549569,6.0,12.0,15.0,16.0312195418814,8.0,33.0,21.0,17.5,14.0,13.0,5.5,19.5,6.5,0.5,13.038404810405298,12.041594578792296,12.0,34.0,36.0,38.0
645,645,7.0,57.0087712549569,6.0,12.041594578792296,15.0,16.0312195418814,9.0,34.0147027033899,22.0,18.5,15.0,14.0,5.5,19.5,6.5,0.5,13.038404810405298,12.165525060596439,12.5,36.0,37.0,38.0
646,646,7.0,58.034472514187634,7.0,13.0,15.033296378372908,16.0312195418814,8.0,35.0,22.0,18.5,17.0,15.0,8.0,19.0,5.0,2.0,13.038404810405298,12.165525060596439,12.0,32.0,35.0,37.013511046643494
647,647,7.0,58.034472514187634,7.0,13.0,15.033296378372908,16.0312195418814,8.0,35.0,22.0,18.5,17.0,15.0,8.0,19.0,5.0,2.0,13.038404810405298,12.165525060596439,12.0,32.0,35.0,37.013511046643494
648,648,8.0,58.077534382926416,6.0,13.038404810405298,14.035668847618199,15.0,9.0,36.013886210738214,23.0,19.0,18.0,15.0,7.5,19.5,6.5,2.5,12.0,11.045361017187261,11.0,35.0,37.0,39.01281840626232
649,649,8.06225774829855,58.077534382926416,6.0,13.0,14.0,16.0312195418814,10.0,37.013511046643494,24.020824298928627,20.0,19.0,16.0,7.5,19.5,5.5,2.5,12.041594578792296,12.041594578792296,12.0,34.0,37.0,39.01281840626232
650,650,8.0,57.0350769263968,6.0,13.0,15.0,16.0312195418814,10.0,37.0,24.0,20.0,19.0,17.0,8.0,19.0,5.0,3.0,12.0,11.045361017187261,11.0,32.0,36.0,38.01315561749642
651,651,8.0,57.07889277132134,6.0,13.038404810405298,15.033296378372908,16.0312195418814,9.0,36.013886210738214,23.0,19.0,19.0,16.0,8.5,18.5,5.5,3.5,11.0,11.045361017187261,11.0,33.0,36.0,36.0
652,652,8.0,57.07889277132134,6.0,12.0,15.033296378372908,16.0312195418814,10.04987562112089,36.013886210738214,24.020824298928627,20.0,19.0,16.0,7.5,18.5,5.5,2.5,12.041594578792296,10.04987562112089,11.0,33.0,36.0,38.0
653,653,8.06225774829855,57.07889277132134,6.0,13.0,16.0,17.029386365926403,9.0,36.013886210738214,23.021728866442675,19.0,18.0,15.0,7.5,19.5,6.5,2.5,11.045361017187261,11.045361017187261,11.0,32.0,35.0,35.0
