,frame_seq,m1,m3,m4,m5,m6,m7,m8,m9,m10,m11,m12,m13,m14,m15,m16,m17,e1,e2,e3,b1,b2,b3,label_measures
0,218,4.0,30.14962686336267,3.1622776601683795,6.082762530298219,8.06225774829855,9.055385138137416,6.082762530298219,19.235384061671343,13.152946437965904,11.0,13.0,10.0,5.5,7.5,1.5,2.5,4.0,3.1622776601683795,3.5,9.0,12.0,10.0,{}
1,219,3.0,30.066592756745816,3.1622776601683795,5.0990195135927845,8.06225774829855,9.0,6.082762530298219,17.26267650163207,12.16552506059644,10.5,12.0,10.0,5.0,6.0,1.0,2.0,4.0,3.0,3.5,8.0,10.0,11.0,{}
2,220,3.0,28.0178514522438,3.0,5.0990195135927845,8.06225774829855,9.0,6.324555320336759,17.26267650163207,12.16552506059644,10.5,11.0,10.0,4.5,6.5,0.5,2.5,3.0,3.0,3.0,8.0,10.0,10.0,{}
3,221,1.0,28.0178514522438,3.0,6.082762530298219,8.06225774829855,9.0,6.324555320336759,16.278820596099706,10.198039027185567,9.5,10.0,9.0,3.5,6.5,0.5,1.5,3.0,3.0,3.0,8.0,9.0,9.055385138137416,{}
4,222,2.0,27.018512172212592,3.0,5.0,7.0,8.0,5.385164807134504,15.132745950421556,10.198039027185567,9.0,10.0,9.0,4.5,5.5,0.5,1.5,3.0,3.0,3.5,8.0,9.0,8.06225774829855,{}
5,223,2.0,26.019223662515376,3.0,4.123105625617661,8.0,8.0,5.385164807134504,14.317821063276352,10.198039027185567,9.0,10.0,9.0,4.5,4.5,0.5,1.5,3.0,3.0,3.0,7.0,8.0,8.0,{}
6,224,2.0,24.020824298928627,2.0,4.0,8.0,7.0,6.324555320336759,14.142135623730953,10.198039027185567,9.0,10.0,9.0,3.5,4.5,0.5,1.5,3.1622776601683795,3.0,3.0,7.0,8.0,9.0,{}
7,225,1.0,24.020824298928627,3.0,5.0990195135927845,6.082762530298219,7.071067811865476,5.0990195135927845,14.142135623730953,9.055385138137416,8.5,10.0,9.0,4.5,4.5,0.5,2.5,3.0,3.0,3.0,7.0,8.0,8.0,{}
8,226,1.0,23.021728866442675,3.0,5.0990195135927845,6.082762530298219,7.0,5.385164807134504,14.317821063276352,9.219544457292889,8.5,10.0,9.0,4.5,4.5,0.5,2.5,2.23606797749979,2.0,2.0,7.0,7.0,7.0,{}
9,227,1.0,22.02271554554524,3.0,4.123105625617661,6.082762530298219,7.0,4.47213595499958,12.36931687685298,8.246211251235321,7.5,9.0,8.0,4.5,3.5,0.5,2.5,3.0,2.0,2.5,7.0,8.0,7.071067811865476,{}
10,228,0.0,23.0,3.1622776601683795,5.0,7.071067811865476,6.0,4.123105625617661,12.16552506059644,7.280109889280518,7.0,8.0,8.0,4.0,4.0,1.0,2.0,3.0,3.0,3.0,6.0,7.0,7.0,{}
11,229,1.0,20.024984394500787,3.0,4.0,6.0,6.0,3.605551275463989,11.180339887498947,7.280109889280518,6.5,8.0,7.0,4.5,3.5,0.5,1.5,3.0,3.0,3.0,7.0,7.0,7.0,{}
12,230,1.0,18.110770276274835,3.1622776601683795,4.0,5.0,6.0,3.1622776601683795,11.180339887498947,7.280109889280518,6.5,9.0,7.0,5.0,3.0,1.0,2.0,2.0,2.0,2.5,6.0,7.0,6.082762530298219,{}
13,231,1.0,20.024984394500787,3.0,4.123105625617661,5.0990195135927845,6.0,4.47213595499958,12.36931687685298,8.246211251235321,7.5,8.0,7.0,3.5,4.5,0.5,1.5,2.0,2.0,2.0,5.0,6.0,6.0,{}
14,232,1.0,14.142135623730953,2.0,4.0,5.0,4.123105625617661,6.082762530298219,12.16552506059644,8.246211251235321,8.0,12.0,10.0,5.0,1.0,3.0,3.0,3.0,2.0,2.0,5.0,6.0,6.0,{}
15,311,11.04536101718726,64.77653896280658,3.1622776601683795,6.324555320336759,15.132745950421556,17.11724276862369,13.152946437965904,33.54101966249684,27.29468812791236,21.5,14.0,24.0,6.0,14.0,7.0,2.0,6.082762530298219,6.324555320336759,5.5,24.0,7.0,17.46424919657298,{}
16,325,5.0990195135927845,46.389654018972806,6.082762530298219,8.06225774829855,10.198039027185567,11.180339887498947,13.152946437965904,32.01562118716424,24.08318915758459,21.5,24.0,18.0,8.0,11.0,4.0,3.0,9.055385138137416,9.055385138137416,10.0,14.0,23.0,25.079872407968907,{}
17,326,2.23606797749979,46.52956049652737,6.082762530298219,8.0,10.198039027185567,11.40175425099138,14.0356688476182,30.01666203960727,22.02271554554524,21.0,25.0,18.0,7.5,8.5,1.5,2.5,9.0,9.055385138137416,9.0,12.0,21.0,29.154759474226505,{}
18,366,6.0,42.190046219457976,4.123105625617661,8.06225774829855,11.04536101718726,12.041594578792296,10.04987562112089,28.16025568065745,20.09975124224178,17.0,13.0,9.0,1.0,17.0,8.0,2.0,1.0,2.8284271247461903,1.5,12.0,20.0,18.110770276274835,{}
19,367,4.0,38.3275357934736,4.123105625617661,8.06225774829855,10.04987562112089,11.04536101718726,11.180339887498947,27.29468812791236,19.235384061671343,17.0,14.0,9.0,0.5,15.5,6.5,2.5,2.0,2.8284271247461903,1.5,12.0,19.0,18.24828759089466,{}
20,368,5.0990195135927845,37.21558813185679,3.1622776601683795,8.06225774829855,10.04987562112089,11.0,11.180339887498947,27.459060435491963,19.4164878389476,16.5,13.0,9.0,0.0,16.0,7.0,2.0,1.4142135623730951,2.23606797749979,2.0,11.0,18.0,19.1049731745428,{}
21,369,4.0,35.22782990761707,4.123105625617661,8.06225774829855,9.055385138137416,10.04987562112089,10.198039027185567,26.30589287593181,18.24828759089466,16.0,13.0,9.0,1.0,15.0,7.0,2.0,1.4142135623730951,2.23606797749979,2.0,11.0,18.0,17.11724276862369,{}
22,369,5.0990195135927845,29.42787793912432,2.0,5.0990195135927845,7.071067811865476,7.071067811865476,8.0,20.09975124224178,15.033296378372908,12.5,6.0,11.0,0.5,11.5,4.5,1.5,2.23606797749979,2.23606797749979,2.0,16.0,8.0,15.132745950421556,{}
23,370,3.0,34.23448553724738,4.0,8.06225774829855,9.055385138137416,9.0,10.198039027185567,25.179356624028344,17.11724276862369,15.5,13.0,9.0,1.0,14.0,5.0,2.0,2.23606797749979,2.23606797749979,2.0,10.0,17.0,16.1245154965971,{}
24,370,6.0,29.61418578992169,2.23606797749979,5.0990195135927845,7.280109889280518,8.246211251235321,7.0,20.09975124224178,15.033296378372908,12.0,6.0,12.0,2.0,11.0,4.0,1.0,2.23606797749979,2.0,1.5,15.0,8.0,14.317821063276352,{}
25,371,4.0,32.2490309931942,3.1622776601683795,7.071067811865476,9.055385138137416,9.055385138137416,10.198039027185567,24.33105012119288,17.26267650163207,15.0,12.0,8.0,0.0,14.0,6.0,2.0,1.4142135623730951,2.23606797749979,2.0,10.0,17.0,16.1245154965971,{}
26,371,4.123105625617661,27.65863337187866,2.0,5.0,7.071067811865476,7.280109889280518,7.071067811865476,18.110770276274835,13.152946437965904,11.0,5.0,11.0,1.0,10.0,4.0,1.0,1.4142135623730951,2.0,1.5,15.0,8.0,15.132745950421556,{}
27,372,3.1622776601683795,31.25699921617557,3.0,8.0,8.06225774829855,9.055385138137416,10.198039027185567,24.186773244895647,16.278820596099706,14.5,12.0,8.0,0.0,14.0,6.0,2.0,2.0,2.23606797749979,1.0,9.0,16.0,16.1245154965971,{}
28,372,5.0,27.459060435491963,2.23606797749979,4.123105625617661,7.071067811865476,7.071067811865476,6.0,17.11724276862369,13.038404810405298,10.5,5.0,10.0,1.5,9.5,3.5,0.5,2.23606797749979,2.23606797749979,2.0,15.0,8.0,14.142135623730953,{}
29,373,5.0,27.459060435491963,2.23606797749979,5.0990195135927845,7.280109889280518,7.280109889280518,7.0,19.1049731745428,14.0356688476182,11.5,5.0,10.0,0.5,11.5,5.5,1.5,2.8284271247461903,3.1622776601683795,2.5,14.0,7.0,12.16552506059644,{}
30,373,4.0,31.25699921617557,3.1622776601683795,6.082762530298219,8.06225774829855,9.0,9.219544457292889,22.36067977499789,16.278820596099706,14.0,11.0,7.0,0.0,13.0,6.0,2.0,1.4142135623730951,2.23606797749979,2.0,9.0,15.0,17.029386365926403,{}
31,374,2.0,30.14962686336267,4.0,7.071067811865476,8.0,8.06225774829855,9.219544457292889,22.20360331117452,15.132745950421556,14.0,11.0,8.0,0.5,12.5,5.5,2.5,1.4142135623730951,2.8284271247461903,2.0,9.0,15.0,15.132745950421556,{}
32,374,6.0,27.65863337187866,3.0,6.082762530298219,9.219544457292889,10.198039027185567,5.0,20.024984394500787,14.0,11.0,5.0,11.0,3.0,12.0,4.0,0.0,2.23606797749979,2.0,2.0,14.0,7.0,13.152946437965904,{}
33,375,3.0,28.16025568065745,3.0,6.082762530298219,8.06225774829855,8.06225774829855,9.219544457292889,21.213203435596427,15.132745950421556,13.5,10.0,7.0,0.5,12.5,5.5,2.5,2.23606797749979,1.4142135623730951,1.0,8.0,15.0,14.0356688476182,{}
34,376,3.0,30.26549190084312,3.0,6.082762530298219,8.06225774829855,8.0,8.246211251235321,20.223748416156685,14.142135623730953,12.5,10.0,6.0,0.0,12.0,6.0,2.0,2.23606797749979,2.23606797749979,2.0,9.0,15.0,14.0356688476182,{}
35,377,2.23606797749979,27.29468812791236,3.0,6.082762530298219,7.071067811865476,8.0,8.246211251235321,19.4164878389476,13.341664064126334,12.0,10.0,6.0,0.0,11.0,5.0,2.0,2.0,1.4142135623730951,1.0,8.0,14.0,14.142135623730953,{}
36,378,3.0,28.284271247461906,2.23606797749979,5.0990195135927845,7.071067811865476,7.0,9.219544457292889,19.4164878389476,14.317821063276352,12.5,10.0,6.0,1.0,11.0,5.0,2.0,1.0,1.4142135623730951,1.5,8.0,14.0,13.038404810405298,{}
37,379,3.0,26.1725046566048,2.0,6.082762530298219,6.082762530298219,8.06225774829855,8.246211251235321,19.235384061671343,13.152946437965904,11.5,9.0,6.0,0.5,11.5,5.5,1.5,1.4142135623730951,1.0,1.0,7.0,13.0,13.152946437965904,{}
38,380,4.0,27.16615541441225,2.23606797749979,5.0990195135927845,7.0,8.06225774829855,7.071067811865476,18.24828759089466,13.152946437965904,11.0,8.0,5.0,0.5,11.5,5.5,2.5,1.4142135623730951,1.4142135623730951,1.0,8.0,13.0,13.038404810405298,{}
39,381,2.0,25.179356624028344,3.0,6.082762530298219,6.082762530298219,7.0,7.280109889280518,18.24828759089466,12.16552506059644,11.0,9.0,6.0,0.5,10.5,4.5,1.5,2.0,1.4142135623730951,1.5,8.0,13.0,13.038404810405298,{}
40,382,2.0,24.33105012119288,3.1622776601683795,5.0990195135927845,6.082762530298219,7.071067811865476,7.071067811865476,17.26267650163207,12.16552506059644,11.0,9.0,5.0,0.0,10.0,4.0,2.0,2.23606797749979,1.4142135623730951,1.0,7.0,12.0,12.041594578792296,{}
41,383,2.0,24.08318915758459,2.0,5.0990195135927845,6.0,7.0,7.280109889280518,16.278820596099706,11.180339887498947,10.0,8.0,6.0,0.0,9.0,4.0,2.0,2.0,1.4142135623730951,1.0,7.0,11.0,12.041594578792296,{}
42,384,2.0,24.186773244895647,3.0,5.0990195135927845,6.082762530298219,7.071067811865476,7.071067811865476,17.11724276862369,12.041594578792296,11.0,9.0,6.0,0.5,9.5,3.5,1.5,1.0,1.4142135623730951,1.0,7.0,11.0,11.0,{}
43,385,2.23606797749979,24.08318915758459,3.0,5.0,7.071067811865476,7.0,6.082762530298219,16.1245154965971,11.180339887498947,10.0,7.0,5.0,0.0,10.0,4.0,2.0,1.0,1.4142135623730951,1.0,7.0,12.0,12.041594578792296,{}
44,389,2.0,18.24828759089466,2.23606797749979,5.0990195135927845,5.0990195135927845,6.082762530298219,6.082762530298219,15.297058540778355,10.198039027185567,9.0,9.0,6.0,1.5,7.5,2.5,0.5,1.0,1.4142135623730951,1.0,6.0,10.0,10.0,{}
45,396,2.23606797749979,50.24937810560445,4.0,8.06225774829855,15.033296378372908,15.033296378372908,16.278820596099706,29.61418578992169,21.587033144922906,20.5,14.0,19.0,0.5,12.5,3.5,3.5,4.123105625617661,4.0,4.0,14.0,9.0,17.11724276862369,{}
46,397,1.0,50.15974481593781,4.123105625617661,8.06225774829855,14.0356688476182,16.0312195418814,16.1245154965971,28.442925306655784,20.39607805437113,20.0,15.0,19.0,1.0,11.0,2.0,3.0,3.1622776601683795,4.0,4.0,12.0,7.0,14.317821063276352,{}
47,398,1.0,47.16990566028302,4.123105625617661,7.071067811865476,13.0,13.038404810405298,15.132745950421556,26.476404589747453,19.4164878389476,19.0,13.0,17.0,0.0,11.0,3.0,3.0,3.0,3.1622776601683795,3.0,13.0,8.0,14.142135623730953,{}
48,399,1.4142135623730951,41.19465984809196,3.1622776601683795,7.0,12.041594578792296,12.041594578792296,14.142135623730953,25.317977802344327,18.43908891458577,17.5,12.0,16.0,0.0,11.0,3.0,3.0,3.1622776601683795,4.0,3.5,12.0,7.0,14.0356688476182,{}
49,400,1.4142135623730951,43.10452412450461,3.0,6.082762530298219,12.041594578792296,13.0,13.152946437965904,23.345235059857504,17.26267650163207,16.5,12.0,15.0,0.5,9.5,2.5,2.5,2.23606797749979,3.0,3.0,11.0,6.0,13.038404810405298,{}
50,401,1.0,40.11234224026316,3.1622776601683795,6.082762530298219,12.041594578792296,12.041594578792296,12.16552506059644,22.36067977499789,16.278820596099706,15.5,11.0,14.0,0.5,9.5,2.5,2.5,2.0,3.0,3.0,10.0,5.0,13.152946437965904,{}
51,402,1.4142135623730951,38.2099463490856,3.0,6.0,11.04536101718726,11.04536101718726,12.16552506059644,22.20360331117452,16.278820596099706,15.5,11.0,15.0,1.0,9.0,1.0,2.0,2.23606797749979,2.0,2.0,9.0,5.0,12.16552506059644,{}
52,402,1.0,24.0,2.0,2.0,7.0,7.0,6.0,11.0,9.0,8.5,9.0,9.0,3.0,2.0,1.0,1.0,3.0,4.0,4.0,8.0,8.0,10.04987562112089,{}
53,403,1.4142135623730951,36.22154055254967,3.0,5.0990195135927845,11.04536101718726,12.041594578792296,12.16552506059644,21.37755832643195,16.278820596099706,15.5,11.0,15.0,1.0,8.0,1.0,2.0,2.0,2.23606797749979,2.0,9.0,4.0,11.180339887498947,{}
54,403,0.0,22.0,3.0,3.0,6.0,7.0,5.0,11.0,8.0,8.0,9.0,9.0,4.0,2.0,1.0,2.0,2.0,3.0,3.0,8.0,7.0,10.04987562112089,{}
55,404,1.0,35.12833614050059,3.0,5.0,10.0,10.04987562112089,11.180339887498947,19.235384061671343,14.317821063276352,14.0,10.0,13.0,0.5,7.5,1.5,1.5,3.1622776601683795,3.0,2.5,9.0,6.0,11.04536101718726,{}
56,404,1.0,21.0,2.0,2.0,6.0,6.0,6.082762530298219,11.04536101718726,9.055385138137416,8.5,9.0,9.0,3.0,2.0,1.0,1.0,3.0,3.1622776601683795,3.0,8.0,8.0,9.0,{}
57,404,2.23606797749979,22.02271554554524,3.0,3.0,6.0,6.0,7.280109889280518,15.297058540778355,12.36931687685298,11.0,12.0,11.0,4.5,3.5,0.5,1.5,3.0,2.0,2.0,6.0,9.0,7.0,{}
58,405,1.4142135623730951,33.13608305156178,3.0,5.0,10.0,10.0,10.198039027185567,19.235384061671343,14.317821063276352,13.5,10.0,13.0,1.5,7.5,1.5,1.5,2.0,3.0,2.5,9.0,4.0,11.04536101718726,{}
59,405,1.0,20.0,2.0,2.0,6.0,6.0,5.0,10.0,8.0,7.5,8.0,8.0,3.0,2.0,1.0,1.0,3.0,3.1622776601683795,3.0,8.0,7.0,9.055385138137416,{}
60,406,1.0,32.14031735997639,2.23606797749979,4.123105625617661,9.055385138137416,10.0,10.198039027185567,17.46424919657298,13.341664064126334,12.5,8.0,11.0,0.5,7.5,2.5,2.5,2.0,2.0,2.0,9.0,5.0,9.055385138137416,{}
61,406,1.0,19.026297590440446,2.0,2.23606797749979,6.0,7.0,5.0,10.04987562112089,8.0,7.5,9.0,8.0,3.5,1.5,0.5,1.5,2.0,3.0,2.5,7.0,7.0,8.0,{}
62,407,1.0,31.064449134018133,4.123105625617661,5.0,9.0,9.0,9.055385138137416,17.11724276862369,12.16552506059644,12.5,9.0,11.0,1.0,7.0,2.0,2.0,2.0,1.4142135623730951,1.5,8.0,5.0,9.055385138137416,{}
63,407,1.0,17.0,2.0,2.0,5.0,5.0,4.0,9.0,7.0,6.5,7.0,7.0,3.0,2.0,1.0,1.0,2.0,2.0,2.0,6.0,6.0,8.0,{}
64,408,1.0,30.14962686336267,2.23606797749979,4.0,9.055385138137416,9.055385138137416,10.04987562112089,17.11724276862369,13.152946437965904,12.5,9.0,12.0,0.5,6.5,1.5,1.5,1.0,2.23606797749979,1.5,7.0,4.0,10.04987562112089,{}
65,408,1.0,18.0,2.0,2.0,6.0,6.0,4.0,9.0,7.0,6.5,7.0,7.0,3.0,2.0,1.0,1.0,2.0,2.23606797749979,2.0,5.0,6.0,8.06225774829855,{}
66,409,1.4142135623730951,29.154759474226505,2.0,4.0,8.06225774829855,9.055385138137416,9.219544457292889,16.278820596099706,12.36931687685298,11.5,8.0,11.0,0.5,6.5,1.5,1.5,1.0,2.0,2.0,7.0,4.0,10.04987562112089,{}
67,410,1.0,28.16025568065745,3.0,4.0,8.0,8.0,8.246211251235321,15.297058540778355,11.40175425099138,11.0,7.0,10.0,0.5,6.5,2.5,1.5,1.0,2.0,1.5,8.0,5.0,8.0,{}
68,411,0.0,27.073972741361768,2.0,4.123105625617661,8.06225774829855,8.0,8.246211251235321,14.317821063276352,10.198039027185567,10.0,7.0,9.0,0.0,6.0,2.0,2.0,2.23606797749979,2.0,2.0,7.0,4.0,7.071067811865476,{}
69,412,0.0,26.1725046566048,2.23606797749979,4.123105625617661,7.071067811865476,8.0,8.06225774829855,14.317821063276352,10.198039027185567,10.0,7.0,10.0,0.5,5.5,1.5,1.5,2.23606797749979,2.0,2.0,7.0,4.0,7.0,{}
70,413,0.0,26.1725046566048,2.23606797749979,4.0,7.071067811865476,7.071067811865476,8.06225774829855,14.142135623730953,10.198039027185567,10.0,7.0,10.0,0.5,5.5,1.5,1.5,2.0,2.0,2.0,7.0,4.0,8.06225774829855,{}
71,414,1.4142135623730951,24.08318915758459,2.0,3.0,7.071067811865476,8.0,8.246211251235321,14.317821063276352,11.40175425099138,10.5,8.0,10.0,1.0,5.0,1.0,1.0,1.0,1.0,1.5,6.0,4.0,8.0,{}
72,415,1.0,24.08318915758459,2.0,3.0,7.071067811865476,6.0,8.06225774829855,13.152946437965904,10.198039027185567,10.0,7.0,9.0,0.0,5.0,1.0,2.0,2.0,2.0,1.5,6.0,3.0,7.071067811865476,{}
73,416,0.0,23.194827009486403,2.0,3.1622776601683795,7.071067811865476,7.0,7.071067811865476,12.16552506059644,9.055385138137416,9.0,6.0,9.0,0.5,4.5,1.5,1.5,2.0,2.0,2.0,6.0,4.0,8.06225774829855,{}
74,640,9.0,85.00588214941364,6.0,12.041594578792296,22.02271554554524,23.0,21.02379604162864,48.04164859785725,36.013886210738214,31.5,25.0,24.0,3.5,23.5,10.5,0.5,10.0,10.0,9.5,27.0,30.0,32.01562118716424,{}
75,641,6.082762530298219,87.02298546935747,4.0,11.04536101718726,23.021728866442675,24.0,21.095023109728988,42.190046219457976,31.14482300479488,28.0,20.0,18.0,2.0,23.0,11.0,4.0,10.0,11.04536101718726,10.5,27.0,30.0,36.05551275463989,{}
76,642,3.0,88.0056816347672,6.0,12.0,24.0,24.0,20.024984394500787,41.01219330881976,29.017236257093817,27.5,17.0,18.0,2.5,23.5,9.5,6.5,8.06225774829855,9.055385138137416,8.5,27.0,31.0,35.05709628591621,{}
77,643,3.0,86.09297300012354,6.0,12.0,25.079872407968907,25.079872407968907,19.026297590440446,40.01249804748511,28.0178514522438,26.5,16.0,20.0,1.0,22.0,7.0,6.0,3.0,4.0,3.5,25.0,29.0,37.12142238654117,{}
78,644,6.082762530298219,82.21921916437786,5.0,11.0,24.08318915758459,25.179356624028344,20.024984394500787,42.0,31.0,28.0,16.0,22.0,1.0,23.0,9.0,5.0,4.0,5.0990195135927845,5.0,29.0,34.0,36.22154055254967,{}
79,645,5.0,83.21658488546619,6.0,13.0,24.08318915758459,25.179356624028344,21.0,45.0,32.0,29.5,19.0,25.0,1.0,23.0,7.0,4.0,5.0,5.0,5.5,27.0,34.0,37.21558813185679,{}
80,646,2.0,83.21658488546619,7.0,13.0,24.08318915758459,24.186773244895647,22.02271554554524,44.01136216933077,31.016124838541646,30.0,20.0,26.0,1.0,21.0,6.0,5.0,7.071067811865476,8.06225774829855,8.0,26.0,34.0,38.3275357934736,{}
81,647,1.0,83.21658488546619,5.0,12.0,22.09072203437452,23.08679276123039,24.08318915758459,42.04759208325728,30.066592756745816,29.5,20.0,26.0,1.0,19.0,5.0,6.0,8.0,9.055385138137416,9.5,25.0,33.0,39.20459156782532,{}
82,648,1.0,80.22468448052632,5.0,11.0,23.08679276123039,24.08318915758459,24.08318915758459,41.04875150354759,30.066592756745816,29.5,21.0,27.0,0.0,17.0,3.0,4.0,9.0,9.055385138137416,9.5,25.0,33.0,38.2099463490856,{}
83,649,1.0,78.10249675906654,6.0,11.0,23.08679276123039,24.08318915758459,24.020824298928627,42.01190307520001,31.016124838541646,30.5,23.0,27.0,1.0,17.0,3.0,4.0,9.0,10.198039027185567,10.0,25.0,34.0,36.22154055254967,{}
84,650,1.0,83.15046602394962,4.123105625617661,11.0,23.08679276123039,24.08318915758459,26.30589287593181,42.1070065428546,31.14482300479488,30.5,22.0,27.0,1.5,17.5,4.5,5.5,10.04987562112089,10.04987562112089,10.5,25.0,33.0,38.2099463490856,{}
85,651,1.0,84.1486779456457,6.0,10.0,25.079872407968907,25.079872407968907,24.515301344262525,41.30375285612676,31.400636936215164,30.5,21.0,26.0,0.5,17.5,4.5,5.5,9.055385138137416,10.04987562112089,10.5,26.0,32.0,36.12478373637688,{}
86,652,0.0,85.09406559801923,7.0,11.0,25.0,25.019992006393608,23.345235059857504,41.19465984809196,30.26549190084312,30.0,20.0,24.0,1.0,19.0,6.0,6.0,10.0,11.04536101718726,10.5,28.0,32.0,36.12478373637688,{}
87,653,2.23606797749979,86.14522621712709,6.082762530298219,10.04987562112089,24.020824298928627,25.019992006393608,24.33105012119288,42.2965719651132,32.2490309931942,31.0,20.0,25.0,1.5,19.5,7.5,5.5,10.04987562112089,11.04536101718726,11.0,27.0,31.0,34.132096331752024,{}
88,654,6.0,88.20430828479978,5.0,11.0,25.079872407968907,26.019223662515376,22.56102834535696,44.28317965096906,33.37663853655727,30.0,17.0,23.0,2.0,24.0,11.0,6.0,10.04987562112089,10.04987562112089,10.5,29.0,31.0,33.06055050963308,{}
89,655,12.041594578792296,88.14193099768123,3.0,11.04536101718726,26.019223662515376,27.018512172212592,21.587033144922906,47.51841748206689,36.49657518178932,30.0,18.0,23.0,0.5,26.5,13.5,2.5,10.04987562112089,11.04536101718726,11.0,29.0,30.0,33.06055050963308,{}
90,656,12.041594578792296,92.19544457292888,4.0,11.0,26.019223662515376,28.0178514522438,21.840329667841555,48.507731342539614,37.65634076752546,31.0,18.0,24.0,0.0,27.0,14.0,2.0,10.04987562112089,11.04536101718726,11.0,30.0,30.0,33.015148038438355,{}
91,657,12.041594578792296,88.2779700718135,3.0,10.04987562112089,25.079872407968907,27.073972741361768,21.587033144922906,46.52956049652737,36.49657518178932,30.0,16.0,23.0,1.5,26.5,13.5,3.5,9.055385138137416,11.04536101718726,11.0,30.0,29.0,33.015148038438355,{}
92,658,11.04536101718726,88.56635930193812,4.123105625617661,10.04987562112089,25.179356624028344,25.079872407968907,21.37755832643195,46.52956049652737,36.49657518178932,30.5,14.0,24.0,2.0,27.0,14.0,6.0,4.123105625617661,5.0,5.0,31.0,29.0,32.01562118716424,{}
93,659,8.06225774829855,87.46427842267951,4.123105625617661,10.04987562112089,25.079872407968907,27.073972741361768,22.36067977499789,44.553338819890925,34.52535300326414,30.0,15.0,24.0,2.5,24.5,12.5,5.5,2.0,3.1622776601683795,3.5,34.0,30.0,31.016124838541646,{}
94,660,3.1622776601683795,84.8528137423857,4.0,7.280109889280518,23.194827009486403,23.345235059857504,24.35159132377184,38.60051813123757,31.32091952673165,28.5,14.0,26.0,3.0,17.0,7.0,7.0,3.1622776601683795,3.1622776601683795,3.0,36.0,28.0,33.015148038438355,{}
95,661,0.0,80.89499366462674,5.385164807134504,6.708203932499369,21.213203435596427,22.20360331117452,23.769728648009423,35.73513677041127,29.120439557122072,28.0,15.0,27.0,2.0,13.0,3.0,7.0,3.1622776601683795,4.123105625617661,3.5,37.0,27.0,34.0147027033899,{}
96,662,2.23606797749979,84.34453153583817,6.324555320336759,9.219544457292889,23.345235059857504,23.345235059857504,25.0,38.897300677553446,29.73213749463701,29.0,16.0,31.0,0.5,13.5,1.5,6.5,3.605551275463989,4.47213595499958,4.0,40.0,27.0,34.058772731852805,{}
97,663,1.4142135623730951,81.39410298049853,6.324555320336759,9.219544457292889,21.37755832643195,21.37755832643195,24.73863375370596,39.56008088970496,30.364452901377952,29.5,15.0,30.0,1.5,15.5,3.5,7.5,4.47213595499958,3.605551275463989,3.5,40.0,26.0,35.12833614050059,{}
98,664,2.23606797749979,80.23091673413684,6.324555320336759,9.486832980505138,19.4164878389476,20.39607805437113,24.73863375370596,38.897300677553446,29.410882339705484,29.0,15.0,29.0,2.0,15.0,3.0,9.0,4.47213595499958,4.123105625617661,4.0,42.0,28.0,35.12833614050059,{}
99,665,2.23606797749979,79.07591289387686,6.082762530298219,9.219544457292889,21.213203435596427,21.37755832643195,23.08679276123039,37.94733192202055,28.792360097775937,27.5,14.0,27.0,1.5,15.5,3.5,7.5,4.47213595499958,5.0990195135927845,4.5,41.0,26.0,35.12833614050059,{}
100,666,2.0,78.91767862779544,3.605551275463989,7.615773105863909,20.223748416156685,22.36067977499789,26.68332812825267,39.56008088970496,32.01562118716424,30.0,15.0,27.0,5.0,17.0,6.0,8.0,4.47213595499958,5.0990195135927845,5.0,39.0,26.0,33.13608305156178,{}
101,667,8.246211251235321,83.86298349093002,3.605551275463989,12.36931687685298,22.20360331117452,23.194827009486403,24.73863375370596,48.76474136094644,36.40054944640259,31.0,12.0,24.0,6.0,29.0,15.0,9.0,4.47213595499958,5.0990195135927845,4.5,37.0,24.0,34.23448553724738,{}
102,668,17.029386365926403,92.19544457292888,2.8284271247461903,8.246211251235321,23.021728866442675,25.019992006393608,24.515301344262525,51.97114584074513,43.73785545725808,34.5,15.0,21.0,6.0,33.0,22.0,6.0,5.0990195135927845,6.082762530298219,5.5,38.0,25.0,33.13608305156178,{}
103,669,24.08318915758459,97.25224933131366,4.123105625617661,13.152946437965904,27.073972741361768,29.068883707497267,18.027756377319943,59.033888572581766,45.89117562233506,33.0,13.0,20.0,0.5,41.5,25.5,3.5,5.0990195135927845,6.0,5.5,37.0,25.0,34.132096331752024,{}
104,670,23.08679276123039,104.38869670610896,4.123105625617661,13.152946437965904,29.154759474226505,32.0624390837628,16.76305461424021,56.88585061331157,43.73785545725808,31.5,10.0,19.0,1.5,41.5,25.5,4.5,6.324555320336759,6.0,5.5,39.0,25.0,33.06055050963308,{}
105,671,25.179356624028344,101.40019723846694,4.123105625617661,12.16552506059644,29.068883707497267,32.14031735997639,14.560219778561036,55.90169943749474,43.73785545725808,30.5,8.0,17.0,1.5,42.5,26.5,4.5,7.071067811865476,7.0,6.5,38.0,25.0,34.058772731852805,{}
106,672,23.194827009486403,106.47065323364932,4.0,11.180339887498947,31.14482300479488,34.132096331752024,13.92838827718412,51.97114584074513,40.79215610874228,28.5,5.0,15.0,3.0,41.0,26.0,6.0,6.082762530298219,6.0,6.0,36.0,25.0,33.13608305156178,{}
107,673,18.027756377319943,101.31633629380802,4.123105625617661,12.16552506059644,28.0713376952364,30.066592756745816,14.866068747318506,48.83646178829912,36.6742416417845,27.0,6.0,14.0,4.0,38.0,23.0,7.0,7.280109889280518,7.071067811865476,6.5,38.0,25.0,35.22782990761707,{}
108,674,19.026297590440446,103.58571330062848,3.1622776601683795,10.44030650891055,28.16025568065745,30.066592756745816,15.231546211727816,47.29693436154187,36.87817782917155,26.5,3.0,14.0,5.5,37.5,23.5,7.5,7.280109889280518,7.071067811865476,7.0,37.0,24.0,34.23448553724738,{}
109,675,18.110770276274835,101.71037311896951,3.1622776601683795,11.180339887498947,27.16615541441225,30.14962686336267,14.560219778561036,46.87216658103186,35.6931365951495,26.0,2.0,14.0,6.0,38.0,23.0,8.0,7.280109889280518,8.06225774829855,7.5,37.0,23.0,32.14031735997639,{}
110,676,16.1245154965971,101.83319694480774,4.47213595499958,10.198039027185567,28.284271247461906,30.26549190084312,13.601470508735444,44.14748010928823,33.95585369269929,25.0,2.0,15.0,4.5,34.5,19.5,7.5,6.324555320336759,8.06225774829855,7.5,37.0,24.0,32.14031735997639,{}
111,677,15.132745950421556,102.59142264341595,4.123105625617661,10.198039027185567,29.154759474226505,31.25699921617557,13.152946437965904,42.579337712087536,32.38826948140329,24.5,1.0,12.0,6.5,35.5,21.5,9.5,7.280109889280518,7.071067811865476,7.0,38.0,24.0,32.2490309931942,{}
112,678,15.132745950421556,104.58011283222064,3.1622776601683795,10.04987562112089,30.066592756745816,32.14031735997639,13.601470508735444,41.77319714841085,31.78049716414141,23.5,1.0,12.0,6.5,34.5,20.5,7.5,8.246211251235321,8.0,7.5,38.0,25.0,31.14482300479488,{}
113,679,15.132745950421556,104.47966309287182,3.1622776601683795,9.055385138137416,29.068883707497267,30.14962686336267,12.649110640673518,39.81205847478876,30.80584360149873,22.5,2.0,12.0,5.0,32.0,20.0,7.0,8.246211251235321,9.0,8.5,37.0,25.0,32.14031735997639,{}
114,680,12.041594578792296,97.86725703727473,4.123105625617661,10.198039027185567,29.27456233660889,30.14962686336267,14.560219778561036,40.79215610874228,30.59411708155671,24.0,2.0,15.0,5.5,31.5,17.5,8.5,8.246211251235321,8.06225774829855,8.0,35.0,23.0,33.13608305156178,{}
115,681,14.0356688476182,98.73196037757988,4.123105625617661,9.219544457292889,29.154759474226505,30.14962686336267,13.601470508735444,40.79215610874228,31.575306807693888,24.0,3.0,15.0,4.0,31.0,17.0,7.0,9.219544457292889,9.0,9.0,36.0,25.0,32.0624390837628,{}
116,682,11.04536101718726,93.7709976485267,4.123105625617661,10.198039027185567,28.16025568065745,29.154759474226505,14.317821063276352,39.6232255123179,29.42787793912432,23.5,4.0,16.0,4.0,29.0,15.0,7.0,9.219544457292889,9.055385138137416,9.0,35.0,25.0,33.015148038438355,{}
117,683,9.055385138137416,91.7877987534291,3.1622776601683795,9.219544457292889,26.1725046566048,26.30589287593181,16.492422502470642,37.8549864614954,28.635642126552707,23.5,6.0,18.0,4.0,25.0,12.0,7.0,9.219544457292889,9.0,9.0,36.0,26.0,32.01562118716424,{}
118,684,2.0,88.56635930193812,4.123105625617661,9.055385138137416,25.079872407968907,25.179356624028344,20.615528128088304,31.78049716414141,22.80350850198276,23.0,9.0,19.0,6.0,17.0,5.0,9.0,9.219544457292889,9.0,8.5,35.0,25.0,35.05709628591621,{}
119,685,1.0,87.5728268357257,3.1622776601683795,6.082762530298219,25.179356624028344,25.079872407968907,21.587033144922906,29.8328677803526,23.769728648009423,23.5,10.0,20.0,6.0,14.0,5.0,9.0,8.246211251235321,9.055385138137416,9.0,35.0,26.0,35.05709628591621,{}
120,686,2.0,86.57944328765345,4.123105625617661,8.06225774829855,24.186773244895647,25.179356624028344,21.37755832643195,31.575306807693888,23.53720459187964,24.0,12.0,22.0,4.0,14.0,3.0,7.0,9.219544457292889,10.0,9.5,34.0,26.0,33.015148038438355,{}
121,687,1.0,85.47514258543241,3.1622776601683795,6.082762530298219,24.186773244895647,24.186773244895647,21.37755832643195,29.61418578992169,23.53720459187964,23.5,11.0,20.0,5.5,13.5,4.5,8.5,8.246211251235321,10.04987562112089,9.5,34.0,25.0,34.0147027033899,{}
122,688,1.0,87.46427842267951,3.1622776601683795,7.280109889280518,24.08318915758459,23.021728866442675,20.223748416156685,30.4138126514911,23.194827009486403,23.0,10.0,19.0,5.5,15.5,5.5,7.5,10.198039027185567,10.04987562112089,10.0,36.0,28.0,34.058772731852805,{}
123,689,2.0,87.46427842267951,4.123105625617661,7.071067811865476,25.079872407968907,25.079872407968907,20.39607805437113,29.61418578992169,22.56102834535696,23.0,9.0,18.0,6.5,15.5,5.5,9.5,10.198039027185567,11.04536101718726,10.5,34.0,26.0,34.058772731852805,{}
124,690,1.0,87.5728268357257,4.0,9.055385138137416,23.194827009486403,23.08679276123039,20.223748416156685,32.2490309931942,23.194827009486403,23.5,9.0,19.0,6.0,18.0,6.0,10.0,10.198039027185567,10.0,10.0,35.0,28.0,33.015148038438355,{}
125,691,1.0,84.48076704197234,5.0990195135927845,8.06225774829855,24.08318915758459,24.186773244895647,19.235384061671343,31.400636936215164,23.345235059857504,23.5,10.0,19.0,4.5,16.5,5.5,8.5,9.219544457292889,11.04536101718726,10.5,34.0,27.0,33.06055050963308,{}
126,692,3.0,87.46427842267951,4.123105625617661,8.06225774829855,25.079872407968907,25.179356624028344,20.39607805437113,29.61418578992169,21.587033144922906,22.5,9.0,18.0,6.5,15.5,5.5,9.5,9.055385138137416,10.0,10.0,33.0,26.0,32.0,{}
127,693,1.0,91.54780172128658,4.123105625617661,8.246211251235321,26.0768096208106,26.1725046566048,19.4164878389476,30.80584360149873,22.56102834535696,22.5,8.0,18.0,6.0,17.0,6.0,9.0,8.06225774829855,9.055385138137416,8.5,32.0,26.0,32.01562118716424,{}
128,694,1.0,89.45389874119518,4.123105625617661,7.280109889280518,25.079872407968907,25.079872407968907,20.223748416156685,30.59411708155671,23.345235059857504,23.5,10.0,19.0,5.5,15.5,5.5,8.5,10.198039027185567,10.0,9.5,33.0,26.0,33.0,{}
129,695,1.0,87.5728268357257,4.123105625617661,8.06225774829855,25.019992006393608,26.0768096208106,20.39607805437113,31.575306807693888,23.53720459187964,23.5,10.0,20.0,5.0,16.0,5.0,8.0,10.198039027185567,10.0,9.5,34.0,27.0,33.015148038438355,{}
130,696,1.0,86.57944328765345,4.0,8.06225774829855,24.08318915758459,24.08318915758459,22.36067977499789,33.37663853655727,25.317977802344327,25.5,11.0,21.0,6.0,17.0,6.0,9.0,10.198039027185567,10.0,10.0,33.0,26.0,35.0142828000232,{}
131,697,1.4142135623730951,85.47514258543241,4.123105625617661,9.055385138137416,25.079872407968907,26.1725046566048,22.20360331117452,36.22154055254967,27.16615541441225,26.5,13.0,22.0,4.5,18.5,5.5,7.5,10.04987562112089,10.04987562112089,9.5,33.0,27.0,34.0147027033899,{}
132,698,1.0,84.48076704197234,4.0,10.04987562112089,24.08318915758459,25.179356624028344,22.09072203437452,37.12142238654117,27.073972741361768,26.5,14.0,23.0,3.5,18.5,5.5,6.5,7.071067811865476,7.0,6.5,33.0,26.0,35.0142828000232,{}
133,699,1.0,79.76214641043707,4.123105625617661,11.180339887498947,22.20360331117452,23.194827009486403,22.09072203437452,38.3275357934736,27.16615541441225,26.5,14.0,25.0,2.5,18.5,4.5,6.5,3.1622776601683795,3.1622776601683795,3.0,36.0,28.0,34.0147027033899,{}
134,700,3.0,83.72574275573791,5.0990195135927845,11.04536101718726,23.08679276123039,24.186773244895647,21.095023109728988,40.19950248448356,29.154759474226505,27.5,13.0,24.0,2.5,21.5,6.5,6.5,4.47213595499958,3.1622776601683795,3.5,34.0,27.0,35.0142828000232,{}
135,701,3.1622776601683795,80.50465825031493,3.1622776601683795,10.198039027185567,22.09072203437452,24.186773244895647,21.095023109728988,37.21558813185679,27.073972741361768,25.5,12.0,21.0,4.5,20.5,7.5,6.5,5.385164807134504,6.082762530298219,5.5,34.0,27.0,32.01562118716424,{}
136,702,4.0,84.5931439302264,3.1622776601683795,10.198039027185567,23.194827009486403,25.179356624028344,22.09072203437452,39.319206502675,29.154759474226505,27.0,13.0,23.0,4.0,21.0,8.0,7.0,5.385164807134504,7.071067811865476,7.0,34.0,27.0,33.015148038438355,{}
137,703,2.23606797749979,85.28774824088158,5.0990195135927845,10.04987562112089,24.020824298928627,25.079872407968907,21.095023109728988,38.11823710509184,28.0713376952364,27.0,13.0,20.0,4.5,21.5,9.5,8.5,6.082762530298219,7.0,7.0,34.0,26.0,33.015148038438355,{}
138,704,9.0,91.35097153287424,3.0,10.04987562112089,26.0768096208106,28.0713376952364,19.235384061671343,41.19465984809196,31.14482300479488,26.5,11.0,19.0,4.0,26.0,12.0,6.0,6.082762530298219,6.0,6.0,32.0,26.0,32.01562118716424,{}
139,705,10.04987562112089,89.27485648266257,3.1622776601683795,10.198039027185567,25.079872407968907,26.1725046566048,20.09975124224178,43.18564576337837,33.06055050963308,28.0,14.0,21.0,2.5,25.5,12.5,5.5,8.06225774829855,8.06225774829855,8.0,34.0,28.0,31.016124838541646,{}
140,706,10.04987562112089,87.20665112249179,3.1622776601683795,11.04536101718726,25.079872407968907,26.0768096208106,20.024984394500787,44.04543109109048,33.015148038438355,28.0,14.0,20.0,3.0,27.0,14.0,5.0,7.071067811865476,8.0,8.0,34.0,29.0,31.016124838541646,{}
141,707,9.055385138137416,88.2779700718135,3.1622776601683795,10.198039027185567,25.079872407968907,27.073972741361768,21.02379604162864,43.10452412450461,33.015148038438355,28.5,15.0,22.0,2.5,24.5,11.5,4.5,8.06225774829855,8.0,8.0,33.0,28.0,33.015148038438355,{}
142,708,6.082762530298219,85.14693182963201,4.123105625617661,10.04987562112089,24.08318915758459,25.079872407968907,21.0,41.01219330881976,31.0,28.0,17.0,22.0,1.5,21.5,9.5,4.5,8.06225774829855,9.055385138137416,8.5,33.0,30.0,31.0,{}
143,709,1.0,82.29823813423954,5.0990195135927845,8.246211251235321,23.08679276123039,24.08318915758459,22.0,35.05709628591621,27.0,27.0,16.0,23.0,2.5,15.5,4.5,6.5,9.219544457292889,9.0,9.0,33.0,30.0,35.0,{}
144,710,1.0,83.2946576918352,5.0990195135927845,9.055385138137416,23.08679276123039,23.194827009486403,21.0,36.05551275463989,27.018512172212592,26.5,16.0,23.0,1.5,16.5,4.5,6.5,8.0,9.0,9.0,32.0,29.0,35.0142828000232,{}
145,711,2.23606797749979,83.15046602394962,4.123105625617661,9.055385138137416,24.020824298928627,24.08318915758459,21.0,36.013886210738214,27.0,26.0,17.0,22.0,1.5,16.5,5.5,4.5,8.06225774829855,9.055385138137416,8.5,32.0,30.0,34.0147027033899,{}
146,712,3.0,84.29116205154607,4.0,10.04987562112089,23.08679276123039,25.179356624028344,22.02271554554524,39.0,29.017236257093817,27.5,17.0,24.0,1.5,18.5,5.5,5.5,8.06225774829855,8.0,8.0,31.0,29.0,33.0,{}
147,713,3.1622776601683795,85.21150157109074,5.0990195135927845,10.04987562112089,25.079872407968907,26.1725046566048,22.02271554554524,40.0,30.01666203960727,28.5,17.0,23.0,2.0,20.0,7.0,6.0,9.055385138137416,9.055385138137416,9.0,32.0,30.0,33.0,{}
148,714,5.0,86.14522621712709,5.0,11.0,24.08318915758459,26.1725046566048,20.024984394500787,41.01219330881976,30.01666203960727,27.5,16.0,21.0,1.5,22.5,8.5,5.5,8.06225774829855,9.0,8.0,31.0,30.0,34.0,{}
149,715,9.0,86.14522621712709,3.0,10.0,25.079872407968907,26.0768096208106,19.026297590440446,41.01219330881976,31.016124838541646,26.5,15.0,20.0,1.5,23.5,10.5,3.5,8.06225774829855,8.0,8.5,31.0,30.0,32.0,{}
150,716,8.06225774829855,85.14693182963201,4.0,10.0,25.079872407968907,27.073972741361768,20.024984394500787,42.0,32.0,28.0,17.0,22.0,0.5,22.5,9.5,3.5,8.06225774829855,9.0,9.0,31.0,30.0,34.0147027033899,{}
151,717,9.0,84.1486779456457,3.0,10.0,24.08318915758459,26.0768096208106,20.024984394500787,42.01190307520001,32.01562118716424,27.5,17.0,22.0,0.5,22.5,9.5,2.5,8.06225774829855,9.0,9.0,31.0,30.0,32.0624390837628,{}
152,718,10.04987562112089,86.14522621712709,3.0,10.04987562112089,25.079872407968907,27.16615541441225,20.024984394500787,43.01162633521314,33.06055050963308,28.0,17.0,22.0,0.5,23.5,10.5,2.5,10.04987562112089,9.055385138137416,9.0,31.0,31.0,32.01562118716424,{}
153,719,9.055385138137416,86.14522621712709,3.1622776601683795,10.04987562112089,25.079872407968907,27.073972741361768,20.09975124224178,42.01190307520001,32.0624390837628,27.5,17.0,22.0,0.5,22.5,9.5,2.5,10.04987562112089,10.04987562112089,9.5,31.0,31.0,33.06055050963308,{}
154,720,12.0,87.14355971613737,3.1622776601683795,11.0,25.019992006393608,26.0768096208106,19.1049731745428,45.0111097397076,34.0147027033899,28.0,16.0,21.0,0.5,26.5,13.5,2.5,8.06225774829855,9.0,9.0,31.0,31.0,33.015148038438355,{}
155,721,10.0,87.20665112249179,3.0,9.0,26.0768096208106,27.16615541441225,19.1049731745428,41.04875150354759,32.0624390837628,27.0,15.0,21.0,1.0,23.0,11.0,3.0,9.055385138137416,9.0,9.0,30.0,30.0,33.015148038438355,{}
156,722,9.055385138137416,86.14522621712709,3.1622776601683795,9.0,26.0768096208106,27.073972741361768,19.026297590440446,40.01249804748511,31.016124838541646,26.5,16.0,21.0,0.5,21.5,10.5,2.5,9.0,9.0,9.5,30.0,31.0,32.0624390837628,{}
157,723,9.0,89.1403387922662,3.0,9.0,27.018512172212592,28.0713376952364,18.0,39.0,30.0,25.5,14.0,19.0,1.5,22.5,10.5,3.5,8.06225774829855,10.04987562112089,9.5,30.0,30.0,32.0624390837628,{}
158,724,9.055385138137416,87.20665112249179,2.0,8.06225774829855,27.073972741361768,29.068883707497267,19.0,38.0,30.01666203960727,25.5,14.0,20.0,2.0,21.0,10.0,4.0,7.071067811865476,7.0,7.0,29.0,29.0,32.01562118716424,{}
159,725,9.0,88.36288813749809,3.0,9.055385138137416,25.079872407968907,27.16615541441225,19.026297590440446,40.0,31.016124838541646,26.5,13.0,21.0,2.0,23.0,11.0,4.0,3.0,3.0,3.5,32.0,31.0,33.015148038438355,{}
160,726,10.04987562112089,87.20665112249179,3.0,10.0,24.08318915758459,26.1725046566048,18.110770276274835,41.01219330881976,31.016124838541646,26.0,15.0,21.0,0.0,23.0,11.0,3.0,2.23606797749979,4.0,3.5,32.0,33.0,31.016124838541646,{}
161,727,8.0,85.28774824088158,4.123105625617661,9.0,25.079872407968907,27.16615541441225,19.026297590440446,40.0,31.0,27.0,15.0,22.0,0.5,21.5,9.5,3.5,3.1622776601683795,3.1622776601683795,2.5,32.0,31.0,32.0624390837628,{}
162,728,7.0,80.30566605165541,3.0,10.0,23.08679276123039,25.179356624028344,20.09975124224178,40.049968789001575,30.066592756745816,26.5,17.0,24.0,0.5,19.5,7.5,1.5,3.0,3.1622776601683795,3.0,32.0,31.0,31.016124838541646,{}
163,729,8.0,75.23961722390672,4.0,9.055385138137416,22.09072203437452,23.345235059857504,21.37755832643195,42.1070065428546,33.24154027718932,29.0,22.0,28.0,4.0,17.0,5.0,0.0,4.0,5.0,4.0,33.0,31.0,28.0178514522438,{}
164,730,5.0990195135927845,69.18092222571191,4.0,10.0,20.09975124224178,22.09072203437452,25.495097567963924,44.40720662234904,34.52535300326414,31.5,27.0,32.0,4.5,14.5,2.5,0.5,6.082762530298219,5.0990195135927845,4.5,34.0,30.0,26.0,{}
165,731,4.123105625617661,65.12296062065974,6.082762530298219,11.04536101718726,18.110770276274835,18.110770276274835,24.08318915758459,45.27692569068709,34.23448553724738,32.0,27.0,31.0,5.0,16.0,2.0,1.0,8.06225774829855,8.0,7.0,34.0,30.0,24.020824298928627,{}
166,732,5.0990195135927845,64.38167441127949,5.0,12.041594578792296,17.029386365926403,18.110770276274835,25.317977802344327,47.38143096192854,35.35533905932738,32.5,26.0,33.0,4.5,17.5,2.5,0.5,8.0,8.0,7.5,33.0,30.0,26.019223662515376,{}
167,733,3.605551275463989,64.00781202322104,5.0,11.04536101718726,16.0,17.029386365926403,25.70992026436488,44.91102314577124,33.95585369269929,31.5,28.0,29.0,3.5,15.5,2.5,0.5,8.0,9.0,8.0,32.0,31.0,24.020824298928627,{}
168,734,2.23606797749979,65.06919393998976,6.082762530298219,12.041594578792296,17.029386365926403,19.1049731745428,24.186773244895647,44.40720662234904,32.38826948140329,31.0,26.0,29.0,3.5,16.5,1.5,2.5,7.0,8.0,7.5,32.0,32.0,24.186773244895647,{}
169,735,2.8284271247461903,64.03124237432849,4.123105625617661,12.041594578792296,15.033296378372908,17.11724276862369,24.515301344262525,42.95346318982906,31.04834939252005,29.0,26.0,28.0,3.0,15.0,1.0,1.0,9.0,10.0,8.5,32.0,32.0,21.0,{}
170,736,2.23606797749979,67.00746227100382,5.0990195135927845,11.04536101718726,18.027756377319943,19.1049731745428,26.476404589747453,40.79215610874228,29.8328677803526,30.0,28.0,29.0,2.5,11.5,1.5,2.5,9.055385138137416,8.06225774829855,8.0,30.0,31.0,23.021728866442675,{}
171,737,2.8284271247461903,66.0,4.123105625617661,13.038404810405298,15.033296378372908,17.11724276862369,23.194827009486403,42.579337712087536,29.61418578992169,28.0,26.0,26.0,3.0,16.0,1.0,1.0,10.0,11.180339887498947,9.5,32.0,34.0,23.08679276123039,{}
172,738,1.4142135623730951,65.03076195155643,5.0990195135927845,13.038404810405298,15.033296378372908,15.0,21.095023109728988,40.311288741492746,27.29468812791236,26.5,30.0,28.0,8.0,11.0,2.0,3.0,10.04987562112089,11.180339887498947,9.5,33.0,35.0,22.09072203437452,{}
173,739,1.0,65.00769185258002,5.0990195135927845,11.180339887498947,16.0312195418814,18.027756377319943,23.53720459187964,40.024992192379,28.861739379323623,28.0,25.0,26.0,2.5,13.5,0.5,2.5,9.055385138137416,9.0,8.0,31.0,32.0,24.186773244895647,{}
174,740,1.4142135623730951,65.03076195155643,6.082762530298219,12.16552506059644,18.027756377319943,19.1049731745428,23.345235059857504,40.79215610874228,28.635642126552707,28.5,26.0,28.0,4.0,13.0,1.0,1.0,9.0,10.04987562112089,9.0,31.0,32.0,22.20360331117452,{}
175,741,1.4142135623730951,63.0317380372777,4.0,10.04987562112089,16.1245154965971,16.1245154965971,24.33105012119288,39.45883931389772,29.42787793912432,28.5,25.0,27.0,2.0,13.0,1.0,2.0,9.055385138137416,9.219544457292889,8.0,31.0,33.0,23.194827009486403,{}
176,742,2.0,64.0,5.0990195135927845,11.180339887498947,16.0312195418814,18.027756377319943,21.587033144922906,39.81205847478876,28.635642126552707,27.0,25.0,25.0,4.0,14.0,2.0,1.0,9.055385138137416,10.198039027185567,9.0,30.0,33.0,22.20360331117452,{}
177,743,1.0,66.03029607687671,7.071067811865476,13.038404810405298,16.0312195418814,18.110770276274835,21.37755832643195,41.593268686170845,28.635642126552707,28.0,24.0,26.0,4.0,16.0,2.0,2.0,9.055385138137416,9.219544457292889,8.5,30.0,33.0,23.345235059857504,{}
178,744,1.4142135623730951,63.00793600809346,5.0990195135927845,12.041594578792296,17.029386365926403,17.029386365926403,22.80350850198276,41.0,29.120439557122072,27.5,24.0,25.0,2.5,15.5,1.5,1.5,9.055385138137416,10.198039027185567,9.0,29.0,32.0,22.36067977499789,{}
179,745,2.0,65.03076195155643,5.0990195135927845,12.041594578792296,16.0312195418814,17.029386365926403,22.36067977499789,39.81205847478876,27.892651361962702,27.0,24.0,26.0,3.0,14.0,1.0,2.0,8.0,9.055385138137416,8.0,30.0,31.0,24.186773244895647,{}
180,746,1.0,65.0,6.082762530298219,11.04536101718726,15.033296378372908,17.029386365926403,21.37755832643195,38.63935817272331,27.65863337187866,27.0,24.0,24.0,3.0,14.0,2.0,3.0,10.0,11.180339887498947,9.5,29.0,33.0,23.194827009486403,{}
181,747,2.23606797749979,65.00769185258002,6.082762530298219,13.152946437965904,16.0312195418814,18.110770276274835,20.39607805437113,37.8549864614954,24.73863375370596,25.0,22.0,23.0,2.5,14.5,0.5,2.5,9.0,10.198039027185567,9.5,29.0,33.0,23.08679276123039,{}
182,748,2.0,64.03124237432849,4.0,10.198039027185567,18.027756377319943,19.026297590440446,21.840329667841555,36.40054944640259,26.248809496813376,25.0,23.0,25.0,3.0,11.0,1.0,0.0,6.0,6.082762530298219,5.5,30.0,32.0,23.08679276123039,{}
183,749,1.0,59.033888572581766,3.1622776601683795,7.071067811865476,15.033296378372908,16.1245154965971,24.515301344262525,33.734255586866,26.68332812825267,26.5,23.0,25.0,0.0,9.0,0.0,2.0,4.123105625617661,5.0,4.5,30.0,32.0,23.021728866442675,{}
184,750,1.0,65.03076195155643,5.0,8.06225774829855,18.027756377319943,18.027756377319943,21.840329667841555,34.92849839314596,26.92582403567252,26.0,23.0,25.0,3.0,10.0,0.0,1.0,4.0,4.0,4.0,29.0,33.0,23.194827009486403,{}
185,751,1.0,68.0,4.0,7.071067811865476,19.026297590440446,19.026297590440446,23.345235059857504,33.37663853655727,26.30589287593181,26.5,24.0,24.0,1.0,9.0,0.0,2.0,7.071067811865476,6.082762530298219,6.0,28.0,33.0,28.284271247461906,{}
186,752,6.0,65.00769185258002,5.0990195135927845,10.04987562112089,18.0,19.026297590440446,23.53720459187964,32.7566787083184,22.80350850198276,25.0,27.0,26.0,3.5,5.5,6.5,0.5,9.0,9.219544457292889,8.5,27.0,35.0,29.27456233660889,{}
187,753,1.0,68.06614430096654,4.0,7.071067811865476,19.0,19.0,23.53720459187964,34.713109915419565,27.65863337187866,27.0,27.0,24.0,2.5,8.5,0.5,0.5,10.0,10.04987562112089,10.0,27.0,36.0,31.400636936215164,{}
188,754,2.0,69.06518659932803,6.082762530298219,7.071067811865476,18.027756377319943,18.0,23.53720459187964,34.713109915419565,27.65863337187866,28.0,27.0,24.0,2.5,8.5,1.5,1.5,10.0,10.04987562112089,9.5,26.0,36.0,31.400636936215164,{}
189,755,1.4142135623730951,70.25667228100119,5.0990195135927845,8.246211251235321,19.1049731745428,20.09975124224178,23.53720459187964,36.1386219991853,27.892651361962702,27.5,29.0,23.0,3.0,9.0,1.0,0.0,11.0,10.198039027185567,10.5,26.0,37.0,32.38826948140329,{}
190,756,2.23606797749979,72.24956747275377,5.0990195135927845,7.071067811865476,20.024984394500787,21.02379604162864,22.56102834535696,32.984845004941285,25.96150997149434,26.0,27.0,21.0,2.0,8.0,0.0,1.0,11.0,10.198039027185567,10.0,26.0,37.0,31.25699921617557,{}
191,757,1.0,69.46221994724903,5.0990195135927845,9.219544457292889,19.1049731745428,20.09975124224178,22.36067977499789,35.6931365951495,26.476404589747453,26.5,29.0,21.0,3.0,10.0,0.0,1.0,11.04536101718726,11.180339887498947,10.5,25.0,37.0,34.52535300326414,{}
192,758,3.1622776601683795,74.33034373659252,5.0990195135927845,8.06225774829855,20.09975124224178,21.095023109728988,23.194827009486403,33.54101966249684,25.495097567963924,26.5,29.0,22.0,2.5,7.5,0.5,0.5,10.0,10.198039027185567,9.5,26.0,38.0,31.575306807693888,{}
193,759,2.23606797749979,72.17340230306452,4.123105625617661,8.06225774829855,19.026297590440446,19.026297590440446,23.345235059857504,33.734255586866,25.70992026436488,26.0,26.0,21.0,0.5,9.5,0.5,2.5,11.0,10.198039027185567,10.0,25.0,37.0,32.38826948140329,{}
194,760,1.0,71.25307010929424,5.0990195135927845,9.219544457292889,19.026297590440446,21.02379604162864,23.345235059857504,36.6742416417845,27.459060435491963,27.5,28.0,22.0,2.0,11.0,1.0,1.0,11.0,10.198039027185567,10.5,25.0,36.0,32.38826948140329,{}
195,761,2.0,74.24284477308234,7.071067811865476,11.04536101718726,21.02379604162864,23.021728866442675,23.345235059857504,39.45883931389772,28.442925306655784,29.0,28.0,22.0,2.0,14.0,2.0,3.0,11.0,11.180339887498947,10.5,25.0,37.0,32.38826948140329,{}
196,762,1.0,76.32168761236873,6.082762530298219,11.04536101718726,21.02379604162864,22.02271554554524,22.20360331117452,39.45883931389772,28.442925306655784,28.0,28.0,21.0,2.5,14.5,2.5,1.5,12.0,10.44030650891055,10.0,25.0,36.0,32.38826948140329,{}
197,763,1.0,76.16429609731846,6.082762530298219,11.180339887498947,23.021728866442675,23.0,22.20360331117452,39.6232255123179,28.442925306655784,28.0,27.0,22.0,2.5,14.5,2.5,1.5,10.04987562112089,10.198039027185567,10.0,24.0,36.0,35.35533905932738,{}
198,764,1.0,71.34423592694787,6.082762530298219,11.180339887498947,22.02271554554524,23.0,22.36067977499789,39.81205847478876,28.635642126552707,28.0,29.0,22.0,3.5,13.5,1.5,0.5,10.04987562112089,10.198039027185567,10.0,24.0,36.0,34.23448553724738,{}
199,765,2.23606797749979,70.34912934784623,5.0990195135927845,11.180339887498947,20.09975124224178,21.02379604162864,23.53720459187964,41.97618372363071,30.80584360149873,29.0,29.0,22.0,2.5,15.5,3.5,0.5,11.04536101718726,10.198039027185567,10.0,23.0,35.0,34.23448553724738,{}
200,766,2.23606797749979,70.25667228100119,4.123105625617661,12.041594578792296,22.09072203437452,22.02271554554524,23.345235059857504,40.79215610874228,28.861739379323623,27.5,29.0,23.0,3.0,14.0,1.0,1.0,10.04987562112089,9.219544457292889,9.5,24.0,34.0,33.13608305156178,{}
201,767,2.8284271247461903,73.33484846919642,5.0990195135927845,11.04536101718726,21.095023109728988,22.09072203437452,24.186773244895647,42.579337712087536,31.575306807693888,30.0,30.0,23.0,2.5,15.5,3.5,0.5,10.0,9.219544457292889,9.5,25.0,35.0,33.24154027718932,{}
202,768,1.0,73.24616030891995,4.123105625617661,11.180339887498947,20.024984394500787,20.024984394500787,24.186773244895647,39.6232255123179,28.442925306655784,28.0,27.0,21.0,0.0,15.0,3.0,2.0,9.0,10.198039027185567,10.0,24.0,36.0,36.22154055254967,{}
203,769,1.4142135623730951,77.31752712031083,5.0,11.180339887498947,22.09072203437452,23.021728866442675,24.186773244895647,41.43669871020132,30.26549190084312,29.5,29.0,22.0,1.5,15.5,3.5,0.5,10.0,10.198039027185567,10.0,23.0,34.0,33.24154027718932,{}
204,770,1.0,72.44308110509934,5.0990195135927845,11.04536101718726,21.095023109728988,22.09072203437452,23.194827009486403,39.45883931389772,28.442925306655784,28.0,30.0,22.0,3.0,13.0,1.0,0.0,10.0,10.198039027185567,10.0,22.0,34.0,35.35533905932738,{}
205,771,1.0,76.6550715869472,5.0990195135927845,11.180339887498947,22.09072203437452,22.09072203437452,23.194827009486403,39.6232255123179,28.442925306655784,28.0,31.0,21.0,3.0,13.0,2.0,0.0,10.0,10.44030650891055,10.0,21.0,35.0,35.35533905932738,{}
206,772,2.0,76.6550715869472,4.123105625617661,12.041594578792296,23.08679276123039,24.08318915758459,22.20360331117452,38.63935817272331,26.68332812825267,26.0,29.0,19.0,2.0,14.0,2.0,0.0,10.04987562112089,9.219544457292889,10.0,21.0,35.0,35.35533905932738,{}
207,773,1.4142135623730951,76.6550715869472,4.123105625617661,11.180339887498947,24.08318915758459,24.08318915758459,21.213203435596427,37.65634076752546,26.476404589747453,25.5,29.0,19.0,3.0,13.0,1.0,1.0,10.04987562112089,9.219544457292889,9.5,21.0,36.0,35.35533905932738,{}
208,774,2.8284271247461903,81.61494961096282,5.0,11.180339887498947,25.079872407968907,25.079872407968907,22.36067977499789,40.79215610874228,29.61418578992169,28.0,30.0,20.0,3.0,15.0,3.0,1.0,11.0,10.44030650891055,10.5,21.0,35.0,33.37663853655727,{}
209,775,2.23606797749979,80.50465825031493,5.0990195135927845,12.16552506059644,23.08679276123039,23.08679276123039,22.20360331117452,41.593268686170845,29.42787793912432,28.0,29.0,20.0,2.5,16.5,3.5,0.5,9.0,9.219544457292889,9.0,22.0,35.0,33.37663853655727,{}
210,776,2.23606797749979,81.49846624323675,5.0990195135927845,11.04536101718726,23.194827009486403,24.08318915758459,22.09072203437452,39.45883931389772,28.442925306655784,27.5,29.0,20.0,2.5,14.5,3.5,0.5,10.0,10.44030650891055,10.5,22.0,36.0,33.37663853655727,{}
211,777,2.8284271247461903,77.41446893184762,5.0990195135927845,12.041594578792296,23.08679276123039,25.019992006393608,21.095023109728988,40.44749683231337,28.442925306655784,27.0,28.0,20.0,3.0,16.0,3.0,0.0,10.0,10.198039027185567,10.0,23.0,35.0,33.24154027718932,{}
212,778,4.123105625617661,80.50465825031493,5.0990195135927845,11.04536101718726,25.179356624028344,25.079872407968907,22.20360331117452,42.42640687119285,31.400636936215164,29.0,30.0,21.0,3.5,16.5,4.5,1.5,11.04536101718726,10.44030650891055,10.0,21.0,35.0,35.35533905932738,{}
213,779,2.23606797749979,78.40918313565064,5.0990195135927845,13.038404810405298,24.08318915758459,25.019992006393608,21.37755832643195,41.593268686170845,28.635642126552707,27.0,29.0,21.0,4.0,16.0,2.0,1.0,11.0,10.198039027185567,10.0,23.0,36.0,34.36568055487916,{}
214,780,4.47213595499958,81.49846624323675,6.0,12.041594578792296,23.08679276123039,23.08679276123039,22.36067977499789,44.553338819890925,32.55764119219941,30.0,30.0,21.0,3.5,18.5,6.5,0.5,11.0,10.44030650891055,10.5,24.0,35.0,34.36568055487916,{}
215,781,1.0,80.50465825031493,7.071067811865476,12.16552506059644,25.079872407968907,25.079872407968907,23.08679276123039,42.42640687119285,30.26549190084312,30.0,33.0,24.0,5.5,13.5,0.5,1.5,11.0,11.180339887498947,10.5,22.0,34.0,33.24154027718932,{}
216,782,3.605551275463989,78.5175139698144,6.0,11.180339887498947,23.08679276123039,23.08679276123039,22.20360331117452,42.579337712087536,31.400636936215164,29.5,30.0,21.0,3.5,16.5,4.5,0.5,10.0,10.198039027185567,10.5,23.0,34.0,32.2490309931942,{}
217,783,2.23606797749979,79.40403012442127,5.0990195135927845,12.041594578792296,24.08318915758459,24.020824298928627,22.20360331117452,40.60788100849391,28.635642126552707,27.5,28.0,20.0,2.0,16.0,3.0,0.0,10.0,10.198039027185567,10.5,24.0,35.0,33.24154027718932,{}
218,784,1.4142135623730951,77.31752712031083,4.123105625617661,11.04536101718726,23.08679276123039,24.08318915758459,22.20360331117452,38.47076812334269,27.459060435491963,26.5,26.0,19.0,0.5,15.5,3.5,1.5,7.071067811865476,7.280109889280518,7.0,24.0,34.0,33.37663853655727,{}
219,785,3.605551275463989,79.22752047110903,5.0,11.04536101718726,24.08318915758459,25.019992006393608,22.20360331117452,41.43669871020132,30.4138126514911,28.5,26.0,20.0,1.0,18.0,6.0,1.0,9.0,8.246211251235321,7.5,25.0,35.0,33.13608305156178,{}
220,786,2.8284271247461903,77.10382610480494,5.0990195135927845,11.04536101718726,24.020824298928627,25.0,22.20360331117452,40.60788100849391,29.61418578992169,28.0,26.0,22.0,2.0,16.0,3.0,1.0,7.0,7.280109889280518,6.5,27.0,35.0,32.2490309931942,{}
221,787,1.4142135623730951,79.1012010022604,5.0,12.041594578792296,24.020824298928627,25.0,22.36067977499789,40.44749683231337,28.442925306655784,27.5,25.0,21.0,1.0,17.0,4.0,1.0,7.0,7.280109889280518,7.0,30.0,37.0,34.132096331752024,{}
222,788,7.071067811865476,78.02563681252464,4.0,12.0,22.02271554554524,24.0,20.223748416156685,43.18564576337837,31.25699921617557,27.5,24.0,22.0,3.0,20.0,6.0,1.0,7.0,7.071067811865476,7.0,32.0,39.0,33.06055050963308,{}
223,789,8.246211251235321,81.15417426109393,4.0,12.041594578792296,23.021728866442675,25.019992006393608,21.095023109728988,45.27692569068709,33.24154027718932,29.0,26.0,21.0,2.5,21.5,8.5,0.5,7.0,7.280109889280518,7.0,33.0,39.0,34.132096331752024,{}
224,790,12.16552506059644,84.2140130857092,4.0,11.0,25.019992006393608,27.018512172212592,21.095023109728988,48.16637831516918,37.21558813185679,31.0,27.0,21.0,3.0,24.0,11.0,2.0,7.0,7.071067811865476,7.0,32.0,38.0,33.13608305156178,{}
225,791,12.041594578792296,80.22468448052632,4.123105625617661,11.0,26.019223662515376,27.018512172212592,21.095023109728988,48.16637831516918,37.21558813185679,31.0,28.0,22.0,4.0,23.0,10.0,2.0,7.0,7.280109889280518,7.0,32.0,39.0,34.132096331752024,{}
226,792,10.198039027185567,80.22468448052632,4.0,11.0,25.019992006393608,26.019223662515376,20.223748416156685,45.27692569068709,34.36568055487916,29.0,27.0,21.0,4.0,21.0,9.0,2.0,7.0,7.071067811865476,7.0,31.0,38.0,35.12833614050059,{}
227,793,9.219544457292889,79.1580697086532,3.0,11.0,24.020824298928627,25.019992006393608,21.213203435596427,44.28317965096906,33.37663853655727,28.5,26.0,21.0,2.5,20.5,8.5,1.5,8.06225774829855,7.071067811865476,7.0,31.0,37.0,33.13608305156178,{}
228,794,5.0990195135927845,78.16009211867653,4.0,10.04987562112089,23.021728866442675,23.021728866442675,22.36067977499789,41.43669871020132,31.400636936215164,28.5,26.0,21.0,1.5,17.5,6.5,0.5,8.0,7.071067811865476,7.0,31.0,36.0,33.06055050963308,{}
229,795,1.4142135623730951,75.02666192761077,4.0,11.04536101718726,22.0,23.0,23.08679276123039,39.20459156782532,28.16025568065745,27.5,25.0,23.0,1.0,15.0,3.0,2.0,7.0,8.246211251235321,7.5,30.0,35.0,32.0624390837628,{}
230,796,1.4142135623730951,75.1065909225016,4.0,12.041594578792296,22.02271554554524,23.021728866442675,24.08318915758459,41.19465984809196,29.154759474226505,28.5,26.0,22.0,0.0,17.0,4.0,2.0,8.0,9.055385138137416,8.5,28.0,33.0,33.06055050963308,{}
231,797,2.0,80.05623023850174,6.0,11.0,24.0,25.0,23.194827009486403,40.311288741492746,29.42787793912432,29.0,24.0,21.0,0.5,17.5,4.5,4.5,8.0,8.246211251235321,8.5,27.0,32.0,31.064449134018133,{}
232,798,2.23606797749979,84.1486779456457,5.0,11.0,27.018512172212592,27.018512172212592,23.08679276123039,40.19950248448356,29.27456233660889,28.5,23.0,18.0,2.5,19.5,6.5,5.5,7.071067811865476,7.071067811865476,7.0,28.0,32.0,31.14482300479488,{}
233,799,2.23606797749979,88.14193099768123,7.0,11.04536101718726,26.019223662515376,27.0,21.213203435596427,41.30375285612676,30.26549190084312,29.0,22.0,17.0,1.5,21.5,9.5,5.5,9.0,8.246211251235321,8.0,29.0,33.0,33.015148038438355,{}
234,800,7.071067811865476,87.09190547921202,3.0,10.04987562112089,26.019223662515376,27.018512172212592,21.213203435596427,41.30375285612676,31.25699921617557,27.5,21.0,17.0,2.0,22.0,10.0,3.0,9.0,9.219544457292889,8.5,27.0,31.0,31.064449134018133,{}
235,801,8.06225774829855,88.05112151472007,4.123105625617661,12.0,27.0,28.0,20.09975124224178,44.181444068749045,32.2490309931942,28.0,21.0,18.0,0.5,24.5,11.5,2.5,8.0,9.219544457292889,8.5,28.0,32.0,32.0624390837628,{}
236,802,9.055385138137416,88.05112151472007,3.0,10.04987562112089,27.0,28.0,20.223748416156685,42.2965719651132,32.2490309931942,27.5,20.0,17.0,1.5,23.5,11.5,2.5,8.0,9.055385138137416,9.0,29.0,32.0,32.0624390837628,{}
237,803,9.055385138137416,86.05230967266364,4.0,11.04536101718726,25.019992006393608,27.0,20.223748416156685,44.28317965096906,33.24154027718932,28.5,21.0,18.0,0.5,24.5,11.5,1.5,9.0,10.04987562112089,9.5,28.0,32.0,31.016124838541646,{}
238,804,12.041594578792296,87.05170877128145,3.1622776601683795,11.04536101718726,27.018512172212592,28.0,19.1049731745428,45.27692569068709,34.23448553724738,28.0,21.0,18.0,0.5,25.5,12.5,0.5,10.0,10.198039027185567,9.5,29.0,32.0,31.064449134018133,{}
239,805,11.180339887498947,86.05230967266364,3.0,11.0,26.0,27.018512172212592,20.09975124224178,45.17742799230607,34.23448553724738,28.5,21.0,18.0,0.5,25.5,12.5,1.5,9.055385138137416,9.055385138137416,9.0,29.0,32.0,31.064449134018133,{}
240,806,10.04987562112089,85.05292469985967,4.0,10.04987562112089,26.0,27.0,20.09975124224178,44.181444068749045,34.132096331752024,29.0,21.0,18.0,0.5,24.5,12.5,2.5,10.0,10.04987562112089,10.0,29.0,31.0,32.0624390837628,{}
241,807,8.246211251235321,86.02325267042627,4.0,10.04987562112089,26.019223662515376,26.019223662515376,20.223748416156685,42.42640687119285,32.38826948140329,28.0,19.0,17.0,2.0,24.0,12.0,4.0,10.0,9.055385138137416,9.0,27.0,31.0,31.14482300479488,{}
242,808,2.23606797749979,84.09518416651456,5.0990195135927845,10.04987562112089,23.08679276123039,24.0,23.08679276123039,39.45883931389772,29.42787793912432,28.5,20.0,16.0,5.0,21.0,9.0,7.0,9.055385138137416,10.04987562112089,10.0,27.0,31.0,33.06055050963308,{}
243,809,3.605551275463989,79.05694150420949,3.0,11.04536101718726,23.021728866442675,24.020824298928627,24.08318915758459,41.30375285612676,30.26549190084312,28.5,24.0,21.0,1.5,18.5,6.5,2.5,10.04987562112089,9.219544457292889,9.0,27.0,32.0,33.06055050963308,{}
244,810,3.605551275463989,78.16009211867653,4.0,11.0,23.021728866442675,24.0,22.09072203437452,39.319206502675,28.442925306655784,27.0,25.0,20.0,0.5,16.5,4.5,0.5,10.04987562112089,9.219544457292889,9.0,26.0,32.0,33.06055050963308,{}
245,811,2.23606797749979,75.16648189186454,3.1622776601683795,12.041594578792296,24.020824298928627,24.020824298928627,22.20360331117452,39.45883931389772,27.459060435491963,26.0,25.0,20.0,0.5,16.5,3.5,0.5,9.0,9.219544457292889,9.0,26.0,33.0,31.14482300479488,{}
246,812,2.23606797749979,77.1621668954417,5.0990195135927845,14.0356688476182,23.0,25.0,20.09975124224178,40.44749683231337,26.476404589747453,25.5,24.0,19.0,1.5,18.5,3.5,1.5,5.0990195135927845,5.0990195135927845,5.0,26.0,33.0,34.132096331752024,{}
247,813,5.385164807134504,78.10249675906654,4.123105625617661,13.038404810405298,24.020824298928627,26.0,19.235384061671343,41.593268686170845,28.635642126552707,25.5,22.0,18.0,1.0,21.0,6.0,1.0,3.1622776601683795,2.0,2.0,25.0,33.0,34.058772731852805,{}
248,814,5.0990195135927845,80.09993757800315,6.082762530298219,14.0356688476182,24.020824298928627,26.0,19.4164878389476,44.553338819890925,30.59411708155671,27.5,21.0,17.0,0.0,25.0,10.0,4.0,2.23606797749979,1.4142135623730951,1.0,25.0,34.0,34.132096331752024,{}
249,815,5.0990195135927845,82.09750300709517,5.0990195135927845,14.0356688476182,25.019992006393608,26.019223662515376,18.24828759089466,42.42640687119285,28.442925306655784,25.5,17.0,13.0,3.0,27.0,12.0,6.0,2.23606797749979,2.23606797749979,1.5,24.0,34.0,33.13608305156178,{}
250,816,4.123105625617661,85.0235261559999,6.082762530298219,14.0356688476182,24.0,25.019992006393608,17.11724276862369,41.30375285612676,27.29468812791236,25.0,13.0,11.0,5.0,29.0,13.0,9.0,2.8284271247461903,2.23606797749979,2.0,25.0,34.0,33.13608305156178,{}
251,817,2.23606797749979,91.00549433962765,5.0,13.038404810405298,27.0,28.0,16.1245154965971,36.22154055254967,23.194827009486403,22.0,9.0,8.0,7.5,27.5,12.5,10.5,2.0,1.0,1.0,25.0,32.0,33.06055050963308,{}
252,818,5.0990195135927845,95.00526301210895,5.0,14.0,27.018512172212592,28.0,14.0,38.01315561749642,24.020824298928627,21.5,6.0,7.0,7.5,31.5,15.5,10.5,3.0,3.0,3.0,25.0,28.0,34.0147027033899,{}
253,819,6.082762530298219,94.4298681562142,6.082762530298219,15.033296378372908,27.16615541441225,29.154759474226505,11.04536101718726,38.2099463490856,23.194827009486403,20.0,0.0,9.0,6.5,33.5,15.5,11.5,1.0,1.0,0.5,27.0,26.0,34.0,{}
254,820,8.06225774829855,97.51410154434076,3.1622776601683795,12.041594578792296,27.16615541441225,29.154759474226505,12.16552506059644,35.35533905932738,23.345235059857504,19.0,3.0,7.0,10.0,33.0,17.0,13.0,1.0,1.4142135623730951,1.0,29.0,24.0,34.058772731852805,{}
255,821,7.280109889280518,93.05912099305472,2.0,11.180339887498947,27.29468812791236,29.27456233660889,13.341664064126334,33.734255586866,22.56102834535696,18.5,4.0,10.0,10.0,30.0,15.0,12.0,1.0,2.0,0.5,33.0,23.0,34.132096331752024,{}
256,822,8.246211251235321,98.3107318658548,2.23606797749979,10.44030650891055,27.16615541441225,29.42787793912432,13.601470508735444,34.48187929913333,24.04163056034261,19.0,4.0,12.0,9.0,29.0,14.0,11.0,1.4142135623730951,2.23606797749979,2.0,35.0,22.0,35.22782990761707,{}
257,823,2.0,90.4267659490264,2.23606797749979,8.54400374531753,26.30589287593181,27.29468812791236,15.231546211727816,26.83281572999748,18.35755975068582,16.0,5.0,11.0,11.0,21.0,9.0,13.0,2.0,2.23606797749979,1.0,35.0,21.0,38.2099463490856,{}
258,824,1.0,66.48308055437865,3.605551275463989,10.44030650891055,20.8806130178211,22.13594362117865,18.35755975068582,32.64965543462902,22.47220505424423,19.0,9.0,33.0,5.0,8.0,7.0,0.0,4.242640687119285,6.324555320336759,6.0,36.0,19.0,31.575306807693888,{}
259,825,2.23606797749979,72.56721022610694,5.0990195135927845,13.601470508735444,21.213203435596427,23.345235059857504,15.231546211727816,36.05551275463989,22.47220505424423,20.0,6.0,21.0,0.5,20.5,4.5,5.5,2.8284271247461903,3.605551275463989,2.5,37.0,18.0,33.54101966249684,{}
260,826,8.246211251235321,84.64632301523794,2.8284271247461903,10.770329614269007,24.515301344262525,26.68332812825267,17.0,38.48376280978771,27.73084924772409,21.0,1.0,20.0,5.5,25.5,10.5,8.5,3.0,2.23606797749979,1.0,37.0,18.0,30.59411708155671,{}
261,827,3.0,72.3671196055225,2.23606797749979,11.40175425099138,21.095023109728988,23.345235059857504,17.46424919657298,33.24154027718932,21.93171219946131,18.5,4.0,18.0,5.0,20.0,5.0,6.0,3.1622776601683795,3.605551275463989,2.0,39.0,19.0,34.52535300326414,{}
262,828,3.0,63.150613615387776,2.23606797749979,11.704699910719626,18.110770276274835,19.1049731745428,16.15549442140351,32.89376840679705,21.18962010041709,18.5,6.0,18.0,3.0,19.0,5.0,5.0,3.1622776601683795,2.8284271247461903,2.0,40.0,20.0,33.54101966249684,{}
263,829,3.0,74.52516353554684,2.8284271247461903,11.704699910719626,22.20360331117452,23.194827009486403,16.55294535724685,33.61547262794322,21.93171219946131,18.5,3.0,18.0,4.5,20.5,6.5,6.5,2.23606797749979,3.1622776601683795,1.0,38.0,18.0,32.7566787083184,{}
264,830,2.23606797749979,82.56512580987206,3.605551275463989,12.649110640673518,23.194827009486403,24.33105012119288,17.4928556845359,35.35533905932738,23.021728866442675,18.5,2.0,18.0,5.0,21.0,6.0,8.0,2.0,3.605551275463989,2.0,37.0,21.0,32.2490309931942,{}
265,831,2.23606797749979,81.39410298049853,4.123105625617661,12.36931687685298,23.194827009486403,24.33105012119288,18.35755975068582,36.24913792078372,24.186773244895647,20.5,4.0,19.0,4.5,21.5,6.5,8.5,2.23606797749979,2.8284271247461903,2.0,37.0,22.0,33.37663853655727,{}
266,832,4.123105625617661,84.17244204607586,3.1622776601683795,12.649110640673518,24.186773244895647,26.30589287593181,18.35755975068582,38.07886552931954,25.495097567963924,21.0,5.0,19.0,4.0,23.0,8.0,7.0,1.4142135623730951,2.8284271247461903,2.0,36.0,23.0,34.23448553724738,{}
267,833,3.1622776601683795,81.88406438373708,3.1622776601683795,12.36931687685298,23.08679276123039,25.317977802344327,17.88854381999832,36.40054944640259,24.166091947189145,20.5,5.0,17.0,5.0,23.0,7.0,8.0,1.4142135623730951,2.23606797749979,2.0,34.0,22.0,35.12833614050059,{}
268,834,2.0,78.40918313565064,3.1622776601683795,12.36931687685298,23.021728866442675,24.186773244895647,17.46424919657298,34.785054261852174,22.47220505424423,20.0,8.0,16.0,4.0,21.0,6.0,6.0,2.8284271247461903,3.1622776601683795,3.5,33.0,25.0,34.058772731852805,{}
269,835,1.0,77.31752712031083,3.0,10.198039027185567,22.02271554554524,22.09072203437452,20.248456731316587,34.20526275297414,24.04163056034261,22.5,9.0,16.0,6.5,20.5,7.5,8.5,2.23606797749979,3.1622776601683795,3.0,35.0,28.0,35.05709628591621,{}
270,836,4.47213595499958,72.3671196055225,3.1622776601683795,9.486832980505138,19.235384061671343,20.39607805437113,21.02379604162864,30.886890422961,21.633307652783937,20.0,6.0,20.0,6.0,14.0,2.0,9.0,4.47213595499958,4.0,4.5,34.0,27.0,33.06055050963308,{}
271,837,3.1622776601683795,81.39410298049853,3.1622776601683795,9.219544457292889,23.08679276123039,23.08679276123039,18.384776310850235,33.83784863137726,24.698178070456937,21.5,4.0,12.0,9.0,24.0,12.0,12.0,4.47213595499958,3.0,3.5,35.0,27.0,33.06055050963308,{}
272,838,3.1622776601683795,86.57944328765345,4.123105625617661,12.36931687685298,24.08318915758459,26.1725046566048,18.97366596101028,38.60051813123757,26.248809496813376,23.5,5.0,15.0,8.0,27.0,12.0,11.0,2.23606797749979,1.4142135623730951,1.5,34.0,26.0,36.013886210738214,{}
273,839,1.0,87.46427842267951,4.123105625617661,9.219544457292889,24.08318915758459,25.079872407968907,18.97366596101028,33.24154027718932,24.04163056034261,22.5,5.0,14.0,8.5,22.5,10.5,12.5,1.4142135623730951,2.23606797749979,1.5,34.0,26.0,33.06055050963308,{}
274,840,12.041594578792296,83.86298349093002,6.082762530298219,11.40175425099138,22.20360331117452,23.194827009486403,22.36067977499789,28.46049894151541,17.08800749063506,22.0,8.0,20.0,8.0,13.0,1.0,14.0,2.8284271247461903,3.1622776601683795,2.5,34.0,25.0,35.12833614050059,{}
275,841,0.0,82.49242389456137,3.1622776601683795,9.219544457292889,24.08318915758459,25.079872407968907,21.37755832643195,33.734255586866,24.515301344262525,24.0,9.0,18.0,7.5,19.5,7.5,9.5,4.123105625617661,4.0,4.5,33.0,25.0,34.132096331752024,{}
276,842,0.0,84.48076704197234,4.0,12.041594578792296,25.079872407968907,26.0768096208106,21.37755832643195,37.33630940518894,25.317977802344327,25.0,10.0,19.0,6.5,22.5,7.5,9.5,5.0990195135927845,7.071067811865476,6.0,32.0,24.0,34.058772731852805,{}
277,843,2.0,83.48652585896721,4.0,12.041594578792296,25.079872407968907,25.317977802344327,20.39607805437113,38.3275357934736,26.30589287593181,25.0,11.0,20.0,4.5,22.5,7.5,7.5,7.071067811865476,8.06225774829855,7.5,33.0,25.0,36.05551275463989,{}
278,844,2.23606797749979,84.48076704197234,3.1622776601683795,11.04536101718726,25.079872407968907,25.179356624028344,21.37755832643195,37.33630940518894,26.30589287593181,25.0,10.0,19.0,6.5,22.5,7.5,8.5,7.071067811865476,8.0,8.0,33.0,26.0,35.05709628591621,{}
279,845,1.4142135623730951,84.38009243891595,3.1622776601683795,10.04987562112089,24.08318915758459,25.179356624028344,21.37755832643195,35.35533905932738,25.317977802344327,24.5,12.0,20.0,5.0,19.0,6.0,7.0,7.280109889280518,8.0,8.0,32.0,26.0,33.06055050963308,{}
280,846,1.0,85.37564055396598,3.1622776601683795,9.055385138137416,25.079872407968907,25.179356624028344,22.20360331117452,34.23448553724738,25.179356624028344,25.0,11.0,19.0,7.0,19.0,7.0,9.0,7.071067811865476,8.0,8.0,31.0,26.0,34.0147027033899,{}
281,847,2.0,88.2779700718135,4.0,10.0,25.079872407968907,25.019992006393608,20.09975124224178,36.05551275463989,26.0768096208106,25.0,11.0,18.0,5.5,21.5,8.5,8.5,8.06225774829855,10.04987562112089,9.0,30.0,26.0,34.0,{}
282,848,0.0,84.1486779456457,4.0,10.0,25.019992006393608,25.079872407968907,21.02379604162864,35.0142828000232,25.019992006393608,25.0,13.0,18.0,5.5,19.5,6.5,8.5,8.06225774829855,9.0,8.5,30.0,27.0,33.015148038438355,{}
283,849,1.0,86.14522621712709,5.0,10.0,24.020824298928627,25.079872407968907,21.02379604162864,37.01351104664349,27.018512172212592,26.5,13.0,18.0,5.5,21.5,8.5,8.5,8.06225774829855,10.04987562112089,9.5,31.0,28.0,33.0,{}
284,850,1.4142135623730951,87.09190547921202,5.0,10.04987562112089,26.0,27.018512172212592,21.02379604162864,37.01351104664349,27.0,26.5,14.0,18.0,5.0,21.0,8.0,8.0,5.0990195135927845,7.071067811865476,6.5,29.0,28.0,33.0,{}
285,851,2.0,88.20430828479978,4.0,10.0,26.019223662515376,26.019223662515376,21.095023109728988,37.05401462729781,27.073972741361768,26.0,12.0,18.0,6.0,22.0,9.0,9.0,3.0,4.123105625617661,4.0,30.0,28.0,32.01562118716424,{}
286,852,1.4142135623730951,86.09297300012354,3.0,9.0,25.0,26.0768096208106,22.20360331117452,35.05709628591621,26.0768096208106,25.5,14.0,18.0,6.0,19.0,8.0,7.0,3.0,4.0,4.0,30.0,29.0,33.015148038438355,{}
287,853,0.0,83.09632964216891,4.0,10.0,23.0,25.019992006393608,21.213203435596427,35.12833614050059,25.179356624028344,25.0,15.0,19.0,4.0,18.0,6.0,6.0,3.1622776601683795,4.0,4.0,28.0,30.0,35.0142828000232,{}
288,854,1.4142135623730951,83.02409288875127,3.0,10.04987562112089,25.0,24.0,22.20360331117452,36.12478373637688,26.0768096208106,25.5,17.0,19.0,4.0,18.0,6.0,5.0,4.123105625617661,5.0,5.5,28.0,31.0,35.05709628591621,{}
289,855,1.0,83.00602387778854,3.0,10.0,24.0,24.0,21.37755832643195,35.22782990761707,25.317977802344327,24.5,17.0,18.0,3.5,17.5,5.5,5.5,6.082762530298219,6.082762530298219,6.0,27.0,31.0,33.06055050963308,{}
290,856,1.0,80.0,4.0,10.0,23.021728866442675,24.020824298928627,21.37755832643195,35.12833614050059,25.179356624028344,25.0,18.0,18.0,3.0,17.0,6.0,5.0,7.0,7.0,7.5,26.0,31.0,33.13608305156178,{}
291,857,2.0,81.0,4.0,10.0,23.021728866442675,24.0,21.213203435596427,37.12142238654117,27.16615541441225,26.0,19.0,19.0,2.0,18.0,6.0,4.0,7.0,8.06225774829855,8.0,26.0,31.0,32.14031735997639,{}
292,858,1.4142135623730951,78.0,4.0,10.0,21.0,22.0,21.587033144922906,36.22154055254967,26.30589287593181,25.5,18.0,18.0,3.0,18.0,7.0,5.0,7.071067811865476,7.071067811865476,7.5,26.0,31.0,34.132096331752024,{}
293,859,1.4142135623730951,76.00657866263946,4.0,10.0,21.02379604162864,23.0,21.587033144922906,36.22154055254967,26.30589287593181,25.5,21.0,20.0,0.5,15.5,4.5,2.5,8.06225774829855,9.055385138137416,8.5,27.0,31.0,32.0624390837628,{}
294,860,1.0,76.0,3.0,11.04536101718726,21.0,23.0,21.587033144922906,36.49657518178932,25.495097567963924,24.5,19.0,19.0,2.0,17.0,5.0,4.0,7.071067811865476,9.0,8.5,26.0,31.0,32.0624390837628,{}
295,861,1.0,76.00657866263946,4.0,12.0,21.02379604162864,23.021728866442675,21.37755832643195,38.2099463490856,26.30589287593181,25.5,20.0,19.0,1.5,18.5,5.5,3.5,7.071067811865476,8.06225774829855,8.0,27.0,31.0,31.064449134018133,{}
296,862,0.0,77.0,4.0,10.0,22.0,22.0,21.587033144922906,35.35533905932738,25.495097567963924,25.0,18.0,18.0,3.0,17.0,6.0,5.0,8.06225774829855,8.06225774829855,8.5,28.0,31.0,32.01562118716424,{}
297,863,1.4142135623730951,77.00649323271382,4.123105625617661,11.0,22.0,23.0,21.587033144922906,37.33630940518894,26.476404589747453,25.5,19.0,20.0,1.5,17.5,5.5,3.5,8.06225774829855,9.055385138137416,8.5,28.0,31.0,32.0624390837628,{}
298,864,0.0,76.02631123499285,5.0,11.04536101718726,23.0,23.021728866442675,21.213203435596427,37.21558813185679,26.1725046566048,26.0,19.0,21.0,1.0,17.0,4.0,4.0,8.06225774829855,8.06225774829855,9.0,28.0,30.0,33.015148038438355,{}
299,865,1.0,74.06078584514209,3.0,10.04987562112089,21.0,22.02271554554524,22.36067977499789,36.345563690772494,26.30589287593181,25.5,19.0,22.0,1.5,15.5,3.5,3.5,7.280109889280518,8.06225774829855,8.5,29.0,29.0,33.015148038438355,{}
300,866,2.0,76.05918747922567,3.0,10.0,21.0,22.02271554554524,22.56102834535696,37.33630940518894,27.459060435491963,26.0,19.0,22.0,1.5,16.5,4.5,3.5,8.246211251235321,9.0,9.0,30.0,29.0,34.0,{}
301,867,2.0,74.00675644831355,3.1622776601683795,10.04987562112089,21.0,22.0,21.37755832643195,36.49657518178932,26.476404589747453,25.0,21.0,22.0,0.5,14.5,3.5,1.5,8.246211251235321,8.0,8.5,31.0,29.0,34.0,{}
302,868,1.4142135623730951,74.06078584514209,3.0,10.04987562112089,21.02379604162864,22.02271554554524,22.56102834535696,36.345563690772494,26.30589287593181,25.5,19.0,22.0,1.5,15.5,3.5,3.5,7.280109889280518,7.0,8.0,31.0,27.0,32.01562118716424,{}
303,869,1.4142135623730951,76.10519036176179,4.123105625617661,8.246211251235321,22.02271554554524,23.021728866442675,23.53720459187964,36.6742416417845,28.442925306655784,27.5,20.0,24.0,1.0,14.0,4.0,4.0,2.0,3.0,3.0,32.0,29.0,33.015148038438355,{}
304,870,1.0,80.05623023850174,6.082762530298219,10.0,24.020824298928627,23.021728866442675,23.194827009486403,38.2099463490856,28.284271247461906,28.5,22.0,25.0,0.5,14.5,3.5,4.5,4.123105625617661,4.123105625617661,4.0,33.0,31.0,33.0,{}
305,871,1.4142135623730951,82.00609733428362,7.071067811865476,11.0,23.0,24.0,23.021728866442675,40.01249804748511,29.017236257093817,29.5,24.0,25.0,1.5,15.5,2.5,4.5,3.1622776601683795,3.1622776601683795,3.0,32.0,33.0,35.0142828000232,{}
306,872,2.23606797749979,79.00632886041473,6.0,11.0,24.0,24.0,25.0,41.04875150354759,30.066592756745816,30.5,28.0,27.0,2.5,13.5,0.5,2.5,3.0,4.0,4.0,30.0,32.0,36.013886210738214,{}
307,873,1.4142135623730951,78.00640999302557,6.082762530298219,10.0,22.0,24.020824298928627,25.019992006393608,42.01190307520001,32.01562118716424,31.5,26.0,27.0,1.5,15.5,3.5,3.5,5.0,5.0,5.0,29.0,32.0,34.058772731852805,{}
308,874,1.0,78.00640999302557,6.082762530298219,12.041594578792296,22.0,23.0,25.0,43.10452412450461,31.064449134018133,31.0,27.0,26.0,1.5,16.5,2.5,3.5,7.071067811865476,7.071067811865476,7.0,30.0,33.0,33.06055050963308,{}
309,875,1.4142135623730951,80.00624975587844,6.082762530298219,11.04536101718726,23.021728866442675,23.0,25.0,41.10960958218893,30.066592756745816,30.5,26.0,25.0,0.5,15.5,3.5,3.5,8.0,7.071067811865476,7.0,29.0,32.0,32.01562118716424,{}
310,876,2.23606797749979,79.02531240052139,6.0,10.0,22.02271554554524,23.021728866442675,26.019223662515376,41.10960958218893,31.14482300479488,31.5,28.0,26.0,1.0,14.0,3.0,3.0,8.0,9.055385138137416,8.0,28.0,32.0,33.06055050963308,{}
311,877,1.4142135623730951,82.00609733428362,6.0,10.04987562112089,24.020824298928627,26.019223662515376,25.019992006393608,40.11234224026316,30.066592756745816,30.5,26.0,25.0,0.5,14.5,3.5,3.5,8.0,8.246211251235321,8.0,28.0,32.0,31.064449134018133,{}
312,878,2.23606797749979,83.02409288875127,6.082762530298219,9.055385138137416,24.020824298928627,25.0,24.0,41.10960958218893,32.0624390837628,31.0,25.0,23.0,0.0,17.0,7.0,4.0,8.0,8.06225774829855,7.5,28.0,33.0,31.016124838541646,{}
313,879,9.055385138137416,87.02298546935747,5.0,11.04536101718726,25.019992006393608,26.0,22.0,47.042533945356304,36.013886210738214,31.5,24.0,22.0,1.0,24.0,12.0,2.0,7.0,8.06225774829855,7.0,28.0,32.0,31.064449134018133,{}
314,880,12.041594578792296,88.0,4.0,9.055385138137416,27.0,28.0,21.0,46.04345773288535,37.01351104664349,31.0,21.0,21.0,0.0,25.0,14.0,2.0,6.0,8.06225774829855,7.5,28.0,33.0,32.0624390837628,{}
315,881,8.246211251235321,86.00581375697809,4.0,11.04536101718726,25.0,27.0,21.02379604162864,44.04543109109048,33.015148038438355,29.0,20.0,21.0,0.5,23.5,10.5,2.5,7.0,8.06225774829855,7.5,27.0,32.0,32.0624390837628,{}
316,882,6.082762530298219,86.0,3.1622776601683795,9.055385138137416,24.0,26.019223662515376,22.02271554554524,40.049968789001575,31.016124838541646,28.0,20.0,20.0,2.0,20.0,10.0,4.0,8.0,8.06225774829855,8.0,29.0,33.0,32.14031735997639,{}
317,883,2.23606797749979,84.00595217006948,5.0,11.0,24.0,25.019992006393608,22.02271554554524,40.049968789001575,29.068883707497267,28.0,22.0,21.0,0.5,18.5,5.5,3.5,8.0,8.06225774829855,8.0,26.0,32.0,33.13608305156178,{}
318,884,1.4142135623730951,85.00588214941364,6.0,12.041594578792296,24.0,26.019223662515376,21.02379604162864,40.11234224026316,28.0713376952364,27.5,23.0,22.0,1.5,17.5,3.5,2.5,7.0,8.06225774829855,8.0,26.0,33.0,33.13608305156178,{}
319,885,1.4142135623730951,84.0,5.0,12.041594578792296,25.0,26.0,21.02379604162864,39.11521443121589,27.073972741361768,26.5,22.0,22.0,1.0,17.0,3.0,3.0,7.0,7.280109889280518,7.5,25.0,31.0,32.14031735997639,{}
320,886,2.8284271247461903,83.00602387778854,4.0,11.0,25.0,25.019992006393608,21.02379604162864,38.11823710509184,27.16615541441225,26.0,22.0,21.0,0.5,16.5,3.5,2.5,7.0,8.06225774829855,8.0,27.0,33.0,34.058772731852805,{}
321,887,1.4142135623730951,81.02468759581859,4.0,12.041594578792296,25.0,25.0,22.09072203437452,39.20459156782532,27.16615541441225,26.5,23.0,21.0,0.0,17.0,3.0,2.0,6.0,7.071067811865476,7.0,26.0,32.0,34.058772731852805,{}
322,888,2.8284271247461903,80.05623023850174,4.0,11.04536101718726,24.020824298928627,25.019992006393608,22.09072203437452,39.319206502675,28.284271247461906,27.0,23.0,20.0,0.5,17.5,4.5,3.5,8.0,9.219544457292889,8.5,25.0,32.0,33.13608305156178,{}
323,889,1.4142135623730951,73.06161783043132,5.0990195135927845,11.180339887498947,23.0,24.0,21.02379604162864,38.3275357934736,27.16615541441225,26.5,24.0,21.0,1.5,15.5,2.5,1.5,9.0,9.219544457292889,9.0,25.0,32.0,34.132096331752024,{}
324,890,2.23606797749979,74.06078584514209,4.123105625617661,12.041594578792296,22.0,23.021728866442675,22.02271554554524,39.319206502675,27.29468812791236,26.5,24.0,21.0,0.5,16.5,2.5,1.5,7.0,9.219544457292889,8.5,25.0,33.0,35.12833614050059,{}
325,891,2.23606797749979,75.05997601918082,5.0990195135927845,11.04536101718726,23.0,23.0,22.09072203437452,39.45883931389772,28.442925306655784,27.5,24.0,21.0,0.5,16.5,3.5,2.5,8.0,9.219544457292889,8.5,26.0,33.0,34.132096331752024,{}
326,892,2.23606797749979,78.02563681252464,4.0,12.041594578792296,22.02271554554524,23.021728866442675,23.08679276123039,40.311288741492746,28.284271247461906,27.5,22.0,20.0,2.0,19.0,5.0,4.0,9.0,9.219544457292889,9.0,25.0,32.0,33.13608305156178,{}
327,893,3.605551275463989,78.31347265956222,4.123105625617661,10.04987562112089,24.08318915758459,25.079872407968907,25.019992006393608,42.2965719651132,32.2490309931942,30.5,28.0,21.0,0.5,17.5,6.5,1.5,8.0,9.486832980505138,8.5,25.0,32.0,31.14482300479488,{}
328,894,4.47213595499958,78.16009211867653,5.0990195135927845,11.04536101718726,24.08318915758459,26.019223662515376,23.021728866442675,43.28972164382672,32.2490309931942,30.0,26.0,21.0,0.5,19.5,7.5,1.5,8.0,9.219544457292889,8.5,26.0,33.0,35.22782990761707,{}
329,895,1.4142135623730951,75.0066663703967,4.123105625617661,10.04987562112089,22.02271554554524,22.0,23.08679276123039,38.3275357934736,28.284271247461906,27.5,22.0,21.0,1.5,16.5,4.5,3.5,10.04987562112089,10.198039027185567,9.5,26.0,33.0,31.14482300479488,{}
330,896,1.4142135623730951,75.02666192761077,3.1622776601683795,9.055385138137416,23.0,24.020824298928627,24.0,37.12142238654117,28.0713376952364,27.5,24.0,22.0,1.0,14.0,3.0,2.0,10.0,10.04987562112089,9.5,27.0,33.0,33.13608305156178,{}
331,897,1.0,77.00649323271382,5.0,10.04987562112089,24.0,24.020824298928627,21.02379604162864,36.12478373637688,26.0768096208106,26.0,21.0,20.0,0.5,15.5,3.5,3.5,8.0,10.198039027185567,9.5,26.0,32.0,34.058772731852805,{}
332,898,2.0,80.0,3.0,12.041594578792296,25.019992006393608,25.0,21.02379604162864,36.22154055254967,24.186773244895647,24.0,18.0,18.0,3.0,18.0,4.0,4.0,9.0,9.219544457292889,9.5,26.0,32.0,33.06055050963308,{}
333,899,2.0,80.00624975587844,4.0,11.0,24.0,24.08318915758459,20.024984394500787,35.12833614050059,24.186773244895647,24.0,16.0,17.0,3.5,18.5,5.5,5.5,10.0,10.198039027185567,10.0,26.0,32.0,33.06055050963308,{}
334,900,1.0,86.00581375697809,3.1622776601683795,11.04536101718726,26.019223662515376,27.018512172212592,21.0,35.12833614050059,24.08318915758459,24.0,15.0,16.0,5.5,19.5,5.5,7.5,10.0,10.198039027185567,10.0,25.0,32.0,35.12833614050059,{}
335,901,1.0,82.0,4.0,10.04987562112089,24.0,25.019992006393608,20.024984394500787,34.132096331752024,24.08318915758459,24.0,16.0,16.0,4.0,18.0,6.0,6.0,10.04987562112089,10.198039027185567,10.0,26.0,32.0,35.12833614050059,{}
336,902,2.23606797749979,86.0,5.0,11.04536101718726,25.0,26.0,19.026297590440446,37.12142238654117,26.0768096208106,25.0,14.0,14.0,5.0,23.0,10.0,7.0,10.0,10.198039027185567,10.0,25.0,32.0,36.12478373637688,{}
337,903,1.0,88.0,4.123105625617661,10.0,25.0,25.019992006393608,20.024984394500787,34.132096331752024,24.186773244895647,24.0,14.0,14.0,6.0,20.0,7.0,8.0,9.055385138137416,10.04987562112089,10.0,26.0,32.0,35.12833614050059,{}
338,904,2.0,89.0,4.0,10.04987562112089,25.0,27.018512172212592,18.027756377319943,32.2490309931942,22.20360331117452,22.0,12.0,12.0,6.0,20.0,8.0,8.0,10.04987562112089,11.180339887498947,11.0,27.0,33.0,34.058772731852805,{}
339,905,1.0,86.00581375697809,4.0,11.04536101718726,25.0,26.019223662515376,18.027756377319943,32.0624390837628,21.02379604162864,21.5,10.0,11.0,7.5,21.5,8.5,9.5,10.0,10.198039027185567,10.5,26.0,33.0,36.12478373637688,{}
340,906,1.0,90.0,4.123105625617661,10.04987562112089,26.0,27.018512172212592,18.0,32.14031735997639,22.09072203437452,22.0,11.0,11.0,7.0,21.0,8.0,9.0,10.0,10.44030650891055,10.0,26.0,33.0,33.13608305156178,{}
341,907,0.0,92.0,5.0990195135927845,12.041594578792296,28.0,28.0178514522438,17.0,34.058772731852805,22.02271554554524,22.0,11.0,11.0,6.0,23.0,8.0,9.0,8.0,8.246211251235321,8.5,26.0,33.0,35.12833614050059,{}
342,908,2.0,89.0,4.123105625617661,11.04536101718726,26.0,26.0,17.029386365926403,34.0147027033899,23.0,22.0,11.0,11.0,6.0,23.0,10.0,8.0,7.0,8.246211251235321,8.0,25.0,35.0,35.12833614050059,{}
343,909,2.0,94.02127418834527,5.0990195135927845,11.04536101718726,26.0,28.0,17.0,35.05709628591621,24.020824298928627,23.0,11.0,9.0,7.0,25.0,13.0,10.0,7.0,8.246211251235321,8.5,24.0,34.0,35.22782990761707,{}
344,910,1.4142135623730951,93.02150289046077,6.0,11.04536101718726,27.0,28.0178514522438,18.0,36.05551275463989,25.019992006393608,24.5,11.0,9.0,8.0,26.0,13.0,12.0,7.0,8.06225774829855,8.0,25.0,34.0,34.23448553724738,{}
345,911,1.4142135623730951,93.08598175880188,6.082762530298219,10.04987562112089,27.018512172212592,27.018512172212592,20.024984394500787,37.05401462729781,27.018512172212592,26.5,19.0,15.0,3.0,20.0,8.0,7.0,7.0,8.54400374531753,7.5,24.0,33.0,36.22154055254967,{}
346,912,3.1622776601683795,92.0869154657707,6.0,10.04987562112089,28.0178514522438,28.0178514522438,25.019992006393608,38.01315561749642,28.0,29.5,22.0,18.0,5.0,18.0,7.0,8.0,7.0,7.280109889280518,6.5,26.0,33.0,35.12833614050059,{}
347,913,2.0,92.02173656261871,5.0990195135927845,10.04987562112089,26.0768096208106,26.019223662515376,22.20360331117452,39.01281840626232,29.068883707497267,28.0,19.0,17.0,4.0,21.0,11.0,6.0,8.0,8.246211251235321,8.0,25.0,31.0,34.058772731852805,{}
348,914,9.0,89.1403387922662,2.0,10.0,26.019223662515376,27.018512172212592,20.39607805437113,41.19465984809196,31.25699921617557,26.5,13.0,18.0,4.5,25.5,13.5,5.5,2.23606797749979,4.0,3.5,29.0,32.0,36.013886210738214,{}
349,915,4.123105625617661,92.13576938409967,5.0,12.0,26.0768096208106,26.019223662515376,18.43908891458577,39.319206502675,27.459060435491963,25.0,10.0,15.0,5.5,26.5,12.5,9.5,2.0,3.1622776601683795,3.0,29.0,31.0,34.058772731852805,{}
350,916,7.071067811865476,82.21921916437786,4.0,12.041594578792296,25.079872407968907,26.019223662515376,17.26267650163207,40.311288741492746,28.284271247461906,24.5,12.0,18.0,2.0,25.0,11.0,5.0,2.0,2.0,2.5,30.0,31.0,35.0142828000232,{}
351,917,5.0990195135927845,91.26883367283708,4.0,11.04536101718726,25.079872407968907,26.0768096208106,18.68154169226941,38.63935817272331,27.65863337187866,24.5,7.0,14.0,7.5,27.5,14.5,10.5,3.1622776601683795,4.0,4.0,27.0,28.0,32.0624390837628,{}
352,918,3.1622776601683795,88.05112151472007,5.0,10.04987562112089,22.0,22.0,21.840329667841555,36.40054944640259,26.570660511172846,25.5,14.0,17.0,5.5,19.5,7.5,9.5,2.23606797749979,3.0,3.0,26.0,27.0,31.14482300479488,{}
353,919,4.123105625617661,87.20665112249179,3.1622776601683795,10.04987562112089,23.021728866442675,24.08318915758459,18.384776310850235,35.4400902933387,25.6320112359526,22.0,6.0,12.0,8.0,25.0,13.0,9.0,1.0,4.0,4.0,27.0,28.0,34.0147027033899,{}
354,920,4.123105625617661,87.20665112249179,3.1622776601683795,10.198039027185567,24.020824298928627,25.019992006393608,17.88854381999832,35.11409973215888,25.079872407968907,21.0,7.0,13.0,6.0,23.0,11.0,8.0,1.0,3.0,3.0,26.0,27.0,30.01666203960727,{}
355,921,5.385164807134504,84.2140130857092,3.0,10.198039027185567,23.08679276123039,24.020824298928627,17.4928556845359,35.4682957019364,25.495097567963924,20.5,8.0,14.0,4.0,22.0,10.0,6.0,2.23606797749979,3.0,3.5,27.0,28.0,31.016124838541646,{}
356,922,3.605551275463989,86.14522621712709,5.0,10.198039027185567,23.021728866442675,23.021728866442675,18.35755975068582,36.40054944640259,26.40075756488817,22.5,10.0,15.0,3.5,21.5,9.5,7.5,3.0,4.123105625617661,4.0,27.0,26.0,31.064449134018133,{}
357,923,5.385164807134504,82.29823813423954,3.0,10.198039027185567,21.02379604162864,22.02271554554524,18.788294228055936,37.0,26.92582403567252,22.5,7.0,14.0,6.5,24.5,12.5,8.5,2.0,3.1622776601683795,3.5,28.0,28.0,32.01562118716424,{}
358,924,3.1622776601683795,82.29823813423954,5.0990195135927845,12.16552506059644,23.021728866442675,24.0,19.235384061671343,39.21734310225516,27.31300056749533,23.5,8.0,15.0,5.5,25.5,11.5,9.5,3.1622776601683795,4.123105625617661,4.0,28.0,26.0,32.0,{}
359,925,2.0,80.15609770940699,3.1622776601683795,11.180339887498947,22.0,24.0,20.591260281974,36.40054944640259,25.495097567963924,22.0,8.0,13.0,7.5,23.5,10.5,9.5,5.0990195135927845,5.0,5.0,28.0,27.0,29.017236257093817,{}
360,926,2.8284271247461903,80.15609770940699,2.0,8.246211251235321,22.0,23.021728866442675,20.591260281974,33.1058907144937,25.05992817228333,21.0,9.0,14.0,6.5,18.5,8.5,6.5,4.123105625617661,6.0,6.0,28.0,27.0,31.016124838541646,{}
361,927,1.0,81.15417426109393,3.0,8.246211251235321,21.02379604162864,22.0,17.46424919657298,28.792360097775937,20.615528128088304,19.0,7.0,12.0,6.5,17.5,7.5,8.5,4.123105625617661,5.0,5.0,28.0,26.0,29.017236257093817,{}
362,928,1.0,77.10382610480494,3.1622776601683795,10.198039027185567,20.024984394500787,22.02271554554524,18.788294228055936,32.89376840679705,22.84731931759173,20.5,9.0,13.0,6.0,20.0,8.0,8.0,4.123105625617661,5.0,5.5,27.0,27.0,30.01666203960727,{}
363,929,2.23606797749979,78.16009211867653,3.0,12.041594578792296,21.0,22.0,19.235384061671343,35.11409973215888,23.706539182259394,20.5,9.0,14.0,5.5,21.5,8.5,7.5,5.0990195135927845,6.0,6.0,26.0,25.0,28.0713376952364,{}
364,930,1.4142135623730951,80.15609770940699,4.123105625617661,11.180339887498947,21.0,23.0,18.35755975068582,34.539832078341085,23.706539182259394,20.5,10.0,15.0,3.5,19.5,7.5,6.5,4.0,5.0,5.5,29.0,27.0,31.016124838541646,{}
365,931,4.123105625617661,77.23341245859851,3.1622776601683795,10.04987562112089,21.02379604162864,22.0,19.72308292331602,36.40054944640259,26.83281572999748,22.0,9.0,15.0,5.0,22.0,11.0,7.0,4.123105625617661,5.0,5.5,28.0,27.0,31.016124838541646,{}
366,932,2.0,77.10382610480494,4.123105625617661,10.198039027185567,21.0,22.0,20.248456731316587,35.84689665786984,25.942243542145693,22.0,10.0,14.0,5.0,21.0,10.0,8.0,4.123105625617661,5.0990195135927845,6.0,29.0,27.0,28.0178514522438,{}
367,933,1.4142135623730951,77.23341245859851,5.0990195135927845,11.40175425099138,19.026297590440446,21.0,18.867962264113206,36.24913792078372,25.05992817228333,21.5,10.0,16.0,3.0,20.0,8.0,8.0,6.0,6.082762530298219,6.5,29.0,27.0,29.068883707497267,{}
368,934,0.0,75.23961722390672,4.123105625617661,10.198039027185567,19.0,21.0,21.95449840010015,35.84689665786984,25.942243542145693,23.0,10.0,16.0,6.0,20.0,9.0,8.0,5.0990195135927845,6.0,6.0,28.0,26.0,29.017236257093817,{}
369,935,2.23606797749979,80.39900496896712,4.123105625617661,10.198039027185567,20.0,22.09072203437452,18.35755975068582,34.539832078341085,24.596747752497688,21.0,6.0,14.0,6.0,22.0,10.0,8.0,5.0990195135927845,6.0,6.0,28.0,25.0,26.019223662515376,{}
370,936,2.23606797749979,77.41446893184762,4.123105625617661,10.44030650891055,20.024984394500787,20.024984394500787,18.35755975068582,34.92849839314596,24.596747752497688,21.0,8.0,16.0,4.0,20.0,9.0,7.0,4.123105625617661,6.0,6.5,28.0,24.0,28.0178514522438,{}
371,937,0.0,80.30566605165541,4.123105625617661,12.36931687685298,19.026297590440446,22.02271554554524,20.12461179749811,36.40054944640259,24.166091947189145,22.0,8.0,15.0,6.5,22.5,9.5,9.5,4.123105625617661,6.0,5.5,29.0,25.0,29.0,{}
372,938,1.4142135623730951,80.22468448052632,4.123105625617661,10.198039027185567,21.0,22.0,21.470910553583888,36.76955262170047,26.83281572999748,23.5,10.0,16.0,6.0,21.0,9.0,9.0,3.1622776601683795,5.0990195135927845,5.5,29.0,26.0,28.0178514522438,{}
373,939,5.385164807134504,83.21658488546619,4.123105625617661,10.198039027185567,23.021728866442675,25.019992006393608,17.4928556845359,36.76955262170047,26.83281572999748,21.5,6.0,12.0,6.0,25.0,13.0,9.0,5.0990195135927845,6.082762530298219,6.5,30.0,26.0,27.018512172212592,{}
374,940,7.615773105863909,87.14355971613737,3.1622776601683795,10.198039027185567,22.02271554554524,24.020824298928627,15.811388300841896,36.24913792078372,26.419689627245813,19.5,5.0,10.0,5.5,25.5,13.5,7.5,4.123105625617661,5.0,5.5,30.0,26.0,27.018512172212592,{}
375,941,6.708203932499369,87.20665112249179,3.0,11.180339887498947,24.020824298928627,26.0,17.204650534085253,37.16180835212409,26.419689627245813,20.0,4.0,10.0,7.0,27.0,15.0,9.0,4.0,5.0990195135927845,5.0,30.0,26.0,29.017236257093817,{}
376,942,7.615773105863909,87.28115489611719,3.1622776601683795,10.04987562112089,24.020824298928627,26.019223662515376,16.401219466856727,36.24913792078372,26.92582403567252,19.5,2.0,9.0,7.5,27.5,15.5,9.5,4.0,5.0990195135927845,5.0,29.0,26.0,27.0,{}
377,943,7.615773105863909,86.28441342444185,3.0,10.44030650891055,24.08318915758459,25.019992006393608,17.204650534085253,37.57658845611187,27.29468812791236,20.5,3.0,10.0,7.5,27.5,15.5,9.5,5.0,7.0,7.0,29.0,26.0,27.018512172212592,{}
378,944,7.615773105863909,87.20665112249179,3.0,9.055385138137416,24.08318915758459,25.019992006393608,16.401219466856727,34.92849839314596,26.419689627245813,19.5,3.0,9.0,7.0,26.0,15.0,9.0,4.123105625617661,6.0,5.5,29.0,25.0,27.0,{}
379,945,8.54400374531753,90.19977827023745,3.1622776601683795,9.219544457292889,25.019992006393608,27.018512172212592,14.7648230602334,35.4682957019364,26.40075756488817,20.0,2.0,8.0,8.0,28.0,17.0,10.0,5.0,5.0990195135927845,5.0,29.0,26.0,28.0178514522438,{}
380,946,9.486832980505138,89.1403387922662,2.23606797749979,9.219544457292889,24.08318915758459,26.019223662515376,14.7648230602334,35.4682957019364,26.40075756488817,19.5,3.0,8.0,7.5,27.5,16.5,9.5,4.123105625617661,6.0,5.5,32.0,28.0,28.0,{}
381,947,7.280109889280518,92.34717104492157,3.1622776601683795,11.180339887498947,24.08318915758459,27.018512172212592,15.652475842498529,37.0,26.0,20.5,2.0,10.0,8.0,29.0,16.0,10.0,2.23606797749979,3.1622776601683795,3.0,33.0,28.0,28.0178514522438,{}
382,948,8.246211251235321,87.46427842267951,3.1622776601683795,11.180339887498947,25.079872407968907,27.018512172212592,17.0,39.21734310225516,28.231188426986208,22.0,6.0,15.0,4.5,26.5,12.5,6.5,4.0,4.0,4.0,31.0,28.0,28.0178514522438,{}
383,949,8.06225774829855,91.6624241442479,3.1622776601683795,10.198039027185567,27.16615541441225,28.16025568065745,17.08800749063506,38.3275357934736,28.16025568065745,23.0,5.0,16.0,5.5,26.5,13.5,7.5,3.0,3.1622776601683795,3.5,32.0,26.0,34.0,{}
384,950,9.055385138137416,92.7793080379456,3.0,11.04536101718726,27.16615541441225,29.27456233660889,18.43908891458577,41.43669871020132,30.4138126514911,25.5,7.0,19.0,5.0,28.0,13.0,8.0,5.0990195135927845,6.0,6.0,31.0,24.0,35.0142828000232,{}
385,951,8.0,88.81441324469807,4.123105625617661,9.055385138137416,25.179356624028344,26.30589287593181,19.235384061671343,40.311288741492746,31.25699921617557,27.0,10.0,22.0,3.0,24.0,11.0,6.0,8.06225774829855,8.06225774829855,8.0,32.0,25.0,34.058772731852805,{}
386,952,3.0,85.70880934886448,4.0,9.055385138137416,25.179356624028344,26.30589287593181,21.02379604162864,37.05401462729781,28.0178514522438,26.5,12.0,23.0,3.5,19.5,7.5,6.5,8.246211251235321,8.0,8.0,32.0,25.0,34.0147027033899,{}
387,953,3.1622776601683795,81.39410298049853,4.123105625617661,10.04987562112089,24.08318915758459,24.186773244895647,22.02271554554524,39.0,29.017236257093817,27.5,17.0,25.0,1.0,18.0,5.0,4.0,8.06225774829855,9.055385138137416,9.0,33.0,28.0,34.0,{}
388,954,1.0,79.30952023559341,5.0,10.0,22.09072203437452,24.186773244895647,22.09072203437452,38.05259518088089,28.0713376952364,27.5,19.0,26.0,0.5,15.5,2.5,4.5,9.055385138137416,9.055385138137416,9.0,31.0,30.0,34.0,{}
389,955,1.4142135623730951,79.22752047110903,6.082762530298219,10.04987562112089,23.08679276123039,24.186773244895647,22.09072203437452,39.01281840626232,29.068883707497267,28.5,19.0,25.0,0.0,17.0,4.0,5.0,9.0,9.0,9.0,29.0,30.0,33.06055050963308,{}
390,956,3.1622776601683795,79.1012010022604,5.0,10.04987562112089,23.021728866442675,24.08318915758459,24.08318915758459,42.04759208325728,32.14031735997639,30.5,22.0,26.0,0.0,18.0,5.0,4.0,8.06225774829855,8.0,8.0,29.0,31.0,34.058772731852805,{}
391,957,2.23606797749979,75.02666192761077,4.0,11.04536101718726,22.02271554554524,22.09072203437452,24.186773244895647,41.30375285612676,30.26549190084312,29.0,24.0,26.0,1.0,16.0,3.0,2.0,9.055385138137416,10.04987562112089,9.5,28.0,33.0,32.0624390837628,{}
392,958,0.0,69.02897942168927,6.082762530298219,10.04987562112089,22.0,23.021728866442675,23.345235059857504,39.45883931389772,29.42787793912432,29.0,27.0,25.0,3.0,13.0,1.0,1.0,10.0,10.04987562112089,10.0,27.0,32.0,33.06055050963308,{}
393,959,1.0,74.02702209328699,5.0,10.04987562112089,23.0,22.02271554554524,24.33105012119288,39.45883931389772,29.42787793912432,29.0,27.0,25.0,2.0,13.0,2.0,2.0,9.0,9.055385138137416,9.0,27.0,33.0,33.13608305156178,{}
394,960,2.23606797749979,74.06078584514209,6.0,11.0,21.02379604162864,22.0,22.56102834535696,38.63935817272331,27.892651361962702,27.5,26.0,23.0,2.5,13.5,1.5,1.5,9.055385138137416,9.055385138137416,9.0,28.0,34.0,31.064449134018133,{}
395,961,1.4142135623730951,80.0,5.0,9.0,23.021728866442675,24.020824298928627,22.09072203437452,35.12833614050059,26.1725046566048,26.5,21.0,21.0,1.0,14.0,3.0,5.0,9.0,9.055385138137416,8.5,29.0,35.0,31.25699921617557,{}
396,962,0.0,80.00624975587844,4.123105625617661,9.055385138137416,22.02271554554524,23.021728866442675,22.09072203437452,35.22782990761707,26.1725046566048,26.0,19.0,18.0,3.5,16.5,5.5,6.5,9.0,9.055385138137416,8.5,28.0,35.0,32.14031735997639,{}
397,963,1.0,81.00617260431454,4.123105625617661,8.06225774829855,23.0,24.020824298928627,22.09072203437452,33.24154027718932,25.179356624028344,25.5,20.0,19.0,2.5,13.5,3.5,4.5,9.0,9.055385138137416,9.0,27.0,34.0,32.2490309931942,{}
398,964,1.0,82.02438661763951,4.123105625617661,8.06225774829855,23.021728866442675,23.0,21.213203435596427,34.36568055487916,26.30589287593181,25.5,19.0,17.0,3.0,16.0,6.0,6.0,10.0,9.055385138137416,9.5,27.0,34.0,33.24154027718932,{}
399,965,0.0,82.0,5.0,9.055385138137416,22.0,23.08679276123039,20.39607805437113,34.36568055487916,25.317977802344327,25.0,16.0,16.0,4.0,18.0,7.0,7.0,9.0,10.04987562112089,9.5,28.0,35.0,31.14482300479488,{}
400,966,2.23606797749979,83.00602387778854,4.0,10.0,24.0,25.019992006393608,20.39607805437113,36.345563690772494,26.476404589747453,25.0,19.0,18.0,1.5,17.5,5.5,3.5,10.0,10.198039027185567,10.0,28.0,35.0,31.14482300479488,{}
401,967,4.123105625617661,82.0,4.0,10.04987562112089,23.0,24.08318915758459,20.39607805437113,38.47076812334269,28.442925306655784,26.0,19.0,19.0,1.0,19.0,7.0,4.0,10.0,10.198039027185567,9.5,28.0,35.0,33.13608305156178,{}
402,968,1.0,81.0,6.082762530298219,13.038404810405298,24.020824298928627,26.019223662515376,21.213203435596427,41.30375285612676,28.284271247461906,27.5,21.0,21.0,0.0,20.0,5.0,5.0,9.055385138137416,9.055385138137416,9.0,28.0,36.0,33.24154027718932,{}
403,969,1.0,79.0,6.082762530298219,12.041594578792296,23.0,24.020824298928627,22.36067977499789,41.43669871020132,29.42787793912432,28.5,22.0,22.0,0.0,19.0,5.0,4.0,10.0,9.219544457292889,9.0,28.0,37.0,33.37663853655727,{}
404,970,1.4142135623730951,76.00657866263946,6.082762530298219,13.038404810405298,23.021728866442675,23.0,21.37755832643195,41.593268686170845,28.635642126552707,27.5,22.0,21.0,0.5,19.5,4.5,2.5,9.0,10.198039027185567,9.5,27.0,36.0,34.36568055487916,{}
405,971,3.1622776601683795,83.05419917138447,4.123105625617661,11.04536101718726,25.019992006393608,25.019992006393608,23.194827009486403,41.43669871020132,30.4138126514911,28.5,24.0,21.0,0.5,18.5,6.5,2.5,11.04536101718726,10.198039027185567,9.5,27.0,36.0,37.33630940518894,{}
406,972,2.23606797749979,72.3394774656273,4.123105625617661,12.041594578792296,21.095023109728988,21.095023109728988,30.14962686336267,44.40720662234904,32.38826948140329,33.0,30.0,23.0,3.5,17.5,5.5,5.5,10.0,10.198039027185567,9.5,28.0,37.0,35.510561809129406,{}
407,973,1.4142135623730951,81.00617260431454,5.0990195135927845,12.041594578792296,25.019992006393608,25.019992006393608,21.213203435596427,39.45883931389772,27.459060435491963,26.5,19.0,18.0,2.5,20.5,6.5,4.5,11.04536101718726,11.04536101718726,10.5,27.0,35.0,34.23448553724738,{}
408,974,2.23606797749979,78.02563681252464,4.123105625617661,12.041594578792296,23.0,23.0,21.37755832643195,38.8329756778952,26.92582403567252,25.5,20.0,18.0,2.0,19.0,5.0,4.0,11.0,11.180339887498947,11.0,28.0,37.0,34.36568055487916,{}
409,975,4.47213595499958,78.10249675906654,4.123105625617661,11.04536101718726,23.021728866442675,24.020824298928627,20.615528128088304,40.024992192379,29.120439557122072,26.0,20.0,16.0,2.0,21.0,8.0,3.0,12.0,11.180339887498947,10.5,26.0,34.0,35.22782990761707,{}
410,976,3.605551275463989,80.09993757800315,5.0,12.041594578792296,23.021728866442675,24.0,19.6468827043885,39.81205847478876,27.892651361962702,25.5,21.0,17.0,0.0,20.0,6.0,3.0,11.0,11.180339887498947,10.5,27.0,35.0,34.23448553724738,{}
411,977,2.8284271247461903,79.05694150420949,5.0990195135927845,12.041594578792296,24.0,24.0,19.4164878389476,38.8329756778952,26.92582403567252,25.0,19.0,16.0,1.5,20.5,6.5,4.5,11.0,11.04536101718726,11.0,27.0,34.0,34.132096331752024,{}
412,978,2.23606797749979,82.02438661763951,5.0,12.041594578792296,24.020824298928627,25.0,20.615528128088304,38.8329756778952,26.92582403567252,25.5,18.0,16.0,3.0,21.0,7.0,5.0,11.0,11.180339887498947,10.5,27.0,34.0,36.22154055254967,{}
413,979,4.47213595499958,76.02631123499285,4.123105625617661,12.041594578792296,22.02271554554524,23.0,19.6468827043885,40.024992192379,28.16025568065745,25.0,19.0,17.0,1.0,21.0,7.0,3.0,12.0,12.16552506059644,11.5,28.0,35.0,35.22782990761707,{}
414,980,3.1622776601683795,79.05694150420949,4.123105625617661,11.04536101718726,24.0,25.0,20.39607805437113,38.63935817272331,27.65863337187866,25.5,20.0,17.0,1.5,19.5,5.5,3.5,12.041594578792296,11.180339887498947,11.0,27.0,35.0,36.22154055254967,{}
415,981,5.385164807134504,77.00649323271382,4.0,12.041594578792296,22.0,23.021728866442675,20.615528128088304,41.77319714841085,29.8328677803526,26.5,20.0,19.0,0.5,21.5,7.5,2.5,11.0,11.180339887498947,11.0,28.0,35.0,38.2099463490856,{}
416,982,3.605551275463989,78.02563681252464,5.0,13.038404810405298,23.0,23.021728866442675,21.37755832643195,42.579337712087536,29.61418578992169,27.5,22.0,20.0,0.0,21.0,6.0,3.0,11.0,11.180339887498947,10.5,31.0,38.0,35.12833614050059,{}
417,983,4.123105625617661,80.09993757800315,5.0,12.041594578792296,24.020824298928627,25.019992006393608,21.213203435596427,42.2965719651132,30.26549190084312,28.0,23.0,19.0,0.0,21.0,8.0,4.0,5.0,4.123105625617661,4.0,33.0,39.0,39.11521443121589,{}
418,984,8.0,86.00581375697809,4.123105625617661,13.038404810405298,25.019992006393608,27.018512172212592,19.235384061671343,44.28317965096906,31.25699921617557,27.0,19.0,18.0,0.5,25.5,10.5,2.5,4.123105625617661,4.0,4.0,36.0,41.0,39.20459156782532,{}
419,985,8.0,86.00581375697809,4.0,11.0,26.0,27.018512172212592,19.1049731745428,42.04759208325728,31.064449134018133,27.0,18.0,19.0,0.5,23.5,10.5,2.5,5.0,4.0,4.5,36.0,39.0,37.12142238654117,{}
420,986,9.0,88.02272433866155,5.0,12.0,27.018512172212592,27.018512172212592,18.027756377319943,44.01136216933077,32.01562118716424,27.5,18.0,20.0,1.0,25.0,11.0,3.0,7.0,7.071067811865476,7.0,36.0,37.0,39.01281840626232,{}
421,987,13.0,90.0222194794152,5.0,11.0,26.019223662515376,28.0178514522438,18.027756377319943,47.01063709417264,36.013886210738214,29.5,19.0,21.0,2.0,27.0,14.0,2.0,7.071067811865476,8.06225774829855,8.0,36.0,37.0,37.01351104664349,{}
422,988,10.0,90.0499861188218,4.0,10.0,27.073972741361768,27.073972741361768,19.0,43.0,33.0,28.0,18.0,21.0,0.5,23.5,10.5,2.5,7.071067811865476,7.071067811865476,7.0,37.0,36.0,36.013886210738214,{}
423,989,11.04536101718726,89.08984229416954,4.123105625617661,10.04987562112089,25.019992006393608,26.0768096208106,20.024984394500787,45.0,35.0142828000232,29.5,19.0,23.0,1.0,24.0,11.0,2.0,7.071067811865476,8.06225774829855,8.0,36.0,36.0,37.01351104664349,{}
424,990,7.071067811865476,86.09297300012354,4.0,10.0,24.020824298928627,25.019992006393608,21.0,42.01190307520001,32.01562118716424,28.5,20.0,24.0,1.0,20.0,8.0,2.0,8.06225774829855,8.06225774829855,8.0,36.0,36.0,36.013886210738214,{}
425,991,1.4142135623730951,81.09870529176159,6.0,13.0,22.02271554554524,23.021728866442675,23.0,43.01162633521314,30.01666203960727,29.5,22.0,26.0,1.0,19.0,5.0,4.0,8.06225774829855,8.0,8.5,36.0,37.0,36.013886210738214,{}
426,992,3.1622776601683795,81.09870529176159,5.0,12.0,23.021728866442675,23.08679276123039,23.021728866442675,43.0,31.0,29.5,22.0,26.0,1.0,19.0,5.0,3.0,8.06225774829855,9.0,9.0,35.0,36.0,35.0142828000232,{}
427,993,2.23606797749979,80.02499609497022,4.0,12.0,24.020824298928627,24.020824298928627,24.020824298928627,42.0,30.0,29.0,24.0,26.0,1.0,17.0,3.0,2.0,7.071067811865476,8.0,8.0,35.0,35.0,34.058772731852805,{}
428,994,2.23606797749979,77.00649323271382,4.123105625617661,12.0,23.0,23.021728866442675,23.0,40.01249804748511,28.0178514522438,27.5,24.0,25.0,1.5,15.5,2.5,1.5,8.06225774829855,9.055385138137416,8.5,34.0,34.0,34.0147027033899,{}
429,995,1.0,80.02499609497022,5.0,13.038404810405298,25.0,25.019992006393608,23.021728866442675,41.01219330881976,28.0,28.0,22.0,24.0,0.0,18.0,4.0,3.0,8.06225774829855,8.0,8.0,34.0,34.0,34.0147027033899,{}
430,996,2.23606797749979,81.05553651663777,4.0,12.0,25.0,25.019992006393608,22.09072203437452,40.01249804748511,28.0178514522438,27.0,19.0,22.0,1.5,19.5,5.5,4.5,8.06225774829855,9.055385138137416,8.5,33.0,33.0,35.0142828000232,{}
431,997,1.4142135623730951,83.00602387778854,3.0,11.0,25.0,25.0,22.09072203437452,37.01351104664349,26.019223662515376,25.5,18.0,19.0,3.5,18.5,5.5,5.5,8.0,8.06225774829855,7.5,33.0,34.0,34.058772731852805,{}
432,998,4.123105625617661,84.02380615040002,5.0990195135927845,10.0,23.0,24.020824298928627,25.0,36.0,26.0,28.0,22.0,20.0,4.0,15.0,4.0,8.0,8.06225774829855,8.06225774829855,7.5,34.0,35.0,33.015148038438355,{}
433,999,8.06225774829855,79.05694150420949,7.0,12.0,25.019992006393608,26.019223662515376,30.0,41.01219330881976,29.017236257093817,33.0,31.0,28.0,0.5,11.5,2.5,5.5,8.06225774829855,7.071067811865476,6.5,32.0,33.0,33.0,{}
434,1000,3.1622776601683795,86.0,5.0,12.041594578792296,26.0,27.0,19.026297590440446,39.01281840626232,27.0,25.5,17.0,17.0,2.0,22.0,8.0,5.0,7.071067811865476,6.0,6.5,32.0,33.0,37.01351104664349,{}
435,1001,9.0,90.0,4.0,11.0,26.0,27.0,18.027756377319943,42.01190307520001,31.016124838541646,26.5,15.0,15.0,3.0,27.0,13.0,5.0,7.071067811865476,7.071067811865476,6.5,33.0,33.0,34.0147027033899,{}
436,1002,9.0,90.00555538409837,3.0,11.0,27.0,28.0,17.26267650163207,40.11234224026316,29.154759474226505,24.5,12.0,13.0,4.5,27.5,14.5,5.5,7.0,8.06225774829855,7.5,33.0,33.0,32.01562118716424,{}
437,1003,8.0,92.04890004774636,3.0,11.0,27.018512172212592,28.0,16.492422502470642,38.2099463490856,27.29468812791236,23.0,9.0,12.0,5.5,27.5,14.5,7.5,7.071067811865476,7.071067811865476,7.0,33.0,32.0,34.0147027033899,{}
438,1004,7.0,95.0,4.0,12.0,27.0,30.01666203960727,16.278820596099706,39.11521443121589,27.16615541441225,23.5,10.0,10.0,6.0,29.0,15.0,8.0,7.071067811865476,8.0,7.5,34.0,34.0,34.058772731852805,{}
439,1005,6.0,92.0,5.0,11.0,26.0,27.018512172212592,16.278820596099706,38.11823710509184,27.16615541441225,24.0,10.0,10.0,6.0,28.0,15.0,9.0,8.06225774829855,8.06225774829855,8.0,33.0,33.0,34.0147027033899,{}
440,1006,0.0,92.00543462209176,5.0,11.0,26.0,27.0,16.278820596099706,32.14031735997639,21.213203435596427,21.0,8.0,9.0,7.5,23.5,10.5,10.5,7.280109889280518,8.06225774829855,7.5,33.0,34.0,36.05551275463989,{}
441,1007,3.0,95.00526301210895,4.0,10.0,27.018512172212592,28.0,15.132745950421556,32.0624390837628,22.09072203437452,20.5,6.0,7.0,8.5,25.5,13.5,10.5,9.055385138137416,9.219544457292889,8.0,32.0,33.0,32.0624390837628,{}
442,1008,5.0,97.0051545022222,4.0,11.04536101718726,28.0178514522438,28.0,13.152946437965904,33.13608305156178,22.09072203437452,19.5,3.0,4.0,9.5,29.5,16.5,10.5,9.055385138137416,10.198039027185567,9.0,32.0,33.0,33.06055050963308,{}
443,1009,2.0,92.00543462209176,5.0,11.0,27.018512172212592,27.018512172212592,16.492422502470642,34.23448553724738,23.345235059857504,22.0,6.0,7.0,9.5,27.5,14.5,11.5,9.219544457292889,9.055385138137416,9.0,32.0,32.0,35.0142828000232,{}
444,1010,2.23606797749979,92.0,4.0,11.04536101718726,27.018512172212592,28.0178514522438,16.278820596099706,33.13608305156178,22.09072203437452,21.0,6.0,6.0,10.0,27.0,14.0,11.0,9.055385138137416,9.055385138137416,8.5,32.0,33.0,35.05709628591621,{}
445,1011,1.4142135623730951,92.00543462209176,4.0,10.0,27.0,27.018512172212592,17.26267650163207,32.0624390837628,22.09072203437452,21.5,8.0,7.0,9.5,24.5,12.5,11.5,10.198039027185567,10.04987562112089,9.5,32.0,33.0,36.05551275463989,{}
446,1012,1.4142135623730951,90.00555538409837,4.123105625617661,10.0,27.018512172212592,27.018512172212592,18.110770276274835,33.06055050963308,23.08679276123039,22.5,11.0,10.0,7.5,22.5,10.5,9.5,9.055385138137416,10.04987562112089,9.0,32.0,33.0,36.013886210738214,{}
447,1013,1.4142135623730951,88.0056816347672,3.0,10.0,25.019992006393608,26.019223662515376,19.4164878389476,33.13608305156178,23.194827009486403,22.5,10.0,9.0,9.5,23.5,11.5,10.5,9.219544457292889,10.04987562112089,9.5,32.0,32.0,34.0147027033899,{}
448,1014,2.23606797749979,87.00574693662483,4.0,11.04536101718726,25.019992006393608,26.019223662515376,19.1049731745428,36.05551275463989,25.019992006393608,24.0,14.0,13.0,5.5,22.5,9.5,7.5,11.180339887498947,10.198039027185567,9.5,32.0,32.0,35.0142828000232,{}
449,1015,1.4142135623730951,86.00581375697809,3.0,10.0,26.019223662515376,26.019223662515376,21.095023109728988,35.0142828000232,25.019992006393608,24.5,13.0,12.0,8.5,22.5,10.5,9.5,9.219544457292889,9.055385138137416,8.5,32.0,32.0,35.0142828000232,{}
450,1016,2.23606797749979,86.0,4.0,11.04536101718726,24.020824298928627,25.019992006393608,18.110770276274835,35.05709628591621,24.020824298928627,23.0,13.0,13.0,5.0,22.0,9.0,7.0,11.180339887498947,10.04987562112089,9.5,33.0,33.0,33.06055050963308,{}
451,1017,1.0,90.0222194794152,4.0,9.0,26.019223662515376,26.019223662515376,19.235384061671343,32.0624390837628,23.08679276123039,23.0,13.0,11.0,7.0,20.0,9.0,8.0,9.219544457292889,10.04987562112089,9.5,33.0,33.0,38.05259518088089,{}
452,1018,1.4142135623730951,87.0,3.0,11.0,25.0,25.0,19.235384061671343,32.0624390837628,21.095023109728988,21.5,12.0,12.0,7.0,20.0,8.0,8.0,10.198039027185567,10.04987562112089,9.5,33.0,33.0,35.0142828000232,{}
453,1019,1.0,86.00581375697809,3.0,10.0,26.0,26.0,19.4164878389476,32.14031735997639,22.20360331117452,22.0,12.0,13.0,6.5,19.5,7.5,7.5,10.04987562112089,11.04536101718726,10.5,34.0,33.0,34.0147027033899,{}
454,1020,1.0,87.00574693662483,3.0,11.0,24.0,26.0,19.235384061671343,33.06055050963308,22.09072203437452,22.0,11.0,12.0,7.5,21.5,8.5,8.5,10.198039027185567,11.04536101718726,10.5,33.0,33.0,34.0147027033899,{}
455,1021,1.0,89.00561780022652,4.0,11.0,26.0,27.0,18.24828759089466,33.06055050963308,22.09072203437452,22.0,10.0,11.0,7.5,22.5,9.5,9.5,10.198039027185567,9.055385138137416,9.5,33.0,34.0,36.05551275463989,{}
456,1022,2.23606797749979,91.0,4.0,10.0,26.019223662515376,27.0,17.11724276862369,33.015148038438355,23.021728866442675,22.0,9.0,9.0,8.0,24.0,12.0,9.0,11.180339887498947,12.16552506059644,11.5,34.0,34.0,36.05551275463989,{}
457,1023,4.123105625617661,91.0,4.0,10.04987562112089,28.0,28.0178514522438,15.132745950421556,33.06055050963308,23.021728866442675,21.0,8.0,8.0,7.0,25.0,13.0,9.0,10.198039027185567,11.04536101718726,10.5,33.0,34.0,35.05709628591621,{}
458,1024,2.0,89.00561780022652,5.0,10.0,27.0,28.0178514522438,15.297058540778355,32.14031735997639,22.20360331117452,21.0,9.0,10.0,5.5,22.5,9.5,8.5,10.198039027185567,10.04987562112089,10.0,33.0,33.0,36.05551275463989,{}
459,1025,3.0,93.00537618869136,5.0,11.0,27.0,28.0178514522438,15.132745950421556,34.058772731852805,23.08679276123039,21.5,9.0,8.0,6.5,25.5,12.5,9.5,10.198039027185567,10.04987562112089,10.0,31.0,32.0,35.05709628591621,{}
460,1026,3.1622776601683795,91.0,4.0,10.0,27.018512172212592,27.018512172212592,15.297058540778355,32.0624390837628,22.09072203437452,20.5,7.0,7.0,8.0,25.0,13.0,9.0,10.198039027185567,10.04987562112089,10.0,32.0,33.0,35.0142828000232,{}
461,1027,2.23606797749979,93.00537618869136,6.0,12.041594578792296,27.018512172212592,27.0,14.142135623730953,34.058772731852805,22.02271554554524,21.0,8.0,7.0,6.5,26.5,12.5,9.5,10.198039027185567,11.04536101718726,10.5,31.0,32.0,35.12833614050059,{}
462,1028,3.1622776601683795,94.0,5.0,11.04536101718726,27.0,28.0178514522438,14.142135623730953,33.06055050963308,22.02271554554524,20.5,7.0,7.0,7.0,26.0,13.0,10.0,10.04987562112089,11.04536101718726,10.5,32.0,34.0,36.12478373637688,{}
463,1029,4.0,95.0,5.0,12.041594578792296,28.0,29.0,13.038404810405298,34.058772731852805,22.02271554554524,20.0,4.0,4.0,9.0,30.0,16.0,12.0,10.04987562112089,10.04987562112089,9.5,33.0,34.0,35.12833614050059,{}
464,1030,2.23606797749979,97.0051545022222,5.0,12.0,28.0178514522438,28.0178514522438,14.142135623730953,33.015148038438355,21.02379604162864,20.0,6.0,5.0,8.5,27.5,14.5,11.5,10.198039027185567,11.04536101718726,10.5,31.0,33.0,35.12833614050059,{}
465,1031,2.8284271247461903,96.02083107326244,5.0,12.041594578792296,27.073972741361768,28.0178514522438,14.317821063276352,33.06055050963308,21.02379604162864,20.0,5.0,3.0,10.0,29.0,16.0,12.0,10.198039027185567,11.04536101718726,10.5,31.0,33.0,37.21558813185679,{}
466,1032,4.0,96.00520819205592,5.0990195135927845,11.0,28.0178514522438,28.0178514522438,14.317821063276352,34.058772731852805,23.08679276123039,21.0,6.0,5.0,8.5,28.5,16.5,10.5,10.04987562112089,12.16552506059644,11.0,31.0,35.0,32.14031735997639,{}
467,1033,6.0,99.0050503762308,3.0,12.0,28.0178514522438,29.017236257093817,15.297058540778355,36.12478373637688,24.186773244895647,21.0,6.0,5.0,9.5,30.5,17.5,10.5,10.04987562112089,10.04987562112089,10.0,31.0,35.0,35.12833614050059,{}
468,1034,6.0,96.02083107326244,5.0990195135927845,12.0,28.0178514522438,28.0713376952364,13.92838827718412,36.22154055254967,24.33105012119288,21.0,8.0,6.0,6.0,29.0,16.0,8.0,11.04536101718726,11.180339887498947,11.0,29.0,35.0,36.22154055254967,{}
469,1035,7.071067811865476,99.08077512817508,4.123105625617661,11.04536101718726,28.0713376952364,29.068883707497267,14.317821063276352,36.05551275463989,25.179356624028344,21.5,9.0,5.0,7.0,29.0,16.0,8.0,12.041594578792296,13.152946437965904,12.5,30.0,36.0,33.24154027718932,{}
470,1036,7.0,100.07996802557444,5.0,10.0,29.017236257093817,30.066592756745816,12.16552506059644,34.058772731852805,24.08318915758459,20.5,7.0,3.0,7.0,29.0,18.0,9.0,12.0,12.041594578792296,12.0,30.0,36.0,35.22782990761707,{}
471,1037,8.06225774829855,99.08077512817508,5.0,11.0,27.073972741361768,29.068883707497267,12.36931687685298,36.05551275463989,25.079872407968907,21.0,8.0,4.0,6.0,30.0,18.0,8.0,12.0,13.152946437965904,13.0,29.0,36.0,34.23448553724738,{}
472,1038,6.082762530298219,100.07996802557444,5.0990195135927845,12.041594578792296,28.0178514522438,29.068883707497267,12.36931687685298,35.05709628591621,23.194827009486403,20.0,8.0,4.0,6.0,29.0,17.0,9.0,12.041594578792296,12.16552506059644,11.5,29.0,37.0,34.23448553724738,{}
473,1039,7.0,101.04454463255304,5.0,11.0,28.0178514522438,30.066592756745816,13.152946437965904,36.05551275463989,25.079872407968907,21.5,6.0,3.0,8.5,31.5,19.5,10.5,12.041594578792296,11.180339887498947,11.5,28.0,36.0,35.35533905932738,{}
474,1040,10.0,100.12492197250393,4.0,11.0,28.0713376952364,29.017236257093817,12.16552506059644,37.05401462729781,26.0768096208106,21.0,8.0,3.0,6.5,31.5,19.5,7.5,11.04536101718726,11.180339887498947,11.0,27.0,36.0,34.23448553724738,{}
475,1041,11.04536101718726,103.1746092796091,4.0,11.0,29.068883707497267,30.14962686336267,12.36931687685298,38.05259518088089,27.073972741361768,21.5,9.0,3.0,6.0,32.0,20.0,7.0,12.0,12.16552506059644,12.0,29.0,36.0,32.14031735997639,{}
476,1042,12.041594578792296,100.12492197250393,4.123105625617661,10.04987562112089,29.068883707497267,31.064449134018133,12.16552506059644,38.01315561749642,28.0713376952364,22.0,8.0,3.0,6.5,32.5,21.5,7.5,11.04536101718726,11.180339887498947,11.0,28.0,36.0,33.24154027718932,{}
477,1043,11.0,100.17983829094555,4.0,11.0,28.0713376952364,29.068883707497267,11.180339887498947,37.05401462729781,26.0768096208106,20.5,7.0,1.0,7.0,33.0,21.0,8.0,12.041594578792296,12.16552506059644,11.5,28.0,35.0,35.22782990761707,{}
478,1044,10.0,102.07840124139877,4.123105625617661,11.04536101718726,27.073972741361768,29.154759474226505,11.180339887498947,36.0,25.019992006393608,20.0,5.0,1.0,8.0,33.0,21.0,9.0,12.041594578792296,13.038404810405298,12.5,30.0,38.0,33.24154027718932,{}
479,1045,8.06225774829855,97.12878049270464,4.0,11.0,28.0713376952364,29.068883707497267,13.152946437965904,36.013886210738214,25.019992006393608,21.0,8.0,3.0,7.5,30.5,18.5,8.5,12.041594578792296,12.36931687685298,12.0,29.0,37.0,34.23448553724738,{}
480,1046,7.071067811865476,98.18350166906862,4.123105625617661,11.04536101718726,28.0713376952364,28.284271247461906,12.041594578792296,34.058772731852805,23.021728866442675,19.5,7.0,1.0,8.0,30.0,19.0,9.0,12.041594578792296,12.16552506059644,12.0,30.0,38.0,34.23448553724738,{}
481,1047,8.06225774829855,96.1873172512884,4.0,10.04987562112089,28.0713376952364,29.154759474226505,13.341664064126334,35.0142828000232,25.079872407968907,21.0,10.0,4.0,6.0,28.0,17.0,7.0,11.04536101718726,11.04536101718726,11.5,30.0,38.0,36.345563690772494,{}
482,1048,6.0,99.04544411531506,4.123105625617661,11.0,29.017236257093817,30.066592756745816,15.132745950421556,36.013886210738214,25.019992006393608,22.0,9.0,6.0,7.5,28.5,16.5,8.5,10.04987562112089,12.041594578792296,11.5,28.0,36.0,33.13608305156178,{}
483,1049,9.219544457292889,102.1763181955584,4.0,10.0,29.068883707497267,30.066592756745816,14.142135623730953,37.0,27.0,22.5,11.0,5.0,6.0,29.0,18.0,7.0,11.04536101718726,11.180339887498947,11.0,29.0,36.0,35.22782990761707,{}
484,1050,6.082762530298219,100.17983829094555,4.0,10.04987562112089,27.073972741361768,29.154759474226505,15.132745950421556,35.0,25.019992006393608,22.0,10.0,4.0,8.0,28.0,17.0,9.0,12.041594578792296,12.041594578792296,12.0,29.0,38.0,35.35533905932738,{}
485,1051,4.123105625617661,97.18538984847466,4.123105625617661,11.0,26.0768096208106,27.073972741361768,16.278820596099706,35.0142828000232,24.020824298928627,22.0,11.0,5.0,8.0,27.0,15.0,9.0,12.0,11.180339887498947,11.5,30.0,38.0,36.345563690772494,{}
486,1052,4.123105625617661,95.08417323613853,5.0990195135927845,11.0,27.073972741361768,28.0713376952364,15.297058540778355,35.0142828000232,24.020824298928627,22.0,11.0,7.0,6.0,26.0,14.0,8.0,11.0,12.16552506059644,12.0,27.0,36.0,34.23448553724738,{}
487,1053,1.4142135623730951,99.12618221237013,7.0,11.0,28.0713376952364,29.068883707497267,13.152946437965904,32.01562118716424,21.02379604162864,20.5,8.0,3.0,7.5,26.5,14.5,11.5,12.041594578792296,12.16552506059644,11.5,30.0,38.0,34.36568055487916,{}
488,1054,5.0990195135927845,104.17293314484334,6.082762530298219,11.0,29.068883707497267,30.14962686336267,13.152946437965904,35.0,24.0,21.5,9.0,3.0,7.0,29.0,16.0,9.0,11.0,11.180339887498947,11.0,29.0,38.0,35.35533905932738,{}
489,1055,6.082762530298219,99.12618221237013,5.0,11.0,27.018512172212592,28.0178514522438,15.132745950421556,37.01351104664349,26.019223662515376,23.0,11.0,6.0,6.5,28.5,16.5,9.5,12.041594578792296,12.16552506059644,11.5,30.0,37.0,36.345563690772494,{}
490,1056,10.04987562112089,97.082439194738,4.123105625617661,11.0,28.0178514522438,30.01666203960727,14.317821063276352,39.01281840626232,28.0178514522438,23.0,10.0,6.0,6.0,31.0,18.0,8.0,12.041594578792296,12.16552506059644,11.5,31.0,38.0,34.132096331752024,{}
491,1057,11.0,96.04686356149271,4.0,13.0,28.0178514522438,30.066592756745816,14.317821063276352,42.1070065428546,29.154759474226505,23.5,10.0,7.0,5.5,33.5,19.5,6.5,5.0,5.0,5.0,32.0,37.0,35.12833614050059,{}
492,1058,13.038404810405298,94.02127418834527,4.0,13.0,26.0,27.073972741361768,14.317821063276352,44.181444068749045,31.25699921617557,24.5,10.0,8.0,5.0,35.0,20.0,7.0,1.0,3.1622776601683795,3.0,34.0,40.0,35.22782990761707,{}
493,1059,12.041594578792296,98.02040603874276,5.0,13.0,27.018512172212592,28.0713376952364,14.560219778561036,44.28317965096906,31.400636936215164,25.0,10.0,8.0,5.0,35.0,21.0,7.0,1.0,1.0,1.0,33.0,39.0,34.132096331752024,{}
494,1060,14.0356688476182,93.02150289046077,6.0,13.038404810405298,27.018512172212592,28.0178514522438,14.317821063276352,46.69047011971501,33.734255586866,26.0,12.0,10.0,2.0,35.0,21.0,5.0,2.0,3.0,3.0,35.0,41.0,33.37663853655727,{}
495,1061,14.142135623730953,92.00543462209176,5.0,12.041594578792296,26.0,28.0178514522438,13.601470508735444,43.41658669218482,31.6227766016838,23.0,10.0,11.0,0.5,31.5,18.5,4.5,3.1622776601683795,4.0,3.5,36.0,40.0,34.36568055487916,{}
496,1062,14.317821063276352,95.08417323613853,5.0,13.038404810405298,26.0,29.0,14.7648230602334,46.32493928760188,33.52610922848042,25.0,7.0,11.0,4.0,36.0,21.0,7.0,4.0,5.0990195135927845,5.0,35.0,36.0,29.068883707497267,{}
497,1063,13.341664064126334,93.08598175880188,4.123105625617661,11.180339887498947,26.019223662515376,28.0178514522438,14.7648230602334,43.01162633521314,31.95309061734092,23.5,9.0,13.0,2.0,30.0,18.0,5.0,2.0,4.123105625617661,4.0,37.0,37.0,33.24154027718932,{}
498,1064,14.560219778561036,89.20201791439474,5.0990195135927845,11.180339887498947,25.079872407968907,26.019223662515376,15.811388300841896,45.880278987817846,34.92849839314596,25.0,10.0,16.0,0.0,30.0,17.0,5.0,3.1622776601683795,4.123105625617661,4.0,37.0,36.0,32.14031735997639,{}
499,1065,14.317821063276352,87.20665112249179,4.47213595499958,12.36931687685298,26.019223662515376,27.073972741361768,16.401219466856727,46.61544808322666,34.438350715445125,24.0,10.0,16.0,0.0,30.0,16.0,3.0,3.0,4.123105625617661,4.0,36.0,34.0,28.0713376952364,{}
500,1066,13.341664064126334,86.37129152675674,5.0990195135927845,11.40175425099138,24.020824298928627,25.019992006393608,17.804493814764857,46.61544808322666,35.34119409414458,25.5,12.0,20.0,2.0,27.0,14.0,2.0,4.123105625617661,5.0,5.0,37.0,34.0,29.068883707497267,{}
501,1067,13.601470508735444,88.68483523128404,4.47213595499958,12.649110640673518,23.194827009486403,26.1725046566048,17.0,47.53945729601885,34.92849839314596,25.5,8.0,19.0,1.5,30.5,15.5,5.5,4.123105625617661,6.082762530298219,5.5,39.0,35.0,28.0713376952364,{}
502,1068,14.560219778561036,88.20430828479978,5.385164807134504,12.16552506059644,26.019223662515376,27.0,14.422205101855956,45.880278987817846,34.0147027033899,24.0,9.0,15.0,0.0,31.0,18.0,4.0,4.0,4.123105625617661,4.5,39.0,35.0,30.066592756745816,{}
503,1069,14.866068747318506,88.45903006477066,4.47213595499958,11.40175425099138,24.08318915758459,26.019223662515376,16.64331697709324,47.01063709417264,35.77708763999664,25.0,8.0,17.0,1.5,30.5,17.5,4.5,5.0990195135927845,5.0990195135927845,5.5,39.0,34.0,26.019223662515376,{}
504,1070,15.811388300841896,87.36704184073076,5.0990195135927845,13.341664064126334,24.186773244895647,27.073972741361768,17.029386365926403,50.15974481593781,37.12142238654117,25.5,9.0,17.0,0.0,33.0,18.0,5.0,3.1622776601683795,5.0,5.0,39.0,35.0,28.0178514522438,{}
505,1071,15.811388300841896,87.28115489611719,6.082762530298219,13.341664064126334,24.08318915758459,27.018512172212592,16.97056274847714,50.566787519082126,37.589892258425,25.5,10.0,17.0,1.5,32.5,17.5,3.5,4.0,5.0,5.5,38.0,33.0,28.0713376952364,{}
506,1072,16.492422502470642,87.36704184073076,5.385164807134504,13.601470508735444,24.08318915758459,26.0768096208106,16.278820596099706,50.566787519082126,37.12142238654117,25.0,10.0,18.0,2.0,32.0,17.0,2.0,4.0,6.0,5.5,37.0,33.0,27.16615541441225,{}
