,video_id,frame_seq,time_seconds,m1,m3,m4,m5,m6,m7,m8,m9,m10,m11,m12,m13,m14,m15,m16,m17,e1,e2,e3,b1,b2,b3
0,250,0,0.0,24.777790848705763,159.32512328551678,21.238106441747846,31.85715966262171,42.476212883495464,46.15183819899754,35.39684406957974,113.26990102265506,81.41274136003335,69.02384593568047,67.25400373220145,70.79368813915937,33.62700186610061,44.24605508697471,8.849211017394964,12.388895424352768,17.698422034789814,17.698422034789928,17.698422034789928,67.25400373220145,67.25400373220145,77.87305695307532
1,250,1,0.0333666666666666,24.99103639195937,160.81525748680727,21.420888335965174,39.27162861593604,42.84177667193035,46.41192472792454,35.701480559941956,121.38503390380254,82.1134052878665,69.61788709188681,64.26266500789552,71.40296111988391,32.13133250394776,53.55222083991282,14.280592223976782,10.710444167982587,18.20425460392975,17.850740279970978,17.850740279970978,67.8328130638896,67.8328130638896,74.97310917587811
2,250,2,0.0667333333333332,25.249788139385192,164.41470848423128,21.720689049890694,32.13773355038927,42.99883978833749,46.5583088576576,39.44142992646899,117.89244786510992,85.77498344218719,73.20261530922005,67.84632638415519,74.98804495090837,32.13773355038927,46.42117068389564,10.712577850129833,10.712577850129719,14.723029999579088,17.854296416883017,17.854296416883017,67.84632638415519,67.84632638415519,74.98804495090826
3,250,3,0.1000999999999998,21.620744245371043,162.19561531375768,21.620744245371043,32.43111636805668,43.391372782419104,46.84494586497067,39.80148760839957,115.36692625739359,82.95781865127219,72.06914748457018,68.46569011034171,72.06914748457018,30.629387680942386,45.04321717785638,12.6121008097997,9.008643435571344,18.374099467590916,18.017286871142574,18.017286871142574,68.46569011034182,68.46569011034182,75.75835288048259
4,250,4,0.1334666666666664,18.01728687114246,165.79820260294105,25.224201619599626,36.03457374228515,43.39137278241912,46.844945864970214,36.214298417007406,115.36692625739357,79.35791673313183,70.267418797456,64.86223273611324,68.46569011034171,30.629387680942386,48.646674552084846,12.6121008097997,5.405186061342761,18.01728687114246,18.017286871142574,18.017286871142574,72.0691474845703,72.0691474845703,79.27606223302746
5,250,5,0.166833333333333,21.427717343339054,160.74755613541151,21.723286027647447,32.14157601500858,46.42672091056784,46.42672091056784,35.8909823575154,110.70987294058523,78.56829692557665,67.85443825390712,64.28315203001728,67.85443825390712,30.355932903063717,44.64107779862309,12.499501783614505,8.92821555972455,17.856431119449212,18.210058144239376,17.856431119449212,71.42572447779696,71.42572447779696,74.99701070168658
6,250,6,0.2001999999999996,21.61811275733021,151.32678930131124,21.618112757330096,32.4271691359952,43.23622551466042,43.23622551466042,36.030187928883606,111.69358257953911,79.26641344354391,68.4573570648788,68.4573570648788,68.4573570648788,32.4271691359952,43.236225514660305,7.2060375857766985,10.809056378665105,18.015093964441803,18.015093964441803,18.015093964441803,75.66339465065562,68.45735706487892,79.26641344354402
7,250,7,0.2335666666666662,21.425155700259552,153.5884651922211,21.425155700259552,32.13773355038927,42.850311400518876,42.850311400518876,32.13773355038927,107.12577850129765,74.98804495090837,64.27546710077854,64.27546710077854,67.84632638415519,33.923163192077595,41.06488175883078,8.927148208441508,12.498007491818043,21.425155700259552,17.854296416882903,17.854296416882903,74.98804495090826,71.41718566753173,78.64001825097209
8,250,8,0.2669333333333328,21.23145706574212,148.62019946019427,21.23145706574212,31.847185598613123,42.46291413148401,46.001490309107794,35.38576177623679,109.69586150633415,77.84867590772103,67.23294737485003,67.23294737484991,67.23294737484991,31.847185598613123,42.46291413148424,10.615728532871117,10.615728532871003,17.692880888118452,17.692880888118452,17.692880888118452,74.31009973009725,67.23294737484991,74.31009973009714
9,250,9,0.3002999999999994,25.712973861329026,160.04131697938465,22.119136473811626,32.928673229590615,43.63636363636397,43.63636363636397,32.72727272727275,112.78590850378782,80.0,67.27272727272725,65.4545454545455,69.09090909090912,34.545454545454504,45.454545454545496,9.090909090909122,12.727272727272748,14.545454545454504,18.18181818181813,18.18181818181813,76.36363636363637,69.09090909090912,80.32989830681645
10,250,10,0.333666666666666,31.85715966262171,155.78633239976,17.698422034789928,28.317475255663794,38.93652847653766,42.47621288349592,35.39684406957963,113.26990102265506,84.95242576699127,69.02384593568036,67.25400373220145,70.79368813915937,33.62700186610073,44.24605508697471,12.388895424352881,15.928579831310799,21.531059679724887,17.698422034789928,19.468264238268944,74.3333725461174,67.25400373220145,77.95346281543735
11,250,11,0.3670333333333326,32.14285714285711,157.30511103960905,21.428571428571445,32.142857142857224,39.28571428571422,43.005694924258464,32.14285714285711,117.85714285714289,85.71428571428567,69.64285714285711,64.28571428571433,71.42857142857144,35.71428571428578,50.0,17.857142857142776,14.285714285714334,18.210783977116982,17.85714285714289,17.85714285714289,75.0,64.28571428571433,78.89543583705174
12,250,12,0.4003999999999992,35.70859283376592,153.92019012551728,21.425155700259438,32.13773355038927,39.27945211714223,39.27945211714223,32.137733550389385,121.40921563480401,89.27148208441474,71.41718566753173,60.70460781740201,71.41718566753184,33.923163192077595,55.34831889233703,19.639726058571227,12.498007491818157,17.854296416882903,21.720689049890584,19.639726058571227,74.98804495090837,64.27546710077854,71.77338331691901
13,250,13,0.4337666666666658,21.427717343339168,146.46628097529506,21.427717343339054,35.712862238898424,35.89098235751563,35.71286223889865,35.8909823575154,114.33694689499553,78.6494206404505,67.854438253907,67.854438253907,71.42572447779685,33.927219126953446,44.6410777986232,8.928215559724777,8.92821555972455,21.427717343339168,17.856431119449212,17.856431119449212,78.56829692557665,67.85443825390712,71.78196471503081
14,250,14,0.4671333333333324,7.2072072072072615,144.1891821530997,25.22522522522513,32.43243243243239,32.43243243243205,36.036036036035966,43.24324324324334,108.10810810810813,75.67567567567573,72.07207207207216,72.07207207207216,75.67567567567573,30.63063063063055,34.234234234234236,1.80180180180173,5.405405405405418,21.919864974047663,18.018018018017983,19.819819819819827,79.27927927927931,64.8648648648649,72.4315360080788
15,250,15,0.5004999999999991,5.005869694840452,141.63161542211944,24.777790848705763,31.85715966262171,35.57338802794881,35.396844069579856,42.62344456546075,102.6508478017812,70.79368813915949,69.02384593568047,67.25400373220145,70.79368813915949,26.54763305218478,33.62700186610073,1.7698422034790156,1.7698422034790156,21.531059679724812,21.238106441747846,19.46826423826883,77.87305695307532,67.25400373220134,74.66972436592587
16,250,16,0.5338666666666656,6.9562587475518285,142.60330432481214,20.868776242655485,34.78129373775914,34.781293737758915,38.41719459783831,41.73755248531086,104.34388121327731,69.56258747551817,66.08445810174226,69.56258747551817,69.56258747551817,27.825034990207314,34.78129373775914,0.0,6.9562587475518285,17.735049547683662,17.39064686887957,17.39064686887957,76.51884622307,66.08445810174226,73.37121951842977
17,250,17,0.5672333333333321,10.526315789473642,150.91798714109868,24.810764252159625,35.08771929824559,38.596491228070136,38.596491228070136,38.755652691885224,108.77192982456143,73.68421052631584,68.42105263157896,66.66666666666674,70.17543859649129,29.82456140350871,40.350877192982466,5.263157894736878,5.263157894736764,21.0526315789474,17.543859649122737,17.543859649122737,73.68421052631584,66.66666666666674,73.76770540922334
18,250,18,0.6005999999999987,21.343026422098987,154.42583217309073,24.810764252159625,35.0877192982457,38.596491228070136,42.10526315789457,35.08771929824559,115.78947368421052,80.70175438596482,70.17543859649118,66.66666666666663,70.17543859649118,33.33333333333337,47.36842105263156,8.771929824561312,8.771929824561425,17.543859649122737,21.343026422099026,19.298245614035068,73.68421052631584,66.66666666666674,77.27268612472007
19,250,19,0.6339666666666652,24.774880892636816,152.22970277907248,21.23561219368878,35.39268698948126,38.9319556884293,42.47122438737733,38.93195568842941,120.33513576423627,84.94244877475501,72.55500832843666,67.24610528001438,70.78537397896253,30.083783941058982,51.319396134747876,15.926709145266614,8.848171747370202,21.528531026619074,21.528531026618964,21.235612193688667,74.32464267791067,67.24610528001438,74.32464267791102
20,250,20,0.6673333333333318,18.046800159784624,145.15317205311547,24.774880892636816,32.04944117632978,35.39268698948126,38.9319556884293,39.09250051671272,113.31188594511079,81.40318007580686,72.55500832843654,67.24610528001438,70.78537397896253,30.083783941059096,44.240858736851465,8.848171747370202,5.30890304842228,21.528531026619,21.23561219368878,21.23561219368878,74.32464267791056,70.78537397896241,74.40886326320567
21,250,21,0.7006999999999983,14.159292035398266,141.7698010230143,24.778761061946852,35.39823008849555,35.39823008849544,38.93805309734489,39.098623069689395,113.32963252093532,77.95651520546984,70.7964601769911,67.25663716814154,74.33628318584067,31.858407079645986,42.477876106194685,3.5398230088495666,7.079646017699133,21.531902762117518,21.531902762117518,23.008849557522012,74.33628318584078,70.79646017699122,77.87610619469069
22,250,22,0.7340666666666649,10.809056378664991,147.89942309188658,25.2211315502185,32.62672282955113,39.79664331916202,39.633206721771785,39.79664331916227,108.33049874067625,75.74913223583985,70.25886646132301,64.85433827199051,72.06037585776721,28.824150343106908,39.6332067217719,3.6030187928882924,3.603018792888406,21.618112757330096,21.61811275733021,23.419622153774412,72.06037585776721,72.06037585776721,75.74913223583972
23,250,23,0.7674333333333314,10.806864539165986,147.86943233357505,21.61372907833197,36.202548157639924,39.62516997694229,43.22745815666394,43.37729381618795,111.9030979250486,75.73377197364492,70.24461950457885,64.84118723499591,72.0457635944399,25.216017258053967,43.22745815666383,3.602288179721995,3.602288179721995,21.91186356294915,21.61372907833197,21.61372907833197,75.6480517741619,72.0457635944399,75.73377197364503
24,250,24,0.800799999999998,18.34805959131297,133.33333333333326,25.188453740333557,39.58185587766695,35.983505343333945,35.983505343333945,36.16297531124417,118.96344959169335,79.49016143620143,70.16783541950053,68.36866015233386,75.56536122100056,35.983505343333604,46.778556946333765,7.196701068666812,10.795051603000047,25.44418063913359,25.188453740333557,25.188453740333557,82.76206228966737,75.56536122100067,79.16371175533413
25,250,25,0.8341666666666645,35.9995320091258,133.63538334285673,25.199672406388117,36.17908191102747,36.17908191102733,39.762782749058374,36.17908191102747,133.3927185642024,97.26537937825229,79.19897042007676,75.59901721916424,86.39887682190192,44.999415011407336,52.19932141323238,12.599836203193945,16.199789404106696,29.02375058756958,28.79962560730064,28.79962560730064,82.7989236209894,71.9990640182516,86.4738433234868
26,250,26,0.867533333333331,50.39934481277612,133.9743756191225,25.45551320319511,35.9995320091258,32.598962713533716,39.76278274905792,32.399578808213164,144.0431204225524,108.05857859019532,82.79892362098929,79.19897042007676,93.59878322372708,53.99929801368876,57.59925121460128,17.999766004562844,25.199672406388117,32.39957880821328,28.79962560730064,28.79962560730064,86.39887682190192,71.9990640182516,86.4738433234868
27,250,27,0.9008999999999976,39.62516997694195,130.13188144856383,29.042575788567948,36.02288179721995,36.022881797219725,39.78857343297567,32.42059361749796,136.93434115484013,100.92837510762459,81.05148404374484,82.85262813360589,93.65949267277188,55.83546678569087,48.63089042624699,9.005720449305045,27.017161347914907,28.81830543777596,28.81830543777596,28.81830543777596,86.45491631332789,68.44347541471791,86.75458763237589
28,250,28,0.934266666666664,28.810128540585993,130.09495786823584,28.810128540585993,32.61085122678133,32.61085122678144,39.77728383529299,32.61085122678144,122.65470254241056,90.10364822357928,75.62658741903829,75.62658741903829,86.43038562175798,48.617091912238834,41.414559777092336,5.401899101359845,19.80696337165284,29.03433525697708,28.810128540585993,28.810128540585993,82.82911955418479,68.42405528389179,79.3096582099903
29,250,29,0.9676333333333308,18.00633033786619,133.68411882070453,28.810128540585993,32.61085122678144,32.4113946081593,36.19227605767441,36.1922760576743,115.46537391598929,82.9073709835915,73.82595438525152,75.62658741903817,86.43038562175798,45.01582584466564,34.21202764194584,1.800633033786653,16.20569730407965,28.810128540585993,29.03433525697708,27.00949550679934,82.82911955418479,68.42405528389179,79.3096582099903
30,250,30,1.0009999999999972,10.609088514374434,131.03644033130854,28.290902704998416,32.023127487416744,31.82726554312285,38.89999121937262,35.54000667430826,106.32638129398818,74.3477710379308,68.9590753434336,74.26361960062081,81.33634527687036,42.436354057497624,28.290902704998416,3.5363628381247736,14.145451352499208,28.511068692466715,24.754539866873642,22.986358447811313,77.79998243874559,70.72725676249604,81.33634527687036
