,video_id,frame_seq,gap,time_seconds,m1,m3,m4,m5,m6,m7,m8,m9,m10,m11,m12,m13,m14,m15,m16,m17,e1,e2,e3,b1,b2,b3,label_measures
0,94,0,0,0.0,39.26214125583124,187.8223264828912,11.110431575609608,20.89406790622284,51.54616478014984,53.99938494855665,28.24632408461626,99.45043513385696,78.56261509022669,58.89321188374692,38.03519934158652,31.900489770362924,6.74818052834604,64.41445049784818,39.87561221295363,0.6134709571223311,25.88236803528764,24.661227264998985,25.15230924201694,72.38957294043894,76.07039868317312,88.41646844119134,{}
1,94,1,0,0.0417083333333333,48.147918820472455,190.26679597804835,11.179434577414195,22.25638334796043,49.39791045627244,53.10052033652149,29.732190679422256,111.22026660114668,88.96559218043453,64.81450610448223,46.91335679943478,39.50598467320822,13.580182231415336,67.90091115707656,41.97510871528368,6.17281010518883,26.043114364185225,25.95518013103866,25.92580244179288,75.30828328330315,70.37003519915211,86.42815932292584,{}
2,94,8,1,0.3336666666666664,9.877295966495934,165.94038125583558,14.701533403960523,22.18800784900916,44.172610429938594,47.84276937650568,32.06466262286564,78.75199154693091,56.5685424949238,51.45536691386184,49.0051113465351,35.528705726237945,10.41358616113871,36.14126961806966,12.863841728465502,0.6125638918317122,26.980640686562857,27.20225131396008,27.565375132426027,68.60715588514915,82.08356150544628,86.07340119918722,{}
3,94,9,0,0.3753749999999997,17.577536200887245,170.931937159397,14.966732766298358,26.21941566927152,47.296312744113024,49.778887359259855,28.69502501743433,87.43830498539927,61.21930592532209,52.202619185637445,49.71678017679761,34.801746123758335,13.67211454861939,44.74510215911778,17.40087306187911,1.2429195044199446,26.130886157086945,24.982372852971253,25.47984984060884,67.11765323867678,82.03268729171606,85.90543154464272,{}
4,94,10,0,0.417083333333333,19.75971058705931,162.57122868711545,15.827428522325896,25.11150789560601,44.86310442301311,48.91603493366897,26.582022041662604,87.23671757161942,62.12522064169162,51.91865766124937,51.26145946300568,34.17430630867045,16.429954956091535,44.03227928232536,19.05874774906624,4.600387387705609,25.008096991370405,23.8047311887454,23.65913513677185,63.09102703139155,77.54938739275212,79.1371426116294,{}
5,94,11,0,0.4587916666666662,21.4725300873312,161.79650886176722,16.035427665850133,25.336745624851066,45.35503856699586,49.43347657470718,28.09160489269865,90.90536277904329,65.5906514299209,54.5984611919888,51.93512162164791,37.28675398477287,16.645872314630765,45.94260758838084,19.30921188497166,4.660844248096623,22.63838634789778,22.988184708395533,21.97255145531261,58.5934705475002,74.57350796954572,77.52331409529711,{}
6,94,12,0,0.5004999999999996,21.35172238029664,165.80215420626644,16.038005330209824,24.12144241566321,46.691980320067685,49.35164360581536,29.42227588026104,90.91997564242466,66.80695396744198,55.93912163885284,53.27535394176459,38.62463160777935,16.6485481068014,44.61810892622782,19.312315803889703,4.661593469904403,21.310141576705803,21.681498225292493,21.31014157670586,59.93477318448515,74.58549551847042,81.63698365109805,{}
7,94,13,0,0.542208333333333,24.078512823616794,175.82768604852774,16.083182145006827,22.862398452853903,48.15702564723359,50.91207367896912,28.175263401113977,91.17608447992494,68.32660476831857,56.09669430990209,54.76105873109492,37.39779620660141,18.03108031389712,44.74379189004094,22.03798705031869,4.674724525825184,17.363262524493507,17.567543228692593,17.363262524493507,58.76796546751652,73.45995683439565,81.64874773361025,{}
8,94,14,0,0.5839166666666663,22.460375327431542,172.07213458406122,17.14594248920406,26.41132544425528,46.23745821206207,50.18827757971901,27.72867675650156,93.72678052204358,67.31655373365074,56.054042753167096,52.75674612062784,38.24864093745521,17.805401815711946,48.14053083507287,21.76215777475897,4.616215285554972,10.633462129651251,10.63346212965131,10.551349224125545,59.35133938570635,76.49728187491041,75.59371645580696,{}
9,94,15,0,0.6256249999999997,9.447741158641696,164.88406182451567,18.705573152478166,26.755629319183413,46.78301630695653,49.45420989378915,30.759616671982943,85.6050854059313,58.84964523620208,54.11255090538327,50.77226998529784,37.41114630495633,13.361123680341564,41.41948340905879,13.361123680341564,2.6722247360683014,9.727044863715433,9.727044863715433,10.02084276025613,58.7889441935028,78.83062971401512,77.90806944114995,{}
10,94,16,0,0.667333333333333,5.918688279934145,162.24116751185207,18.5756313192052,25.284647415561903,43.75428090704202,47.71799044466249,29.236163416267672,78.6317284787931,53.35033519197528,50.29143945994287,48.967980526786505,33.08647332890979,11.91113039840758,37.05685012837898,11.911130398407522,2.6469178663127764,10.670067038395011,10.670067038395068,10.587671465251162,59.55565199203764,78.08407705622713,77.31764435415585,{}
11,94,17,0,0.7090416666666663,10.766433424506529,158.7552394317334,18.325275646275003,24.841149478390893,43.164576457603744,45.77131020773793,27.54212267667775,81.32672161386371,56.52000559333949,50.9192513704827,48.30800771045796,32.64054575030946,13.056218300123817,40.47427673038362,14.361840130136102,1.305621830012342,14.42106446440741,14.59729582407677,13.709029215129988,58.752982350557005,77.03168797073027,77.42898871022479,{}
12,94,18,0,0.7507499999999997,21.1940050638312,157.20642472542033,15.827428522325896,25.111507895606124,44.86310442301311,47.4822855669777,29.035965437785023,91.1588626352125,66.04760150773552,55.2046486524676,52.57585585949301,36.8030991016451,15.7727567578479,46.00387387705638,21.030342343797145,3.9431891894619753,15.7727567578479,16.2581855299454,15.7727567578479,57.83344144544225,74.92059459977747,78.09328870945946,{}
13,94,19,0,0.792458333333333,25.118560699535465,162.61688835061582,15.831873804964369,23.81141697210682,44.77930130551998,48.8059675850209,29.19253287742402,93.93905598991606,70.12767711586041,57.19230173459488,55.22015339891925,38.12820115639664,17.749335021081208,46.67417727765792,21.69363169243252,5.916445007027107,17.09195224252261,16.26275179475389,15.777186685405525,57.84968451315348,72.31210564144186,77.84922155331016,{}
14,94,20,0,0.8341666666666664,21.70534515335579,166.11607668492775,17.65324689863288,27.2139020409328,48.91087028905928,51.521015617319,30.275068662869227,96.73820124308789,69.52727359190489,58.21951593613835,58.21951593613835,40.61826693218956,19.632162350558247,46.711006972018026,18.27822011948536,6.0927400398284135,18.9551912350218,19.147634658531025,18.9551912350218,56.8655737050654,74.4668227090142,81.78752504500595,{}
15,94,21,0,0.8758749999999997,3.741648617295276,162.04513850370932,18.520215770747257,26.589409281761668,43.73489492414945,46.37607053650215,34.62288810722921,82.5391910875316,55.95297422548832,54.23777475718845,54.23777475718845,39.68617665160133,12.567289273007075,35.05612270891447,8.598671607846939,1.9843088325800409,18.56740111033176,20.01869430040783,19.18165204827397,58.20639242234861,74.08086308298914,74.50485876645541,{}
16,94,22,0,0.9175833333333332,2.9683099223394893,161.4116607993065,17.257091188059633,25.361251093732182,42.49973032840513,45.21194975284475,32.10718087939114,77.40405274041107,52.04286243666112,50.44380501125119,50.44380501125119,34.51418237611921,10.6197484234213,34.514182376119265,9.292279870493644,3.982405658782966,19.912028293914943,18.77324031174088,18.58455974098723,57.08114777588952,73.01077041102144,76.08375328119641,{}
17,94,23,0,0.9592916666666664,20.203726100374183,165.13193095892504,16.076730520602734,25.40200611844405,46.89983457528263,50.891650756810776,29.64402635252293,91.26654739926802,65.90851030463678,55.406641723353005,49.398692620820725,32.04239521350536,11.348348304783087,50.06624252110214,23.364246509847703,0.6675499002813012,21.36159680900357,19.115720046072973,19.35894710815944,58.74439122475985,74.7655888315125,77.7229928471673,{}
18,94,24,0,1.0009999999999997,41.5089328181254,172.1838401339225,13.449765699590085,25.568218213022543,48.34585974193799,53.79906279836045,25.74274732588728,106.14006631821984,80.57643290323006,59.554425964627626,48.17886145453019,30.780939262616585,14.05216792423795,66.24593449997906,39.479900358573445,6.022357681816288,24.126577134414468,21.78597339285117,22.081978166659724,60.22357681816277,74.94489559593592,73.9101275225464,{}
19,94,25,0,1.042708333333333,37.53943562680298,176.13672260439054,12.1327664274484,22.81665153151689,49.7367633071425,53.744117101029886,25.7723352902607,98.13812898943732,75.32951280544917,56.27327630789705,44.214717099061886,29.47647806604129,11.388639252788664,60.96271600022169,36.84559758255159,4.689439692324754,24.11711841767016,21.6042694254994,22.107358549531,60.2927960441753,75.03103507719595,80.66904510953017,{}
20,94,26,0,1.084416666666666,36.7997092330352,179.17142960656457,12.333600679141869,21.96188591052796,53.18851668789647,55.90915258698961,26.198945965028663,97.17215814218328,75.2199216625308,56.52376131730927,47.67064207483924,31.32642193489432,13.620183449954084,57.20477048980695,34.050458624885096,5.448073379981679,25.87834855491269,23.512082078944,23.835321037419646,58.56678883480242,74.91100897474729,79.2900590960843,{}
21,94,27,0,1.1261249999999994,8.2548359249665,171.5306010664715,16.34148744551154,25.820334771637285,44.86603228166936,48.8739647831496,34.17056914391525,84.53244805665597,58.74790403657934,54.283466657454994,48.8551199917095,35.284253327345766,8.142519998618354,42.06968665952752,14.927953330800053,4.071259999309064,25.820334771637285,23.426948107369427,24.42755999585478,61.068899989636805,78.71102665330966,81.83131322860277,{}
22,94,28,0,1.1678333333333326,3.802352661197024,164.5588649349827,17.47635078276835,24.23533802125635,41.69605212311447,45.727144324309286,35.184605557112526,79.72482691915529,55.52606719680313,53.77338702390256,47.05171364591473,33.60836688993908,5.3773387023902615,38.9857055923294,13.443346755975654,8.066008053585392,26.88669351195125,25.683477914899186,26.214526174152468,59.15072572629282,76.62707650906111,78.38750823981854,{}
23,94,29,0,1.2095416666666658,8.121095041071516,160.7673052060276,16.021197606752708,25.507045875088373,41.40962208616549,45.41302279549616,35.120992332280906,84.62890024362146,59.122464320292,54.73909182307165,46.72849301969535,33.377495014068074,5.340399202250978,44.05829341856986,17.35629740731531,8.010598803376297,26.73535267136961,25.68115742448483,26.034446110973136,58.74439122475985,74.7655888315125,79.05324231164681,{}
24,94,30,0,1.251249999999999,28.16267601463068,168.21505462896104,12.130248853637022,24.26049770727416,45.62383405945573,49.6361459616374,29.953514518655275,94.37971700470136,70.1193797424486,55.5918185418542,46.88466624011801,30.80992352922044,9.376933248023532,54.92203759556685,29.470361636645634,1.3395618925748067,28.16267601463062,26.0095871966962,26.121456905208618,60.28028516586602,75.01546598418878,78.1092095577158,{}
25,94,31,0,1.2929583333333323,32.94815992145434,176.47436026423753,9.699029066674584,21.989219796483457,49.45553847387732,55.02008800818914,29.322524560529523,93.76508446959944,71.79902390021526,54.86599379176829,48.00774456779726,30.176296585472585,10.2873738359566,54.18016886937107,32.23377135266378,4.800774456779777,27.4672667367234,25.03026084181069,25.375522128692808,58.98094332615091,75.44074146368138,79.98024261567036,{}
26,94,32,0,1.3346666666666656,35.07733174784255,174.9190294286625,8.206426123792975,21.62816946896425,49.99061398735139,52.771436653529214,27.28442816840132,91.98838099261724,70.36191553803894,52.61599762176383,44.521228756877065,26.982562882955847,8.769332936960609,55.98881798213336,33.05363953162089,4.721948504517286,26.982562882955847,24.61927837137893,24.958870666734185,60.71076648665058,76.9003042164241,75.9835869703454,{}
27,94,33,0,1.3763749999999988,41.50780217410272,176.2655034447561,8.144583992892313,20.262162105195163,49.613893835683385,53.70887633705633,25.75543601208848,95.40510769013076,75.17287302040675,54.22793509842455,45.52468625546743,28.11818856955341,11.381171563866816,58.24481917978926,36.82143741251048,7.36428748250205,28.15005054982593,27.30956041962564,26.779227209098508,60.25326122047164,77.65975890638566,76.74246261972206,{}
28,94,34,0,1.418083333333332,41.44642363175981,180.53936922730549,9.763593022860752,23.51384576272273,51.25653865229744,55.38634266389713,25.00699965164385,99.6556313573826,76.14350712247517,55.231222681683846,45.56575871238914,26.23483077379973,11.046244536336758,63.51590608393633,38.66185587717871,6.903902835210488,27.61561134084189,26.809909088228057,26.234830773799786,62.13512551689428,80.08527288844147,77.76626761357711,{}
29,94,35,0,1.4597916666666653,37.53943562680298,175.04791809369843,10.8021347127497,24.26553285489668,51.19521115742889,55.08029568876871,24.449784041628178,96.92331912838402,72.66084146015808,53.59359648371145,40.19519736278352,22.77727850557727,7.369119516510295,64.9822357365,39.52527740673713,3.3495997802319835,25.492192891026853,24.449784041628178,24.78703837371654,61.63263595626813,77.71071490138155,79.45826811578154,{}
30,94,36,0,1.5014999999999985,34.64306306934268,173.9506233339502,10.734421106421255,22.6736244539418,49.33523699076133,53.52326871813852,25.61078039278781,93.54261912046468,70.87970038708764,53.25764291615076,41.27467326001681,23.96593931226789,7.322925900970745,60.58056881712139,36.61462950485361,0.6657205364519996,27.96026253097915,27.156176047740928,26.62882145807538,59.91484828066962,75.89214115551482,80.06379303720462,{}
31,94,37,0,1.5432083333333315,22.154185362741643,167.51320549342347,11.78049969449966,23.560999388999303,46.90600681380064,50.88649070447008,26.148541421116384,83.62515631625644,60.06899782212749,48.7851959695447,41.63003389401149,23.416894065381427,6.504692795939263,50.73660380832655,26.018771183757167,0.0,26.0512743459412,23.739900966144152,23.416894065381484,55.94035804507792,72.85255931452008,75.73429213886838,{}
32,94,38,0,1.584916666666665,20.209781609982,170.0304379017594,12.173468242088978,24.23533802125624,45.78638919172654,49.81299673357584,28.517644958977623,85.07631314682182,60.86734121044484,50.41255033490864,43.01870961912204,28.231028187548816,7.3938407157866095,49.06821565931102,22.18152214735983,0.6721673377987827,28.263018031452155,25.85879379254153,26.886693511951307,60.49506040189039,76.62707650906111,79.49781954801641,{}
33,94,39,0,1.6266249999999982,6.769794685492927,165.2770833080868,15.931991632774611,25.26056783446484,43.89336784119986,47.96164601864585,32.1119557467913,79.93607669774313,54.692748001233255,51.11513982181873,47.79597489832395,33.19164923494719,8.629828801086205,39.16614609723774,12.612826709279943,3.3191649234947818,27.91257855203237,25.5381648269796,25.889486403258843,61.07263459230285,75.6769602556796,80.05726715306201,{}
34,94,40,0,1.6683333333333314,1.896736036182064,167.085112759299,17.487042209330948,24.29007297058062,45.67945274138225,47.11394574451808,33.770425024446894,77.02243126180754,52.73471975658829,51.63600416225404,54.988991445517286,38.89465248585367,13.411949133052984,29.506288092716545,4.023584739915918,0.0,28.197008309400392,25.79839925898744,26.1533008094533,65.71855075195964,77.78930497170734,83.4240485992898,{}
35,94,41,0,1.710041666666665,1.85980137916922,162.40017370970818,19.769959843293982,25.124533100490943,44.78994841006936,47.50691437463359,30.360937103361707,76.68157528984167,51.55710241192868,50.630509424520426,51.28804850795575,36.8221886723785,13.808320752141924,32.21941508833123,7.232929917788624,1.972617250305973,27.616641504283848,26.4327440182036,25.644024253977875,69.699142844145,80.21976817911028,79.0798393731759,{}
36,94,42,0,1.751749999999998,2.940604176848633,162.52259327366744,18.458001658929323,25.124533100490886,42.10304442204139,44.88637467541331,31.807497421413714,78.13379528078124,53.01249570235616,51.28804850795575,52.6031266748264,36.822188672378445,13.150781668706545,32.87695417176656,6.575390834353357,2.630156333741354,27.647935159087616,25.296033610875885,24.98648517054249,72.32929917788633,84.16500267972225,84.32922723135403,{}
37,94,43,0,1.7934583333333312,29.041908032203505,164.16406331053682,14.565794948412975,23.88312756745089,44.91415889755121,47.492416139664975,30.587600854184256,98.02129089556628,74.14238025122992,59.342630056061296,52.74900449427668,38.24302825835059,15.165338792104537,52.08964193809823,27.03386480331676,4.615537893249211,27.724607797165643,26.89682032389101,26.374502247138253,52.74900449427668,60.66135516841814,73.95449935309281,{}
38,94,44,0,1.8351666666666644,39.99999999999995,170.9360313659084,14.24466928049235,25.921679573929485,47.87370773077734,50.362511219979176,26.586852142754854,106.38649969844536,80.46641581954592,59.9688068603819,49.0067668966563,33.530945771396375,15.47582112525987,64.48258802191606,37.39990105271136,6.448258802191617,28.40163387294484,27.3576451552532,27.08268696920481,69.64119506366939,73.51015034498437,78.67932759268211,{}
39,94,45,0,1.8768749999999976,49.11520724765724,173.71816627456104,9.136230744341573,22.116472900830587,49.16616545667506,51.74688829118488,26.13025881826108,106.33410871629292,84.23188551954317,59.43467456704224,47.806151282186136,33.593511711806514,14.858668641760516,65.24893620947034,41.99188963975814,9.69043607071336,29.74541224234133,27.621048308031423,27.779250069378406,46.51409313942429,58.14261642428039,73.93011724434787,{}
40,94,46,0,1.9185833333333309,41.26435267435738,166.84598356738704,10.396370221167466,25.82243807353685,46.49398106757028,50.35701517209328,28.83434300855881,106.02258925653636,80.20924402871009,59.31750696938855,50.290929821872965,37.39581961113629,15.474132252883976,61.896529011535904,34.81679756898893,9.026577147515695,29.77067370685033,29.909985060629868,29.65875348469428,56.7384849272413,63.18604003260964,72.22412975368265,{}
41,94,47,0,1.960291666666664,10.468478451804176,161.34315053138465,14.341903646683395,24.70479021650929,44.16655897290224,46.816458878452174,33.98381812901426,83.46550810486555,58.79004811734392,53.23665279921801,46.74437806760608,36.356738497026925,7.790729677934451,41.5505582823165,15.581459355868674,3.895364838967112,28.68380729336661,27.54438892829335,27.26755387277018,64.92274731611957,67.51965720876433,75.31038688669867,{}
42,94,48,0,2.0019999999999976,2.922574551478096,158.41324635991384,15.684180879398127,26.172956445872845,40.53854267880671,44.45772914657671,36.80587864212758,81.2980185891594,55.14302635134562,53.58761800461036,44.4385124916281,35.28940697864584,3.2675376832079337,41.170974808420056,13.72365826947339,9.8026130496238,31.47709124169305,28.872906678636337,30.06134668551305,79.72791947027389,82.34194961684022,84.96603313067018,{}
43,94,49,0,2.043708333333331,6.99357308610474,161.45917249941851,16.882760950771967,24.70895646135798,42.93487470423516,46.7702947541688,31.27620965228637,79.48478528386457,54.79111267885602,51.297619811960885,42.856239336574845,31.168174062963544,5.84403263680565,42.20690237692986,14.934750071836676,7.142706556095845,28.6886445643304,28.835240534486733,28.57082622438321,77.92043515740886,80.51778299598914,83.15570449128651,{}
44,94,50,0,2.085416666666664,23.67959886514609,172.9413466592913,13.220945741819618,22.402724336929083,47.43222660594606,51.37321648947404,27.906674888870057,87.07399340267247,64.6755545542419,52.621330811435655,43.41259791943446,28.94173194628968,8.550966256858374,50.64803090600674,26.96843204086076,0.6577666351429343,28.971615002207084,29.416218190218583,28.283965311146687,74.98539640629582,88.14072910915473,81.73263271780927,{}
45,94,51,0,2.1271249999999973,28.9615923891496,168.95044186119543,11.835703501835953,23.707908809476788,46.046518838945325,51.439564490956194,28.113160216094744,92.39301579373176,68.69946190771898,53.91820484169705,44.71265767360251,30.24679783802526,9.863086251530037,54.57574392513232,29.589258754589764,1.9726172503060293,30.27537299587481,28.113160216094744,28.274180587719115,68.3840646772743,81.5348463459809,79.0798393731759,{}
46,94,52,0,2.1688333333333305,32.65048226226743,171.5958812662687,10.845899867704134,24.44090506347213,48.97572339340126,53.02996237809278,30.315211726677987,98.07334113427903,73.6603503538008,56.940974305446616,50.162286888131575,33.89343708657532,12.201637351167165,55.58523682198359,29.82622463618634,6.778687417315155,29.857020952739333,27.418093783909367,27.79261841099185,67.7868741731507,79.98851152431786,77.46708181594,{}
47,94,53,0,2.210541666666664,15.068375816587324,166.99382414841153,15.06837581658721,25.956182151481578,45.102083943407216,47.825824891778325,32.996240546375255,89.05171650320416,63.12405093683983,55.251179171252886,47.74793261713211,34.10566615509441,8.185359877222595,47.747932617132165,20.46339969305665,2.7284532924076075,27.284532924075503,26.241423486895428,25.92030627787176,65.48287901778122,77.76091883361516,82.26184868020101,{}
48,94,54,0,2.252249999999997,2.921405113086857,158.52223600711912,17.03457267976456,24.857707199927844,44.49751698316028,47.10624201780691,32.896630122990295,77.48059854555336,52.66637965818657,50.95319129688573,44.42073087420806,32.66230211338825,5.879214380409962,38.5415164937981,11.105182718551989,7.185706464945383,10.533275931637338,9.51140594489381,9.145444591748683,64.01811214224108,77.08303298759637,79.96329276492853,{}
49,94,55,0,2.29395833333333,2.932154192848546,157.79784917309212,15.790133568420094,24.949169173547475,41.982059063141214,45.91420169456058,34.19450009353787,77.64397453312375,52.71357621788406,51.14066954661939,45.89547267004298,34.093779697746186,5.900846486148453,37.37202774560637,11.146043362724754,5.900846486148339,9.179094534008584,9.179094534008584,9.83474414358068,65.56496095720428,78.67795314864514,81.46957578515834,{}
50,94,56,0,2.3356666666666634,14.482917245934637,157.78852288368512,14.423438895060258,24.9476946086317,44.60081690690767,45.89276012064613,31.714222360584525,85.48119775997276,60.543808122641,53.10447956817637,47.20398183837898,35.40298637878419,9.834162882995656,43.925927544047,16.390271471659275,1.9668325765991312,7.975850333538015,7.867330306396468,7.867330306396468,64.24986416890465,74.73963791076665,78.84793880174253,{}
51,94,57,0,2.3773749999999967,27.30003420033994,155.06973559088215,11.758691126897526,24.70622212546128,45.52269845441217,48.06316211626225,29.978897755180466,93.7193429448778,69.01782714873026,55.18753374590722,50.64267802565598,37.65737596779553,14.283832263646502,49.34414781986993,23.373543704148915,6.492651028930197,7.898650880215826,6.621230858292728,7.14191613182328,62.3294498777305,74.01622172980493,73.00696663994356,{}
52,94,58,0,2.41908333333333,42.54191974261855,155.92728655678098,10.63029063066864,25.281884126496625,46.583390273328014,51.890764970608295,29.35384943333958,107.76285087779635,82.48114017124715,61.12417112634466,54.48023948217679,42.52116252267456,19.267401768086927,59.13099163309437,32.55526505642274,12.623470123919049,12.032671973879792,10.713017875471722,9.965897466251874,63.78174378401189,74.41203441468053,77.25267052995119,{}
53,94,59,0,2.460791666666663,49.34148075267308,155.2092767450465,10.664533973120058,24.032202543132616,46.73344929251192,50.72664925898621,29.448406953292405,113.43606918512305,89.40496152667481,64.65373721204037,58.6549368521604,45.32426938576032,22.6621346928801,61.32107034544049,34.65973541264032,15.996800959680058,16.052249309508625,14.904139320157787,14.66373421304013,62.65413709208042,74.65173781184052,80.26124654754305,{}
54,94,60,0,2.5024999999999964,40.19051175227587,157.08552224437588,13.367165371027513,25.537933583315752,46.86140034818749,50.95327790357985,28.575735737820136,107.47067950862444,81.93320025983861,61.48896070672646,58.81552763252097,44.11164572439071,23.39253939929808,55.47373628976413,30.07612208481192,14.035523639578798,18.76171065790908,17.581761015255733,17.377314982335747,61.48896070672646,76.19284261485666,83.14548783958142,{}
55,94,61,0,2.5442083333333296,22.453541046582504,156.67625811043675,13.25093517306026,22.56938123611017,46.31731998324233,48.94523873928117,27.96997635943632,86.19917342266378,63.63126932409464,52.081434543913474,55.37772786947755,36.91848524631837,18.459242623159184,39.5555199067698,15.822207962707978,9.229621311579592,18.50627261689296,18.878295202999865,17.799983958046425,58.01476252992893,75.15548782286248,79.50561103836147,{}
56,94,62,0,2.585916666666663,10.86474790769458,155.41437888272182,13.241155459218543,23.86174055829788,43.65825444378698,46.28313597060978,29.10550296252464,76.97210111888842,53.11190517281444,47.43159164378818,54.01931270542542,34.2561495205137,15.15175844176565,32.27983320202247,8.564037380128411,5.928948955473516,19.807032635528465,18.864362275059783,17.786846866420547,55.336856917752925,76.41756431499209,78.28031242001137,{}
57,94,63,0,2.627624999999996,14.793724945099884,160.36834549669555,14.615122120777578,23.964007955668432,46.48149768887146,49.243330706645885,29.58744989019985,82.8976775874327,58.95257626508102,50.94285291122378,56.897212342405794,34.40296560238488,16.5398873088389,36.38775207944559,12.57031435471754,5.954359431182013,21.212365171677984,20.24092995369488,19.18626927825312,54.25083037299157,79.3914590824267,77.4716739300945,{}
58,94,64,0,2.6693333333333293,27.845637398696788,160.17327754783443,13.265934386138284,24.087918593880964,46.50108098236973,50.43750393283938,28.21858665576792,93.3387886264002,69.2596454070583,54.78040701993626,58.08043153920954,34.32025500044199,18.480137307930303,46.200343269825794,22.44016673105829,10.560078461674436,22.47895702229397,21.770159456146946,21.12015692334893,52.800392308372295,79.20058846255844,76.17268684938442,{}
59,94,65,0,2.7110416666666626,39.688197323306056,162.78455999375606,13.265934386138229,23.90639438985306,49.00064162635413,51.750445376766976,26.923023070574505,103.6438885171076,79.7377707334832,59.40044134691885,60.720451154628165,36.96027461586061,22.440166731058184,54.120402116081664,30.36022557731405,13.20009807709306,21.16136702482451,18.899664228551696,18.480137307930303,51.48038250066298,76.56056884713982,75.97800327517665,{}
60,94,66,0,2.752749999999996,29.50254226333726,164.98710503426074,16.000000000000032,29.35255378656353,46.67599250002152,50.77061327592752,31.019459965507497,105.80711142256092,76.47979223749016,61.12147317235264,63.77892852767235,41.190558007455024,21.924006681387425,52.48474326756366,23.252734359047167,9.965457582448837,16.000000000000025,14.855627054164168,14.616004454258244,55.80656246171321,78.39493298193051,77.79584245606112,{}
61,94,67,0,2.794458333333329,3.785288849371728,161.685457285784,16.115286580646032,22.90803521758548,43.01344158863717,44.34607651352791,40.5043594762202,82.52016509725236,59.62580939834083,57.54697340402225,57.54697340402225,38.810749505038245,8.029810242421718,33.45754267675704,10.70641365656229,4.014905121210802,8.464163181667146,8.140571478001283,8.69896109595686,57.54697340402225,81.63640413128735,80.842728642892,{}
62,94,68,0,2.8361666666666623,4.223320949987827,159.21975993570013,17.413198367683954,24.1875014618852,44.25427770461742,45.72122865827535,40.26577184230478,83.67079920613345,59.50238070490469,58.09561368962494,60.09891071340513,37.39487777722985,8.680953769714051,34.05604940426292,10.016485118900846,3.3388283729669297,8.446641899975818,8.446641899975727,7.345422420527257,54.75678531665801,82.80294364958038,79.51740643168672,"{'happy': (['m1', 'm3', 'm12', 'e1', 'e2'], 5.25309225303537, 71)}"
63,94,69,0,2.8778749999999955,8.382502812158275,151.28037315205643,16.124066098990394,24.186099148485564,42.927090721430574,44.45493436344302,37.48769221913805,86.06875337052664,61.883085411712806,56.99177296525136,63.61872331004804,34.46014179294269,11.928510620633972,35.78553186190197,13.253900689593364,1.3253900689593363,12.573754218237411,13.05357832109324,11.928510620634029,50.36482262045468,84.82496441339737,78.50069549255771,"{'happy': (['m1', 'm3', 'm12', 'e1', 'e2'], 5.25309225303537, 71)}"
64,94,70,0,2.9195833333333288,14.260954001909624,151.73749494627234,13.930028333195754,25.186904103208107,43.13034273432395,45.055703774033255,37.28322454483614,90.54518416577264,65.36617484504046,57.369969700506886,69.66353463632981,34.14879148839697,15.025468254894632,36.88069480746879,15.02546825489469,8.195709957215286,16.617519145647055,17.757371573966452,15.70844408466263,46.442356424219895,91.51876118890392,82.82894791898724,"{'happy': (['m1', 'm3', 'm12', 'e1', 'e2'], 5.25309225303537, 71)}"
65,94,71,0,2.961291666666662,8.755142946542685,146.31001547539574,16.634209641381396,26.54862224224897,40.79118446513401,42.82583275061292,36.48474453870928,87.55142946542664,61.04146697976092,55.3766061982796,69.73350410153722,30.081119416349395,14.356897903257618,34.86675205076858,11.622250683589527,6.152956244253232,20.916029303820007,18.34457123297616,17.77520692784276,41.01970829502187,91.6106818588822,81.58236893026803,"{'happy': (['m1', 'm3', 'm12', 'e1', 'e2'], 5.25309225303537, 71)}"
66,94,72,0,3.0029999999999952,6.86038732747827,151.92311859751752,16.69204279156714,25.632522376680527,40.93300561253332,42.97472788123145,39.290319271841184,86.88620288053325,61.253693493884406,56.941214818069966,71.34802820577431,27.44154930991317,10.976619723965314,34.301936637391464,12.34869718946095,1.3720774654957495,22.33580290475505,22.166589839548624,20.58116198243488,37.04609156838285,91.92919018820923,79.5450003218924,"{'happy': (['m1', 'm3', 'm12', 'e1', 'e2'], 5.25309225303537, 71)}"
67,94,73,0,3.0447083333333285,6.899628939308877,157.704449036981,18.15008997611385,28.447898894338863,42.509778002544856,46.85655815941728,38.16686144686975,90.04478372712842,61.60406637351028,57.26692019626381,68.99628939308894,26.218589969373795,10.34944340896334,39.32788495406066,15.869146560410512,0.6899628939308968,23.62052471351436,21.81854245822775,20.69888681792668,40.01784784799162,92.4550277867392,78.66787358902835,"{'happy': (['m1', 'm3', 'm12', 'e1', 'e2'], 5.25309225303537, 71)}"
68,94,74,0,3.0864166666666617,7.737644133264758,153.93463981549556,17.991062585712815,27.898472673779445,41.84770901066898,45.117830720498986,36.498394379894336,88.90928535189757,61.06430409539677,56.08124152965837,64.28825248521815,25.98886802593921,9.574846114819708,41.035054777798905,16.414021911119562,1.3678351592599256,26.132454024858045,24.65899901547123,23.25319770741936,43.77072509631876,91.64495567041746,80.28388421045115,"{'happy': (['m1', 'm3', 'm12', 'e1', 'e2'], 5.25309225303537, 71)}"
69,94,75,0,3.128124999999995,12.109958091954288,155.37246129135335,17.808227629061335,27.614953230853217,41.42242984627984,45.67397162462351,35.84731694583462,92.95921246961028,65.35451667866059,58.21918242130892,62.28098584605141,28.432623973197337,10.15450856185612,45.35680490962443,19.632049886255345,0.6769672374571201,24.52079624429912,24.40840086460709,23.01688607354072,47.38770662199562,89.35967534433456,79.46799574252474,"{'happy': (['m1', 'm3', 'm12', 'e1', 'e2'], 5.25309225303537, 71)}"
70,94,76,0,3.169833333333328,24.57110857837991,157.44129712264206,13.73154182141256,26.144076726389823,42.515786103383576,48.06039637494378,32.76147810450663,97.1899807144481,71.05836885759864,57.89900359733088,61.938468964586605,26.92976911503763,12.118396101766962,51.16656131857155,26.92976911503763,4.039465367255616,25.72462582697128,25.547822179792743,24.236792203533867,47.12709595131588,86.17526116812041,77.11512309289095,"{'happy': (['m1', 'm3', 'm12', 'e1', 'e2'], 5.25309225303537, 71)}"
71,94,77,0,3.2115416666666614,23.35875427479474,162.17890402338045,12.475300309490857,24.950600618981607,45.38557137117467,48.29767892272991,31.58928507980657,92.35093316310662,67.412810652797,54.80202030315206,59.53799736638746,24.35645346806757,10.825090430252317,48.71290693613514,25.709589771849096,4.059408911344576,24.506340750274955,22.682697760800952,21.65018086050452,43.30036172100904,83.89445083445497,80.14405979854838,"{'happy': (['m1', 'm3', 'm12', 'e1', 'e2'], 5.25309225303537, 71)}"
72,94,78,0,3.253249999999994,22.594559250929,162.95841631384545,12.169690313016904,24.339380626033808,45.57306013801505,48.678761252067616,28.82897844064087,87.76681154818574,63.42814791601302,50.81954745394489,58.079482804508416,19.79982368335516,11.21990008723452,46.85958271727395,25.73977078836174,5.939947105006468,23.90600388266609,23.79642651182772,22.43980017446916,43.55961210338131,85.79923596120562,75.8849750648352,"{'happy': (['m1', 'm3', 'm12', 'e1', 'e2'], 5.25309225303537, 71)}"
73,94,79,0,3.294958333333328,25.80913740690674,164.3414855133866,9.768110471171653,24.74070587459665,45.26304413624928,49.78971013223378,28.964470002703766,89.21397398840284,64.4739969299788,50.31574361374652,59.03713917346266,20.126297445498608,11.40490188578258,47.63223728768003,26.1641866791482,8.721395559716143,26.968904805459267,25.45797631752174,24.15155693459837,42.936101217063765,87.21395559716078,78.75302433244038,"{'happy': (['m1', 'm3', 'm12', 'e1', 'e2'], 5.25309225303537, 71)}"
74,94,80,0,3.336666666666661,29.36788027248351,163.28860276475723,12.1943485475778,24.38869709515573,47.20998422576751,50.36549915365508,27.267392293709968,93.1233521373086,68.74030162062212,52.90651226452656,59.51982629759243,21.162604905810667,13.887959469438272,50.922518054606826,31.08257595540931,9.919971049598814,23.954442243543955,22.17186886348071,21.162604905810667,43.64787261823443,85.97308242985574,74.45781044385521,"{'happy': (['m1', 'm3', 'm12', 'e1', 'e2'], 5.25309225303537, 71)}"
75,94,81,0,3.3783749999999944,38.59442296397035,164.7132819748161,12.20462815460531,24.4092563092106,48.54854642368605,53.999750121926695,26.00810689887539,100.99825930887326,76.60774221090226,56.26055592805602,60.89377818095471,22.5042223712224,16.547222331781256,57.584333714598415,35.080111343376075,12.575888972153734,12.558458764231425,11.84022847125286,10.590222292339943,46.3322225289873,86.04555612526212,73.22776892763181,"{'happy': (['m1', 'm3', 'm12', 'e1', 'e2'], 5.25309225303537, 71)}"
76,94,82,0,3.420083333333328,44.33838283393271,166.12266245580798,11.9764015584838,23.952803116967623,48.916457894863406,54.03061834811733,25.88285263238991,105.73282295048068,81.79720837750922,58.456041144794085,59.755064281345085,24.6814395944686,17.53681234343827,61.70359898617153,38.32118252825387,13.639742933785328,7.574541419519782,6.995453678607818,5.845604114479443,44.166786642733314,83.13748073926274,71.33990962731131,"{'happy': (['m1', 'm3', 'm12', 'e1', 'e2'], 5.25309225303537, 71)}"
77,94,83,0,3.461791666666661,44.62450690035208,170.0281353089702,12.05368756884232,23.85792034584022,50.5173279907756,54.37928826444731,26.04987963185109,106.18197304139586,82.32506141108472,58.833269161020326,60.14067514237638,23.53330766440814,16.99627775762815,62.75548710508826,41.836991403392176,13.074059813560154,9.95690731125675,8.268761455225235,7.844435888136104,45.759209347460285,82.36657682542847,75.660296919099,"{'happy': (['m1', 'm3', 'm12', 'e1', 'e2'], 5.25309225303537, 71)}"
78,94,84,0,3.503499999999994,42.17844925059573,169.38616912529295,12.099012080378085,22.91872044034949,50.70728423463824,54.81989042688999,24.89956144088353,101.66050456530348,78.76119589080476,56.42985093962216,57.742173054497016,20.99715383799889,15.74786537849917,60.36681728424696,39.36966344624807,11.810899033874364,14.962774251945314,14.13414173729761,12.46706009131185,45.93127402062265,82.6762932371208,77.23771002670611,"{'happy': (['m1', 'm3', 'm12', 'e1', 'e2'], 5.25309225303537, 71)}"
79,94,85,0,3.545208333333328,33.25754001241708,174.79993451684,11.020110448126957,24.94315500931284,49.886310018625565,54.16005479965407,27.234820814735887,96.23625812552412,71.3137590494324,53.30818250851041,57.40881193224209,20.503147118657864,12.985326508483295,55.35849722037631,32.12159715256405,8.884697084751735,16.62877000620855,17.289771759060667,15.71907945763769,46.47380013562452,84.74634142378585,79.34950453566904,"{'happy': (['m1', 'm3', 'm12', 'e1', 'e2'], 5.25309225303537, 71)}"
80,94,86,0,3.5869166666666605,27.64534208276308,173.50313128316782,12.680627600676583,25.361255201353192,51.55484052901024,54.49806868297946,27.404793824905685,92.79667438334508,67.4370427530296,52.2654726660104,60.51791571853846,22.006514806741222,15.129478929634672,49.51465831516782,26.13273633300525,9.627850227949352,18.09065690871069,16.09872824335718,15.81718251734526,44.0130296134825,83.89983770070106,81.19563393575213,"{'happy': (['m1', 'm3', 'm12', 'e1', 'e2'], 5.25309225303537, 71)}"
81,94,87,0,3.6286249999999938,26.72699939110916,167.71384448428694,12.184227870413718,22.81375019377923,46.92951792716735,49.76530443589828,26.331997375787783,87.87165522354636,65.07953200738784,50.21947247181788,55.505732732009164,19.8234759757176,12.55486811795447,48.23712487424609,27.09208383348061,7.268607857763129,14.775546610679465,15.468522498875606,13.876433183002291,44.93321221162648,83.25859909801375,78.01712479145088,"{'happy': (['m1', 'm3', 'm12', 'e1', 'e2'], 5.25309225303537, 71)}"
82,94,88,0,3.670333333333327,18.500880980894014,161.6367242748146,12.061098778901227,23.8725893886739,44.95752145852411,47.74517877734784,26.969436752962764,81.33025997968029,57.4719676165505,47.09555423825532,52.32839359806144,19.623147599273068,9.811573799636562,43.82502963837646,21.585462359200392,3.270524599878854,15.915059592449255,15.312203596883265,14.39030823946689,45.78734439830379,81.1090100769953,75.7068166542739,"{'happy': (['m1', 'm3', 'm12', 'e1', 'e2'], 5.25309225303537, 71)}"
83,94,89,0,3.71204166666666,9.66944316597125,160.98092858131673,14.849729298399003,22.92828980107291,45.64450262963963,48.474757227571,27.09007426465477,74.49770422780058,51.57796475515335,45.8229057389928,50.47160632120944,19.92300249521429,8.633301081259503,37.85370474090712,15.274301912997544,0.6641000831738211,17.46974564686759,16.80055085709199,15.938401996171422,46.48700582216662,79.69200998085711,77.10427905087553,"{'happy': (['m1', 'm3', 'm12', 'e1', 'e2'], 5.25309225303537, 71)}"
84,94,90,0,3.7537499999999935,5.900982438612942,156.84851283288688,14.75245609653237,24.078611583407994,42.55258951606312,46.85617873193042,28.20768365140433,72.71629122516694,48.66074777863217,44.86299274702151,48.8214921070529,21.11199658683364,7.257248826724094,36.28624413362036,13.854747760109603,1.9792496800156407,17.355310019071396,16.6904987920238,16.49374733346383,48.8214921070529,81.80898677398054,77.89520337824165,"{'happy': (['m1', 'm3', 'm12', 'e1', 'e2'], 5.25309225303537, 71)}"
85,94,91,0,3.795458333333327,12.321647302717356,158.8657916951473,14.761796899553794,23.071054360583183,45.75337299298623,48.77658860806228,25.94955923443331,76.02624956353915,52.95526389838234,46.108225185408855,49.44940092348202,21.383524723667904,10.02352721421937,39.425873709262646,16.705878690365466,0.6682351476146664,17.578522209082752,16.53122457819177,16.037643542750914,48.11293062825274,78.85174741852535,77.34226460836882,"{'happy': (['m1', 'm3', 'm12', 'e1', 'e2'], 5.25309225303537, 71)}"
86,94,92,0,3.83716666666666,20.392792813485425,155.84378463095535,12.290745926812937,24.32713106575301,44.49501665121904,48.45294590848483,28.49881999516389,85.49645998549161,61.17837844045619,49.99194639068117,54.65786138714464,26.66237140836324,12.664626418972546,43.3263535385903,20.663337841481507,5.999033566881735,18.71121078899952,19.410499376169536,18.663659985854338,49.32538710547203,81.32023279550793,77.14829846624177,"{'happy': (['m1', 'm3', 'm12', 'e1', 'e2'], 5.25309225303537, 71)}"
87,94,93,0,3.878874999999993,4.9206210329199696,155.51390238984737,17.950282756468788,24.71639711526565,44.20139608458766,45.55025765651252,35.90056551293754,81.90682599586142,57.286355603313694,54.58938905021421,58.68359322898039,30.02416397761783,8.870775720659822,36.16547024576698,11.600245173170492,2.0471020893829746,21.878362013029093,19.870837553712374,19.10628616757504,50.4951848714482,83.24881830157676,80.32249388705378,"{'happy': (['m1', 'm3', 'm12', 'e1', 'e2'], 5.25309225303537, 71)}"
88,94,94,0,3.9205833333333264,3.0775605075381183,159.79623560866008,18.102753996106063,25.115609089277765,44.57684652991762,47.51817206848345,36.44018785069224,81.51760104526645,56.42940289773814,54.36491254782089,59.18205669762773,28.90286489884141,8.257961399668943,35.784499398565686,12.386942099503583,2.7526537998896856,22.19260442654384,21.36633923390553,20.64490349917247,50.92409529795879,82.57961399668989,78.29352642534397,"{'happy': (['m1', 'm3', 'm12', 'e1', 'e2'], 5.25309225303537, 71)}"
89,94,95,0,3.96229166666666,6.779544162842922,161.42150174989465,17.678888245032883,26.0814271470686,42.57640097009276,46.59672980159035,35.899590837897414,85.62647478322872,59.5674685639592,55.59226213531099,59.65998863301672,29.82999431650836,9.491361827979858,39.32135614448828,14.91499715825421,2.711817665137118,21.86337298272468,21.049365588996352,20.338632488528447,48.81271797246825,81.35452995411373,79.58387893228111,"{'happy': (['m1', 'm3', 'm12', 'e1', 'e2'], 5.25309225303537, 71)}"
90,94,96,0,4.003999999999993,29.77718388797216,163.86097033376498,14.81289957798414,26.03939192824345,47.6231048689058,51.59302842272392,29.289998725835176,99.68419462739958,73.65052244174082,57.667167316865175,61.69045805990231,30.84522902995116,18.10480834366706,51.63223120230941,27.49248674408682,8.71712994324713,21.49941906081565,20.81942278291794,20.11645371518557,49.62058583079096,81.80691177508783,76.2894387274426,"{'happy': (['m1', 'm3', 'm12', 'e1', 'e2'], 5.25309225303537, 71)}"
91,94,97,0,4.045708333333327,37.48430183020783,164.46712771433906,12.311069423415166,24.622138846830307,48.73471491582028,52.69029423427909,27.882362046914288,101.87910407794294,77.27586787424018,57.418887414562334,62.76017926707976,32.04775111510452,20.697505928504995,52.74525704360951,30.044766670410468,15.356214075987625,22.85704733440312,20.7297869555477,19.362182965375663,46.73630370952748,81.45470075089071,77.05635012648644,"{'happy': (['m1', 'm3', 'm12', 'e1', 'e2'], 5.25309225303537, 71)}"
92,94,98,0,4.08741666666666,38.055051082623066,165.11672825743955,12.459057164093354,24.660270287207886,47.98806725846872,51.98841454863437,26.92594590637416,101.77563639645108,77.12312076817405,56.7577284665071,63.51460090299605,32.43298769514695,22.29767904041347,52.0279177609649,29.054551476902475,16.892181091222312,23.131805170400632,20.978973620879707,20.946304553115738,45.94673256812485,79.73109475056955,78.20477832891638,{}
93,94,99,0,4.129124999999993,35.84833176465769,166.01011955189102,11.042828889525197,22.29700860208108,48.42600816696707,52.6931937551028,28.60005768394748,97.51800545687108,75.22103989301549,56.15746836747837,65.74532882046253,34.24235876065757,22.599956782033985,45.88476073928109,25.33934548288653,17.121179380328783,23.32505429663606,22.29700860208112,22.59995678203404,47.93930226492057,82.18166102557808,76.5682418987657,{}
94,94,100,0,4.170833333333326,24.81829934628329,164.2433943410847,12.634107257006535,23.6561044284682,47.09339990729369,51.16423482646196,29.58203557419501,90.57870744127122,66.92359900689075,53.4440920921524,64.40698277772213,35.6293947281016,21.240600703291307,39.05529806734216,17.129516696202813,14.388794024810238,23.336412646497827,23.9323318559473,23.296142706835667,50.70336942076,84.96240281316543,82.00441922066742,{}
95,94,101,0,4.21254166666666,20.867805319654444,162.83426604124907,12.353094789655431,21.996598193028607,45.34714887706394,48.056787805732384,28.93843926400549,84.11528175694879,62.12597588473443,51.15641660133326,60.02352881223101,35.46844884359109,19.098395531164385,35.468448843591034,15.005882203057752,10.91336887495106,24.592944416680584,22.207096751798407,21.82673774990212,51.83850215601774,81.85026656213324,82.76595993739723,{}
96,94,102,0,4.254249999999993,17.47299744084029,162.91169156206203,14.877721219545611,24.98699727689909,47.09613011128084,50.79205306291827,29.88342342729932,87.19883573437977,62.21957497216858,53.127682405715404,56.8342648991374,38.301352432027386,17.915148718206353,38.91911618093104,14.208566224784365,6.795401237940325,27.18160495176136,24.83379535887685,25.946077453954047,56.8342648991374,82.78034235309144,82.14167416387495,{}
97,94,103,0,4.295958333333326,23.05540511789648,159.2998889166645,15.79948508458418,25.562214690185,44.900765081381046,48.48575230565679,28.28894320185358,92.60296580811156,67.04249022642337,55.13531615269994,54.52943355761533,41.20001646575383,19.99412563779231,44.22942944117688,17.570595257453817,7.876473736099967,25.44706899355384,24.35617888640935,24.23530380338468,61.80002469863075,78.76473736099996,79.09959132060737,{}
98,94,104,0,4.337666666666659,13.757015854085775,158.2571524478091,14.946020324020935,24.910033873368207,44.83806097206275,47.32906435939958,32.59789887734567,86.08390173593908,61.23259255826051,54.179323674575926,49.82006774673641,44.838060972062806,14.946020324020878,38.61055250372078,11.209515243015744,2.491003387336775,26.27388701114172,24.941151979034213,24.910033873368207,66.01158976442579,72.23909823276784,81.04379125789553,{}
99,94,105,0,4.3793749999999925,8.729394305934761,157.12909750682513,14.964675953030962,26.188182917804227,44.91134474608568,47.40454631399778,31.176408235481176,81.05866141225113,54.8704784944469,50.50578134147952,41.15285887083519,41.15285887083519,9.976450635354013,39.90580254141594,9.976450635353956,3.741168988257698,26.45405961161868,26.18818291780417,26.18818291780417,69.83515444747786,67.34104178863939,83.56207994337679,{}
100,94,106,0,4.421083333333326,16.928629953265556,155.9852331408042,12.152187533307186,24.2139679024587,43.54755377432867,46.01273589846785,27.83759491888715,81.02460949237341,56.83182912882012,48.36751415218737,37.484823467945205,37.484823467945205,9.673502830437483,43.5307627369686,16.928629953265556,0.0,29.42081027685939,29.045688980640893,28.41591456441006,70.13289552067164,66.5053319592576,78.60651139201747,{}
101,94,107,0,4.462791666666659,28.38640997264025,164.3144497157113,11.176081521361787,24.68383475881751,46.91552259617498,50.61691013657946,27.18025357333408,91.33018860762496,66.64635384880745,52.45314886248735,39.49413561410813,32.08898518646282,8.639342165586186,55.53862820733946,27.152218234699266,1.2341917379409324,29.85111570629969,28.62686385807605,28.386409972640195,69.11473732468912,69.11473732468912,81.46600410495556,{}
102,94,108,0,4.504499999999992,27.760252365930683,172.07211541936437,11.35646687697158,25.268119109780063,47.96612696214068,51.8733243939292,27.78891551488356,92.14812885935524,66.88887460289503,52.99684542586749,40.37854889589903,27.76025236593057,6.309148264984174,58.0441640378549,30.28391167192433,1.2618296529968802,30.38888221777239,29.26792051670209,29.02208201892745,68.13880126182966,73.186119873817,80.79652034615577,{}
103,94,109,0,4.546208333333325,22.884923326364003,159.44557939869875,10.840226838804028,24.089392975120063,45.78569219471321,49.44197530535041,26.525692457796247,84.32147832865226,60.23552593005885,48.78102077461807,37.3385591114361,25.293862623876063,4.817878595024013,52.99666454526408,26.498332272632013,2.4089392975120063,30.207945110071684,27.937465141072344,28.30503674576608,62.63242173531216,68.65476997909215,80.78032317473912,{}
104,94,110,0,4.587916666666659,18.05624250771888,156.6031374376518,10.833745504631338,24.10506496269278,44.53873151903986,48.14998002058371,25.307383984031173,78.24371753344849,54.18210086678056,45.14060626929722,31.2974870133794,25.278739510806474,3.0093737512864323,49.95560427135558,23.473115260034547,5.416872752315669,28.990126919240893,27.920761427191675,28.28811326209302,63.79872352727341,67.40997202881718,79.52949851377511,{}
105,94,111,0,4.629624999999992,14.540565692909814,157.05296504201414,12.075282553125248,22.974791934441395,44.69486041714434,48.31622195797551,26.59305127995626,76.08386303869625,53.13124323375109,45.88607370187594,31.39573463812565,26.565621616875543,2.4150565106250497,47.09360195718841,20.527980340312865,7.245169531875149,29.081131385819635,29.206212098048503,29.584442255156887,63.998997531563816,65.20652578687634,80.9854551399617,{}
106,94,112,0,4.671333333333325,13.359981728857292,155.50429851522065,12.206014061405774,24.290875870649643,43.74044197823707,47.36720794776693,26.74755248257332,76.5162589925464,52.22538312189676,45.54539225746811,30.363594838312054,26.71996345771464,1.8218156902987064,47.97447984453305,20.039972593285995,7.894534657961117,30.58143131285461,30.58143131285461,30.363594838312054,64.37082105722163,66.79990864428657,77.81615353771971,{}
107,94,113,0,4.713041666666658,12.186968616908302,157.32994162022774,13.405665478599133,24.37393723381672,45.091783882560776,48.76310579888069,28.056508720230944,78.00611963639625,53.636508954502006,47.52917760594249,34.123512127343304,28.03002781888916,3.046742154227047,46.91982917509711,18.88980135620796,7.921529600990425,31.896349287592976,30.686002897097623,31.0767699731162,63.37223680792329,67.02832739299578,79.36514773241373,{}
108,94,114,0,4.754749999999992,10.897838620476024,153.89974571021162,13.37450687446704,24.247672034313226,44.80222543973469,48.449971835956006,27.85003203010536,76.28487034333193,52.08152917837429,46.61853187648069,33.90438681925866,27.85003203010536,3.027177394576654,45.40766091864992,17.557628888544684,7.870661225899312,29.161634322861524,29.287061285879886,29.6663384668513,62.965289807194665,67.8087736385173,82.4815575207112,{}
109,94,115,0,4.796458333333325,14.535847242857187,158.75695561090836,13.32452663928575,24.22641207142874,43.62436238174435,47.25703073889637,26.6490532785715,78.73583923214318,54.50942716071444,47.241503539285816,33.91697690000012,29.07169448571437,4.845282414285748,47.24150353928593,20.592450260714315,6.056603017857185,29.17246322629034,27.965507742062165,29.07169448571437,62.98867138571456,66.62263319642884,81.30298708465854,{}
110,94,116,0,4.838166666666658,21.73550859562539,160.7645997686587,10.867754297812724,22.94303685093803,45.88607370187594,49.523382232739074,24.180734468552075,79.70601226699543,56.76667259145649,45.88607370187594,31.39573463812565,24.150565106250497,3.622584765937576,51.92371497843857,25.35809336156302,3.622584765937576,29.20621209804849,29.20621209804849,28.9806781275006,62.79146927625129,67.62158229750139,80.94043069931023,{}
111,94,117,0,4.879874999999991,25.093985711509884,164.92845777918976,10.742392618174051,23.871983595942424,46.55036801208769,50.145373052274856,23.99104659686596,83.56046785928481,59.691893788293456,47.14716760198621,32.22717785452227,23.871983595942424,4.177597129289893,55.50236186056611,28.04958072523232,2.983997949492789,30.05405941425947,30.0540594142594,29.839979494928,62.06715734945027,66.84155406863874,77.66653651683144,{}
112,94,118,0,4.9215833333333245,28.300858642835976,164.06177104962896,10.61282199106347,22.404846425578512,48.34730018151152,51.88490751186589,23.701675777618792,84.93532523577349,62.54221187831385,48.34730018151146,30.65926352973895,23.58404886902997,3.53760733035449,57.78091972912347,31.838465973190463,3.53760733035449,29.57424682492878,29.691558855590927,30.06966230801322,61.31852705947793,67.21453927673542,76.72975248745529,{}
113,94,119,0,4.963291666666658,23.834095367698502,164.40524612327047,10.711961322086893,22.61414056885019,46.43375575927587,49.98915283640565,23.923084210051385,80.94357000726663,58.33282212568149,46.41849906237661,30.94566604158439,23.80435849352648,3.5706537740289264,53.55980661043464,27.375012267555466,4.76087169870533,29.968921585736062,29.968921585736062,29.7554481169081,61.89133208316886,66.65220378187414,78.63549237706764,{}
114,94,120,0,5.004999999999991,8.514686530866921,162.67285776185392,12.041585171307588,21.67485330835359,43.34970661670718,45.75802365096865,26.600731087260097,68.64759745781531,46.97761756117626,42.74762735814181,30.103962928268857,24.083170342615063,0.602079258565368,41.54346884101108,17.460298498395957,9.031188878480693,30.20014196860841,30.20014196860836,30.70604218683428,63.82040140793004,67.4328769593223,78.30734587946934,{}
115,94,121,0,5.046708333333324,49.56857605692119,169.52735300901014,13.780504703001355,25.86581615839788,46.27649231011032,49.59803732315182,32.87829647741537,121.79011120695488,95.96249914247204,70.93434159869753,70.07971097702648,59.82414351697389,32.47596362350009,56.405621030289694,30.766702380157994,22.22039616344739,27.401542246446567,27.401542246446567,27.3481798934738,51.277837300263286,58.114882273631736,71.80931768548454,{}
116,94,122,0,5.0884166666666575,51.75238483210692,174.21311377356986,13.7929753185266,24.199204249276274,46.58320894182973,50.029252938243566,32.93930293219757,122.6067693043018,98.41096990045732,72.41312042226434,68.96487659263278,63.79251084818532,33.6203773389085,56.03396223151413,30.17213350927682,21.5515239351978,27.63977693338132,27.63977693338132,28.44801159446098,49.99953552965877,55.17190127410623,65.5166327630011,{}
117,94,123,0,5.130124999999991,37.92222850725727,177.57844640017086,15.513638934787082,22.40858957247019,46.54091680436113,49.98839212320286,32.93196174318331,108.65018059360114,86.25580491965536,67.22576871741069,63.77829339856908,60.33081807972746,29.3035402101533,46.540916804361245,22.408589572470305,15.513638934786968,29.354194595774214,27.63361685078344,28.441671380442983,51.71212978262355,53.43586744204436,63.80158289848666,{}
118,94,124,0,5.171833333333324,30.872866821093908,180.1243898606869,13.721274142708468,22.29707048190108,48.02445949947946,49.73961876731801,31.062855487047724,97.82424078219412,75.54492934182814,60.030574374349385,54.88509657083364,51.45477803515655,22.297070481901187,44.59414096380226,22.297070481901187,10.290955607031265,27.49609477201237,27.49609477201237,28.30012791933609,56.60025583867218,53.169937302995095,68.62780685551597,{}
119,94,125,0,5.213541666666657,30.934980535344547,180.2088996824311,12.133697646333385,22.3075317051331,46.33102738758407,51.47891931953768,29.6221310288933,94.51831153267432,72.25410642022872,56.62681125149152,44.61506341026609,41.18313545563024,13.727711818543298,51.47891931953791,27.455423637086938,5.147891931953723,29.37257198196404,29.221813559758736,29.171387614404694,53.19488329685578,54.910847274173705,70.37544634873395,{}
120,94,126,0,5.25524999999999,35.89448611018429,177.89460235275004,8.546306216710605,18.8018736767632,47.8593148135792,51.30631707879913,28.18985859229639,90.8484812439138,72.11381085773189,53.84172916527655,39.3130085968686,32.47596362350009,8.54630621671049,54.6963597869476,34.185224866842304,1.7092612433420982,27.401542246446567,27.401542246446567,27.3481798934738,47.85931481357909,51.27783730026334,65.04182615126646,{}
121,94,127,0,5.296958333333324,32.94319183005847,181.93472341072487,10.388734331563455,22.508924385054115,50.24205975185954,53.675127379744254,28.18605706734371,93.7547700366657,71.32672950682495,54.540855240707856,36.360570160471866,29.43474727276293,5.194367165781728,60.6009502674533,34.62911443854466,1.7314557219272046,29.63774793535112,29.63774793535106,30.3004751337266,50.21221593588984,53.67512737974437,69.3447476227241,{}
122,94,128,0,5.338666666666657,34.82474321595863,184.54582124534795,12.173452808215757,24.3469056164314,50.4628508857968,53.93904743081639,28.309922042861352,99.37046664686144,75.10263152754378,57.38913466730253,38.25942311153506,29.564099677095328,6.086726404107935,65.21492575829825,39.12895545497895,0.8695323434438933,28.04157549330964,28.04157549330964,27.82503499020732,50.4328759197507,53.91100529352661,69.64948643191747,{}
123,94,129,0,5.38037499999999,47.19345775935402,181.9597203836917,12.226957658136143,22.77428907806624,50.77485860869307,54.26052917642312,28.434350021843567,110.38864398615202,87.61443942962623,63.75485064599536,45.41441415879126,34.93416473753177,12.226957658136143,69.86832947506343,45.41441415879126,5.240124710629743,29.89882893657112,28.001863220981114,28.820685908463645,48.9078306325444,54.14795534317415,68.14401125398892,{}
124,94,130,0,5.422083333333323,45.61228026304764,177.40315139737905,14.143767691089256,26.373189526453928,52.6587846735289,56.165595630173165,26.835912360085658,112.6185012742946,86.24754886999057,63.15546497960429,49.12091720635897,40.34932484808053,18.42034395238465,67.54126115874351,37.71784714059697,7.89443312245055,30.02909517281107,28.123864565489985,28.06909554649081,50.875235678014576,54.38387262132591,66.68718106569574,{}
125,94,131,0,5.463791666666657,29.56493795086737,168.9180216770722,12.173797979769006,27.880118296026843,48.72623762954173,52.17341991329545,32.06767762530912,101.24272709860767,73.37329991897076,58.26031890317984,50.43430591618551,41.73873593063638,14.782468975433744,54.782090908960186,25.21715295809281,6.086898989884503,27.8801182960268,26.31757029708547,26.95626695520264,50.43430591618551,55.65164790751504,66.17780090542455,{}
126,94,132,0,5.50549999999999,7.201862557778463,162.6784692337519,15.720374131889344,22.774289078066253,43.70262612415423,45.41441415879126,37.05327717149486,82.55853021403527,59.79765787314224,55.89466358005075,48.907830632544346,40.1742894481614,7.860187065944729,37.55422709284653,11.353603539697817,4.366770592191415,29.74536943431749,28.00186322098113,27.947331790025373,52.40124710629755,55.89466358005075,66.39789202675244,{}
127,94,133,0,5.547208333333323,7.233449067966822,159.99422900047296,15.789321817810446,24.56116727214953,43.89430062977692,45.613596362563385,37.504127566116416,84.66535066002682,60.29008775211752,56.13981090777054,50.87670363516702,40.35048908996009,8.771845454339086,38.59611999909214,10.526214545206926,3.50873818173568,28.124676053192992,28.288351592449224,28.06990545388521,54.385441816902585,59.64854908950605,66.75829681264351,{}
128,94,134,0,5.588916666666656,7.295746786704692,157.84105348235445,17.78303890979992,26.6010948311958,42.50433231786347,46.04045704017297,37.53630754433543,89.10866073363091,62.56051257389244,58.392790731667446,51.31487670358649,40.69800566146523,8.847392535101108,42.467484168485385,12.386349549141642,5.308435521060687,28.36689842068169,26.77706871146822,27.426916858813456,51.31487670358644,61.93174774570781,69.2135312335239,{}
129,94,135,0,5.6306249999999896,8.82872651302881,151.1234550612995,15.583101497345185,26.02948703376175,41.69897566915574,45.05113369056687,36.729722468969975,87.00457324423404,60.99542766462304,56.27231096263517,50.21221593588984,38.092025882399184,7.791550748672535,42.42066518721731,14.71737363638158,4.328639304818125,29.485628464192903,29.63774793535112,29.434747272763047,51.94367165781711,64.06386171130777,66.15883024065691,{}
130,94,136,0,5.672333333333323,9.324174418834154,152.72185427835046,15.583101497345185,27.757346805262333,41.590993677788695,45.05113369056687,38.444556000535655,90.63306588969132,62.93073421905885,58.00376668456238,51.94367165781716,41.55493732625371,8.65727860963625,43.28639304818091,13.851645775417865,3.4629114438544093,29.485628464192903,29.63774793535106,29.434747272763047,58.86949454552604,65.79531743323497,69.3447476227241,{}
131,94,137,0,5.714041666666656,10.62481141463611,155.80989943708602,15.81711580887441,26.258782611510952,41.95737165950376,45.41441415879126,38.78321679196885,91.43145892676486,65.21563917261626,59.38808005380395,52.40124710629766,41.92099768503806,8.733541184382943,43.6677059219146,13.973665895012571,3.4934164737530864,29.74536943431749,29.74536943431748,29.69404002690192,55.89466358005075,62.88149652755709,68.1440112539887,{}
132,94,138,0,5.755749999999989,12.351092390498264,157.358927675851,15.817115808874524,24.453915316272287,41.95737165950376,45.41441415879103,35.108401053994044,87.61443942962623,63.26846323549773,56.76801769848896,48.907830632544346,41.92099768503806,10.480249421259488,41.920997685038174,15.720374131889344,1.7467082368766569,28.00186322098113,28.164824033550293,27.947331790025373,54.14795534317415,59.38808005380395,69.89015991755043,{}
133,94,139,0,5.7974583333333225,20.84948783457789,162.9869220013951,13.851645775417865,26.02948703376186,45.017848770108,48.48076021396264,31.357996823365767,92.02813396190132,66.0000397453903,55.40658310167146,50.21221593588984,41.55493732625371,14.717373636381469,45.88357663107183,18.18028508023599,2.597183582890807,29.48562846419296,27.918884619887464,27.70329155083573,64.06386171130771,64.06386171130771,69.25822887708955,{}
134,94,140,0,5.839166666666656,29.358556531953084,167.6622749934096,12.067956607929888,24.197406088047,48.39481217609397,51.74853928698207,29.760747279775075,95.21066962452544,71.01933821788617,56.02979853681711,51.71981403398502,39.65185742605513,16.377941110761867,49.13382333228583,23.273916315293263,7.757972105097679,29.51002042559306,29.51002042559304,28.44589771869176,53.443807835117866,58.61578923851636,65.5344446460616,{}
135,94,141,0,5.880874999999989,29.233921098916543,168.45296706930708,10.30004973898872,22.382703010707463,46.38200320787709,49.81316278934246,29.63440443248048,91.38775200410105,69.00947917879719,54.07526112969106,46.35022382544946,37.766849042958825,12.875062173735955,48.92523626019658,24.89178686922276,6.008362347743514,29.384741985194925,27.680551938674206,27.466799303969992,56.65027356443818,58.36694852093632,66.95032330342701,{}
136,94,142,0,5.922583333333322,26.20062355314883,169.75452095239288,12.226957658136143,24.516218386206784,48.939011911218806,50.684645581659694,30.504947922519293,92.98658349442302,68.47898301490287,55.02130946161242,50.654538869421,40.17428944816152,15.720374131889344,47.1611223956678,20.960498842518973,6.9868329475064,31.489230556669128,28.001863220981058,28.820685908463645,71.61503771193998,64.62820476443363,75.18965253825452,{}
137,94,143,0,5.964291666666656,36.721387388471584,160.9297042831427,10.479949667251503,24.515517178208142,45.41311522475644,48.937612167340816,29.897973776216755,101.54681271258616,77.03139260495296,58.51305230882088,52.39974833625752,43.666456946881226,18.339911917690188,53.27307747519512,27.073203307066365,9.606620528313895,29.744518663181257,28.16401846885904,28.81986158494164,52.39974833625752,57.63972316988327,66.46488036732163,{}
138,94,144,0,6.005999999999989,45.95703072138815,151.6409118250658,11.914785742582012,20.49614562933555,45.988540516465584,49.36125521926874,31.06063383064708,109.14774059074978,88.6570127569384,65.53132158420146,56.16970421502992,49.36125521926874,22.1274592362239,56.16970421502992,32.34013272986567,13.616897991522478,28.98592712538031,29.13546858455918,28.93590823198513,73.190826704433,76.59505120231358,79.99927570019418,{}
139,94,145,0,6.047708333333322,48.48076021396264,152.52542737484077,12.12019005349066,24.3021391372844,45.05113369056664,48.48076021396241,30.23857420056932,114.60353570179755,90.30168245511936,65.79531743323491,58.86949454552598,51.94367165781705,25.97183582890864,58.86949454552598,31.16620299469014,17.314557219272388,29.48562846419296,27.75734680526228,28.56901941179933,72.7211403209439,77.91550748672563,79.66578115651362,{}
140,94,146,0,6.089416666666655,10.62450752589482,150.30397902004236,19.29247125279076,24.51551717820803,40.17314039113057,41.91979866900601,38.58494250558141,92.98392391066938,68.47702439266034,62.87969800350902,59.38638144775848,54.14640661413273,18.339911917690188,35.80649469644254,9.606620528313783,0.87332913893772,31.48832990796422,29.744518663181257,29.693190723879297,75.10630594863574,78.59962250438622,80.36526395577687,{}
141,94,147,0,6.131124999999988,3.9401696575076985,156.9157416287185,19.38307183355198,24.669364151793506,42.29033854593149,45.81453342475925,39.12491254038085,86.62998621686829,62.07486887631763,59.91131294006982,59.911312940069934,54.62502062182841,18.50202311384509,29.074607750328028,2.643146159120761,0.8810487197068824,31.91294192963585,30.00743811018756,29.95565647003491,72.24599501596668,68.72180013713904,77.61234134348847,{}
142,94,148,0,6.172833333333322,10.66894807906978,152.75608952950532,21.04757111774984,28.118186117667435,42.13166731155614,43.84910649531207,38.94432664685436,98.6127312504595,70.50849062002763,64.89667761306214,64.89667761306214,57.88082057381223,22.801535377562345,36.83324945606228,7.015857039250022,3.507928519624897,29.81739241681231,28.11818611766755,28.940410286906115,75.420463171937,84.19028447099947,78.92839169156196,{}
143,94,149,0,6.214541666666655,23.175523338149315,147.28927209877003,16.511876697690923,23.175523338149315,38.01319484103717,41.27969174422742,33.677752595025524,96.27995871785274,73.11984021784959,61.0939437814564,64.39631912099452,54.48919310237994,26.4190027163055,36.32612873491996,13.209501358152693,11.558313688383691,29.721378055843616,28.26378019999559,28.07019038607461,67.69869446053269,82.5593834884545,71.17365874564624,{}
144,94,150,0,6.256249999999988,22.463166422059064,154.31190088062118,15.37058626004682,24.152546167315272,41.13030404040877,44.53509462927648,34.53898550355804,96.3834885774086,72.23590087711693,60.62842358129592,64.89803087575342,51.235287533489554,23.909800848961822,37.572544191225575,11.954900424480796,11.954900424480911,29.033329602310687,27.538139593545367,28.179408143419323,64.89803087575336,85.39214588914916,77.53305899410981,{}
145,94,151,0,6.297958333333321,27.25733762453541,159.03623297304992,15.396563523166996,25.72969351953325,42.64245449439164,47.72874123097488,33.01319423180759,101.23367237845528,75.50406384902017,61.20957622217907,64.61010823452227,47.6074481728059,23.803724086403008,44.20691616046258,18.70292606788803,11.901862043201504,25.50399009257456,25.72969351953328,26.354123095660384,62.90984222835061,85.0133003085819,75.50406384902016,{}
146,94,152,0,6.339666666666655,47.51715117892122,161.52922504739695,15.328307801492809,27.294425682773333,42.45341286175135,47.426613495186245,30.889395070051133,120.94423162484344,93.65240861274457,69.40186532921712,67.70913690655323,52.47458110257878,29.622747396617,60.091859004566,31.31547581928089,16.080920015306447,25.44728806600104,23.938794927456083,23.69819791729367,60.93822321589795,81.2509642878639,74.95939684112379,{}
147,94,153,0,6.381374999999988,62.53022269440103,158.46379041702218,13.262113187696857,28.157225698555703,44.53567501142385,49.458423280066846,30.73043906290884,134.06193620758287,105.9054522830187,74.0233210197606,69.08843295177655,55.928731437152464,32.89925378656034,70.73339564110438,41.12406723320021,21.384514961264244,26.31940302924818,24.89280247552304,24.67444033992018,59.2186568158084,75.66828370908854,71.20997693549035,{}
148,94,154,0,6.423083333333321,68.1019868463501,161.14163498844854,14.931462204500347,24.941010742525343,43.16722830081032,49.799183861073146,30.59139546817339,138.1901147958264,113.2538014084273,78.80493941264109,69.68015695433536,61.38490017405724,35.66960415519543,72.1687339884187,43.96486093547344,22.39719330675064,26.54482169688964,26.596616520183414,27.37434737491742,59.72584881800168,76.3163623785577,73.4680692503941,{}
149,94,155,0,6.464791666666654,64.14808888120078,155.48126504048193,13.500187046123642,27.21049690402252,43.90804827986039,50.65381900437214,31.525538394449207,135.67520067540983,108.47507402036382,75.93855213444533,70.87598199214904,62.4383650883218,36.28175268645737,68.34469692100072,41.34432282875344,24.4690890210992,32.10732203326963,32.24008892093779,32.06294423454364,60.75084170755628,75.93855213444533,74.72890103564725,{}
150,94,156,0,6.506499999999988,33.92573127616651,154.76409124653816,13.658836604291162,27.15961398484041,44.17855306685362,47.46700824223375,35.93877653459397,110.58922091497614,83.44540554900749,66.07263674741432,69.46097709343553,55.90761570935058,27.106722768170016,47.436764844297386,18.635871903116826,16.941701730106274,32.23378588054809,32.23378588054809,32.18923328720183,60.99012622838245,76.23765778547806,75.02324213074286,{}
151,94,157,0,6.548208333333321,20.23511641832365,151.57486014516672,15.123914575703909,25.26247669086121,38.68651786234386,42.04446908772117,33.98469371627547,94.47870984986976,69.22494627974665,58.81522334995935,62.17609325567145,52.09348353853551,23.52608933998385,36.96956896283166,11.763044669991814,10.082609717135938,33.650683706914734,32.104664695877666,31.92826410426369,58.81522334995941,73.93913792566326,76.2887856833346,{}
152,94,158,0,6.589916666666654,29.10581003684857,157.57602994853983,15.47702976359075,27.399791197328444,42.76296977550834,46.1787445457329,34.565460374511495,106.46247404693476,79.0840724381402,64.09320059621808,66.65692862006682,56.40201652467198,27.3464322543864,44.43795241337784,15.382368143092322,13.6732161271932,34.353530354748976,30.95405952718153,31.61931229413426,61.5294725723694,75.2026886995626,73.81083351438475,{}
153,94,159,0,6.631624999999987,37.47699143311571,158.8465208765057,15.31568267321461,29.12913983162433,42.577584228476624,47.67916911420346,34.41561257830913,116.16807919749044,87.05539922334886,68.06970076984271,69.77144328908878,56.15750313512024,28.929622827183152,52.754018096628215,23.82439526944495,15.31568267321461,34.077367391360966,32.37785959348151,32.33310786567529,61.26273069285844,74.87667084682704,71.79659554060845,{}
154,94,160,0,6.6733333333333205,37.63329839645751,161.0757383596314,15.474204817911628,29.2506300371539,42.85749049077161,47.87802675602373,34.559151312021726,116.81518611137204,87.5686744249681,68.35360211346887,68.35360211346875,56.39172174361176,28.19586087180585,53.82846166435672,24.77818076613244,16.23398050194885,32.51289937973544,32.64734336902986,32.46796100389764,61.51824190212193,75.18896232481569,73.7973611880795,{}
155,94,161,0,6.715041666666654,32.37463693934014,160.39075716450793,17.01573140304845,29.12624053116738,40.97930780342658,47.67442348018891,32.730412862787816,111.07245949311252,81.95861560685344,65.51056590173636,66.36135247188889,54.45034048975498,28.07595681502994,50.19640763899281,21.269664253810447,14.46337169259118,34.07397558070616,32.50850920004656,32.329889665791995,59.555059910669456,74.86921817341306,73.48353487768412,{}
156,94,162,0,6.756749999999987,22.176771788464954,162.15558763183034,15.40213029011541,27.267192761752582,42.6578722599161,45.95526732141676,34.398184429318555,99.17753848101432,71.94142516238847,60.38126672230794,62.9325878514195,49.32554182949093,22.11144978563391,42.5220188185267,15.307926774669568,10.205284516446454,30.663063837288565,30.80426058023093,30.61585354933925,57.82994559319627,74.83875312060695,73.45363367362403,{}
157,94,163,0,6.79845833333332,18.861546657049672,159.01973002871082,13.496224155503,25.36159221482913,42.20942756089792,45.58098707804597,34.11803023611878,91.66013072903507,66.33260307207678,56.51543865116895,59.04598068032573,47.236784544260615,19.40082222353556,37.95813043735234,12.652710145784113,7.591626087470445,16.954421764696576,15.27668845483922,15.183252174940948,55.671924641450005,74.22923285526667,76.21558686915762,{}
158,94,164,0,6.840166666666653,18.475612457005223,156.00144828413704,11.70892350171198,25.31259495776119,43.52244277690392,46.86555419095036,33.620921385549906,89.04690956357878,63.76050318337696,54.36285911509134,58.54461750855984,46.83569400684786,19.236088609955345,35.96312218382968,9.199868465630855,9.199868465630855,11.82779886922149,13.485765603701786,13.38162685909947,55.19921079378497,73.59894772504663,74.28008360940025,{}
159,94,165,0,6.881874999999987,17.093640011406215,155.1162215939051,13.607046021928568,30.804260580230903,42.5220188185267,45.95526732141676,36.08112942758658,97.48584346264278,66.6823352167888,57.82994559319627,62.9325878514195,52.72730333497304,22.11144978563391,39.12025731304459,8.50440376370534,10.20528451644634,18.78684196121031,19.016424923750165,18.70968828015168,56.12906484045527,74.83875312060701,78.90326964718824,{}
160,94,166,0,6.92358333333332,10.391813352350477,143.75990361329076,17.169243604173076,25.68293752328347,37.62368633022989,42.71008978481791,39.33040427550017,92.50654452922213,66.82457281238557,61.502529290137886,66.62774006431607,58.08572210735247,23.063448483801608,29.89706284937268,2.5626053870892065,7.687816161267165,27.387793039755334,27.547180183854124,27.33445746228358,52.96051133317434,73.46135442988702,73.9563159267048,{}
161,94,167,0,6.965291666666653,3.820629304697759,133.4488445299439,18.87251658172659,29.097045906193127,34.21543663859979,39.33578622698495,41.04287801755461,92.51920307529764,63.42704945878507,61.51094526335095,68.34549473705653,61.510945263350834,23.92092315796981,27.338197894822656,1.7086373684263665,6.834549473705692,32.50904304582793,32.64347108880806,32.46411000010187,54.676395789645255,73.4714068423358,75.4900663269061,{}
162,94,168,0,7.006999999999986,6.83754440140649,136.8470072162423,18.88078659614525,29.10979635143153,35.937784730186856,37.64532384555201,41.3445339971805,96.10642359113064,67.01578389600208,63.24728571300915,70.08483011441552,64.95667181336074,26.49548455544982,28.2048706558013,2.564079150527391,9.40162355193388,32.523288642251984,30.95829897692505,31.623642856504546,52.99096911089953,70.08483011441547,75.523146384581,{}
163,94,169,0,7.04870833333332,10.308934116104243,134.05900124742263,20.33733994662225,28.86103496718509,35.63067392225452,37.2851232354742,42.504824248231394,101.9124196550986,73.0526133631193,67.79113315540764,74.57024647094846,67.79113315540764,28.811231591048227,30.50600991993349,0.0,10.168669973311124,30.50600991993344,30.693740983648663,30.50600991993344,54.23290652432616,69.48591148429284,75.05017320659204,{}
164,94,170,0,7.090416666666653,27.050891310962697,138.53036102116334,16.87388238947915,25.534817539728003,35.59549389569098,38.84659452948299,37.466099089540826,106.78648168707348,81.27538028173238,67.4955295579166,75.93247075265617,69.18291779686456,35.43515301790626,33.7477647789583,8.436941194739575,20.24865886737496,32.104750784832284,30.55990076247364,30.37298830106249,52.30903540738535,69.1829177968645,76.23186066013335,{}
165,94,171,0,7.132124999999986,22.18800784900915,144.80818956366352,15.31568267321461,24.06627350384747,35.89829777030434,39.177054878579966,37.59272096674112,99.06714209329918,75.05051089446599,63.815344471727485,74.87667084682698,68.06970076984271,34.03485038492136,27.227880307937085,1.7017425192460678,20.420910230952813,30.63136534642922,30.81986783543474,30.63136534642922,52.75401809662816,69.77144328908884,73.49084961663966,{}
166,94,172,0,7.173833333333319,7.042836530912231,148.96106091679374,17.16658208215366,22.46705761959753,37.73401854448377,39.43544556078074,37.73401854448363,84.32394418850662,61.87141736666074,58.07671784182003,73.44996668230169,63.201134121980544,30.746497680963444,15.37324884048178,5.124416280160517,17.08138760053521,32.49955637454439,30.93570868333044,30.74649768096356,51.24416280160585,70.03368916219466,75.64181558023391,{}
167,94,173,0,7.2155416666666525,9.123385592993776,149.55790382959086,18.635871903116826,23.778811519889224,39.00272637666482,40.695364058373706,35.73855895147267,86.81692359362945,63.04953938403988,58.44887096886646,74.5434876124674,62.684296401393,33.036318373707104,17.788786816611605,5.929595605537202,16.094616643600887,27.10672276816996,25.468962326268013,26.25963768166463,47.43676484429744,69.46097709343559,73.55508618782953,{}
168,94,174,0,7.257249999999986,22.280332121090805,146.03315203099962,16.939422832878563,23.77561293520666,39.10769444375215,40.79553243045223,34.04781851280098,96.9254768527228,73.15399138967767,61.82889334000674,77.92134503124134,67.75769133151425,38.96067251562067,23.71519196603004,0.0,23.715191966029977,27.10307653260565,25.46553639252407,26.25610539096175,45.736441648772086,67.75769133151422,76.90199468301657,{}
169,94,175,0,7.298958333333319,15.809882095713377,152.38498937761764,20.95091288271624,26.420403506963247,38.56839940487339,42.04706649821093,40.49606666711859,103.5399352614328,77.13679880974678,68.96342157227434,85.54956093775797,73.32819508950683,39.28296165509301,23.56977699305571,0.8729547034465668,20.077958179269785,26.18864110339529,26.24677356361209,26.188641103395355,48.88546339300461,69.83637627572085,70.37985821775287,{}
170,94,176,0,7.340666666666652,2.47914570962144,154.623982029594,22.85659408596156,24.79145709621402,38.6062771646277,42.21833014657159,42.2183301465717,91.7618871093108,66.98282853209469,65.73827785585627,80.63895416985031,70.12082971291329,33.307394113633904,15.777186685405468,7.01208297129142,12.271145199759872,29.801352627988194,28.266610133502944,28.048331885165283,47.33156005621646,70.12082971291329,72.40633551321804,{}
171,94,177,0,7.3823749999999855,4.958291419242879,151.25836651534755,21.036248913873976,24.604818629266923,38.72549395019198,40.471626595688726,45.88094355465542,95.245667888427,70.66652533375736,68.3678089700905,85.89801639831882,73.62687119855906,34.183904485045275,14.90067631399404,9.641614085525587,14.900676313994154,28.04833188516534,26.35368038429107,27.171821513753912,47.33156005621646,70.12082971291332,74.14676800514216,{}
172,94,178,0,7.424083333333319,8.749733804966382,142.79666197887948,20.662942526674403,24.084702140076256,34.49044908473814,37.906883243930174,41.32588505334883,94.76720810982516,70.68855235719097,66.0646131267402,82.36627091126053,72.07048704735291,36.035243523676456,17.159639773179265,6.863855909271706,17.159639773179265,27.45542363708688,27.508995246343723,27.455423637086824,44.61506341026609,68.63855909271706,76.20116689726501,{}
173,94,179,0,7.465791666666652,7.135299163362306,145.62469309858176,20.83875299962351,24.289626625958093,36.50629268645263,39.84058077466152,38.22941364164746,90.40438450364262,66.12476685602874,62.30031272666264,77.87539090832826,69.22256969629183,35.47656696934956,16.44036030286935,7.787539090832809,16.440360302869294,31.150156363331348,29.622488263985023,28.55430999972037,46.725234544996965,69.2225696962918,78.56456709370018,{}
174,94,180,0,7.507499999999985,8.865765335994125,153.36256250679006,19.20478605125412,24.58920885781373,40.32930109933823,41.76547880307916,36.67833083393169,89.28625818040692,64.70747372872265,59.98582732943498,79.98110310591329,69.5487853094898,38.25183192021939,13.909757061897947,8.693598163686204,20.864635592846923,29.558233756533184,29.60932840790422,29.558233756533184,46.94543008390565,66.07134604401534,75.48927166814036,{}
175,94,181,0,7.549208333333318,14.081338007315315,157.54067975266074,19.21232524638117,22.9726077194938,40.32281558405057,43.97763535958689,35.32229384292625,91.42448581365772,68.47376039569028,61.13012578394012,80.34245103032134,69.86300089593158,40.1712255151607,15.719175201584562,5.239725067194911,22.70547529117784,29.69177538077093,28.162676014630662,27.94520035837263,47.1575256047538,68.11642587353327,77.5605179010749,{}
176,94,182,0,7.590916666666652,17.658776573996466,161.7897723510048,17.315855064804452,24.48831707673329,40.16382627494777,43.42794356601792,36.73247561509995,96.0054469176731,71.52097980891939,62.33707823329598,84.84768981754178,69.26342025921781,40.69225940229046,18.181647818044667,2.5973782597206423,25.10798984396644,29.487838615493843,27.920977332926885,27.70536810368708,46.752808674972016,65.8002492462569,73.24013098859712,{}
177,94,183,0,7.632624999999985,19.04301830161181,162.80406812592324,19.043018301611728,22.676651251919587,41.69978372302872,43.41107078963418,36.57312971765108,97.29949535373368,74.63467787538185,64.65277008141578,84.47961957305,68.96295475351019,40.51573591768727,19.826849491634107,0.8620369344189385,23.274997229309747,29.30925577024186,31.224305777848947,30.171292704660686,44.82592058978162,65.51480701583466,71.4399294571612,{}
178,94,184,0,7.674333333333318,20.67150384971632,163.98514496653075,17.25236979469929,22.579333754217338,41.52082790801113,44.76540602141493,36.41617508498839,96.88193178535968,74.31438101973221,63.51697339043062,84.11707286840817,66.9503233034269,39.48352399945691,20.60009947797755,0.0,24.03344939097377,29.233921098916472,29.634404432480515,29.183474260468188,46.350223825449405,66.95032330342696,74.31438101973215,{}
179,94,185,0,7.716041666666651,20.5822309215681,166.67707444906864,17.177862899590703,22.481821582169736,41.34151410900397,44.73564785072541,34.35572579918129,94.56710848837304,72.11381085773183,61.53340476031599,82.04453968042128,64.95192724700019,39.31300859686854,20.51113492010529,1.709261243342155,23.929657406789545,29.057441136815896,31.19109073647701,29.912071758486945,46.15005357023699,66.66118849034228,72.29589118619838,{}
180,94,186,0,7.757749999999985,20.79406049098464,166.67707444906864,17.177862899590703,22.481821582169736,41.34151410900397,43.03809840974102,34.35572579918129,94.76770794857076,72.29589118619843,61.53340476031599,82.04453968042128,64.95192724700019,39.31300859686854,20.51113492010529,0.0,23.929657406789545,27.401542246446567,29.25783965728644,28.202810515144847,46.15005357023699,66.66118849034228,73.99344344086106,{}
181,94,187,0,7.799458333333318,23.96950621554306,167.1432700471355,15.347972620804184,22.292929426337665,42.676492515760586,44.35977915457977,34.067069157740285,95.65304678553156,73.37175088815118,61.01640139213311,81.35520185617747,62.71130143080347,38.13525087008321,22.881150522049893,4.2372500966758935,24.57605056072026,27.118400618725783,27.329441938723345,27.118400618725843,44.067401005429446,64.40620146947381,70.00573231308033,{}
182,94,188,0,7.841166666666651,28.184555732995776,167.3944100586483,15.639935531854078,23.55005972284076,42.27683359949363,46.919806595562186,34.37828302507797,101.7399525107042,78.1996776592703,63.805501777393886,82.48028278541159,65.36173352806202,39.683909642037634,27.23405563669252,5.446811127338549,25.677823886024328,31.12463501336288,29.934715413068893,28.7902873873606,48.24318427071242,70.03042878006642,72.00830783657744,{}
183,94,189,0,7.882874999999984,26.50407895746869,161.0601788432794,14.093557896584064,20.47089210523304,42.28067368975227,45.37568356761352,36.09980496386569,97.1082034601873,76.65828800046268,63.03311080693129,80.93140152988707,65.36767046644724,37.35295455225554,23.345596595159748,3.1127462126879664,24.90196970150368,28.01471591419167,28.1871157931681,27.23652936101968,48.24756629666348,68.48041667913526,73.56230045275187,{}
184,94,190,0,7.924583333333317,9.577965994488675,162.94719469842997,17.39211282579603,20.710733500226382,42.63089163202374,44.20135037749069,34.78422565159204,82.42286571041552,61.73185998862935,56.68588475780752,78.73039549695483,62.98431639756387,36.215981928599206,11.022255369573656,7.873039549695477,20.46990282920825,25.242885096616675,23.67154738984476,22.83181469411693,48.81284520811201,70.85735594725935,74.60717597688598,{}
185,94,191,0,7.966291666666651,12.640459747715845,162.24848526890364,18.879487151556265,22.1728331789238,44.01181719550696,44.01181719550696,31.51351698849843,85.18524332431336,63.027033976996776,56.44281851616637,78.39280349467549,62.7142427957404,39.19640174733775,14.11070462904155,6.271424279574092,21.94998497850918,15.756758494249183,15.756758494249176,14.894632663988318,47.03568209680526,70.55352314520792,75.84275848629522,{}
186,94,192,0,8.007999999999985,18.81140388092781,158.2765894739065,17.25508575674066,21.926550815496967,42.29501604347051,45.41147006830189,31.39987283660173,89.38744920348506,67.46470486096256,57.80147629452375,76.54790103869362,64.05028454258036,39.05505155035388,18.74642474416981,1.562202062014194,23.43303093021234,9.88023336275271,7.811010310070742,7.811010310070742,49.99046598445298,70.29909279063699,75.39142479808444,{}
187,94,193,0,8.049708333333319,18.669138881848504,152.44339290892225,17.054263565891517,24.85460394090137,41.97515153699491,43.438529383323626,35.96097210773083,96.43610257416424,71.5869542983888,62.01550387596899,75.96899224806202,63.5658914728682,34.10852713178298,26.3565891472868,1.5503875968992131,20.155038759689944,8.349092724239533,6.39241182266302,5.426356589147304,52.71317829457365,71.31782945736433,74.82126209000718,{}
188,94,194,0,8.091416666666653,18.375549665860376,143.5744100608167,18.375549665860376,22.940905578146086,38.18066641793758,39.676164829017694,36.75109933172069,96.4407031373868,73.50219866344143,64.09226626225939,73.24830429972502,67.1442789414146,33.57213947070733,25.94210777281927,1.5260063395776342,16.786069735353635,13.818575128114508,15.336173909796887,14.49706022598724,59.5142472435266,70.19629162056984,73.5021986634416,{}
189,94,195,0,8.133124999999987,18.64095240871211,141.36055576606668,17.087539707986082,23.30119051089008,37.31425354786355,40.38873021887628,38.959392331126594,97.91430241594168,74.62850709572722,65.24333343049227,71.45698423339627,71.45698423339627,32.621666715246135,26.408015912342137,1.553412700726028,17.087539707986025,21.74777781016411,23.352913527942725,23.30119051089008,65.24333343049224,69.90357153267027,76.25974924724221,{}
190,94,196,0,8.174833333333321,15.462004716057152,146.89718247434752,17.00820518766284,21.701957791488848,35.56261084693142,38.68592343985693,37.23743843322684,91.23893027763395,69.64770734088,61.84801886422849,68.0328207506513,69.57902122225704,31.69710966791712,22.419906838282827,0.7731002358028718,14.68890448025428,28.002881542318868,26.33084523015131,27.0585082531,64.94041980743992,68.03282075065135,77.44905660542209,{}
191,94,197,0,8.216541666666656,16.951939853783472,149.49323132987703,15.410854412530457,21.630164919313373,38.557945421320845,41.637835752915166,35.74521021670244,89.43608068241466,67.96518767675016,59.33178948824224,67.807759415134,66.26667397388098,31.59225154568741,22.3457388981692,0.7705427206265085,17.722482574410037,26.243739402002312,26.24373940200225,26.968995221928253,63.18450309137492,69.3488448563871,74.0362852279526,{}
192,94,198,0,8.25824999999999,23.586246833345967,154.104834968641,14.151748100007524,23.58624683334591,40.91305544774166,44.02766075557906,33.35599015719728,94.46284495251916,70.91580781982977,58.965617083364805,64.46907467781222,62.89665822225578,30.6621208833497,30.6621208833497,7.07587405000379,16.510372783342177,29.91726341952153,29.87591265557154,29.875912655571483,64.46907467781222,73.90357341115057,77.30470110514544,{}
193,94,199,0,8.299958333333324,29.7956747722414,150.57923442206626,12.545547272522697,23.57511629709022,40.89348097680665,43.90941545382952,33.52414606942039,99.10684582577755,75.53419701239588,60.375446249015454,62.72773636261349,59.5913495444828,28.227481363176025,37.63664181756815,14.11374068158807,17.2501274997187,29.83691448024441,29.83691448024441,29.7956747722414,59.5913495444828,75.27328363513618,77.24049040846675,{}
194,94,200,0,8.341666666666658,48.60958063273415,152.36323372449485,16.194199264592896,29.194507906785383,43.754316994963816,48.58259779377863,36.211330396806815,129.91745264167355,100.73000225944445,76.1127365435866,77.73215647004588,71.25447676420873,38.866078235023,55.06027749961572,24.29129889688932,24.291298896889373,32.42885875549083,32.428858755490886,32.38839852918579,61.53795720545296,77.73215647004585,73.32235567231523,{}
195,94,201,0,8.383374999999992,54.28530200128201,144.31826751165212,17.124462093246155,31.046254228166287,38.79039390565044,44.96090258447725,34.423932603382504,136.74983835600258,105.71017608548976,78.2939855350379,77.51879755944339,71.31729375468791,40.30977473091053,62.0150380475547,29.457143072588508,23.255639267832976,31.046254228166408,31.04625422816641,31.78270699937184,60.46466209636583,74.41804565706565,73.13108735555043,"{'others': (['m1', 'm3', 'm12', 'e1', 'e2'], 4.214344975106996, 148)}"
196,94,202,0,8.425083333333326,21.920032045552475,142.15244307844557,18.74085142663273,26.549539521063025,37.48170285326546,40.635200407960745,48.51451882256858,115.6635153386226,89.1422540853361,78.08688094430295,78.086880944303,74.96340570653086,28.11127713994909,39.043440472151474,12.493900951088447,9.370425713316363,31.27377144649814,31.273771446498195,32.01562118716424,62.469504755442415,73.40166808764482,73.81585526026835,"{'others': (['m1', 'm3', 'm12', 'e1', 'e2'], 4.214344975106996, 148)}"
197,94,203,0,8.46679166666666,4.685748605495348,148.45600624236647,18.80796166850522,25.039421537586428,37.485988843962105,40.63984699756694,50.20048241656176,98.71013824754252,73.67543988967185,71.06718718334525,70.28622908242937,65.60048047693402,17.96203632106534,30.45736593571928,2.3428743027476457,0.7809581009159388,32.94865837310118,32.83740766142628,32.01928213755116,60.91473187143876,73.41006148609284,73.82429602055502,"{'others': (['m1', 'm3', 'm12', 'e1', 'e2'], 4.214344975106996, 148)}"
198,94,204,0,8.508499999999994,3.4934297968013546,151.6727976258867,20.37002109316773,28.16493144739866,37.52795719718434,42.21127284027555,45.73592099350081,97.47858579604387,69.37779189552481,67.17929990233097,65.61699060227681,59.36775340206003,17.18540230059631,34.37080460119273,4.686927900162687,0.0,32.84567207827931,32.95695078918806,32.80849530113841,59.36775340206003,78.11546500271058,75.57444155760562,"{'others': (['m1', 'm3', 'm12', 'e1', 'e2'], 4.214344975106996, 148)}"
199,94,205,0,8.550208333333329,15.458488925251556,150.86687280078303,16.989721803198876,27.72988271817561,41.55925773978293,44.60713701671625,40.725400249823416,100.735924240225,73.09174342896827,64.60343981731307,63.06526267880565,56.91255412477585,19.996302800596823,39.99260560119399,9.229062831044873,6.152708554029744,30.9169778505032,30.91697785050319,30.76354277014917,59.98890840179081,76.90885692537285,72.8810338954079,"{'others': (['m1', 'm3', 'm12', 'e1', 'e2'], 4.214344975106996, 148)}"
200,94,206,0,8.591916666666663,18.66227118263976,153.43973644705054,15.498172655229382,29.48728450464195,41.845066169119264,45.05145785935768,35.947743370119774,99.49054320079892,70.01675791439524,60.44287335539457,57.343238824348646,55.793421558825685,20.922533084559632,42.61997480188074,11.623629491422092,6.974177694853154,31.03506655642472,31.035066556424663,30.221436677697227,63.542507886440376,72.841411479578,76.19365725630914,"{'others': (['m1', 'm3', 'm12', 'e1', 'e2'], 4.214344975106996, 148)}"
201,94,207,0,8.633624999999997,12.437810794951927,150.840508695931,12.437810794951815,24.875621589903744,40.45277261823768,42.09261880309278,37.44276876013418,87.12018381101898,62.26674176766616,55.9701485772834,54.41542222791446,57.52487492665233,18.65671619242778,31.09452698737971,3.1094526987379822,6.2189053974759645,32.68624966967937,32.68624966967937,32.64925333674864,63.743780324128295,68.40795937223527,74.77247830284583,"{'others': (['m1', 'm3', 'm12', 'e1', 'e2'], 4.214344975106996, 148)}"
202,94,208,0,8.675333333333331,9.412556967904672,148.6243413840437,13.92673350129752,24.75863733564006,40.262532650945126,41.894667021148805,37.26668413989097,85.23432847903528,60.52746302551681,55.706934005190135,52.6121043382351,57.25434883866762,17.795270584991272,30.17458925281136,0.7737074167387732,5.415951917171242,31.102653221452755,30.98695789220604,30.94829666955001,66.53883783953265,68.08625267301014,75.96530344274005,"{'others': (['m1', 'm3', 'm12', 'e1', 'e2'], 4.214344975106996, 148)}"
203,94,209,0,8.717041666666665,13.905057527843214,147.44543269858735,13.820010506624328,24.568907567332133,36.85336135099829,41.57362086018665,37.14016226286641,89.2738396118784,64.78520911420831,57.58337711093469,56.815598749455546,59.88671219537207,21.497794121415662,30.711134459165123,3.071113445916467,9.213340337749573,29.336770000106352,29.215959178005324,28.407799374727745,62.95782564128862,67.56449581016338,72.31803792152199,"{'others': (['m1', 'm3', 'm12', 'e1', 'e2'], 4.214344975106996, 148)}"
204,94,210,0,8.75875,15.424597745593928,144.99121880858354,13.88213797103458,26.267143454871768,38.56149436398482,40.13360586469407,38.83814474184943,94.29211906343028,68.02579873606989,60.15593120781648,58.61347143325713,58.61347143325713,20.0519770692722,35.476574814866126,6.16983909823756,7.712298872797021,27.80708903757267,27.80708903757267,27.76427594206916,64.78331053149469,70.95314962973228,72.75768205074823,"{'others': (['m1', 'm3', 'm12', 'e1', 'e2'], 4.214344975106996, 148)}"
205,94,211,0,8.800458333333333,10.87205423163777,138.37865890714193,18.4504878542856,29.21327243595221,33.82589439952358,38.438516363095005,41.76906837677067,100.12919949721676,70.99376490591494,65.34547781726144,63.039166835475726,63.039166835475726,21.52556916333316,36.9009757085712,4.612621963571428,4.612621963571371,29.37467295944613,29.253706050370354,28.444502108690244,63.03916683547576,72.26441076261855,75.59010230080162,"{'others': (['m1', 'm3', 'm12', 'e1', 'e2'], 4.214344975106996, 148)}"
206,94,212,0,8.842166666666667,10.91763888684164,138.96743428825536,18.52784757943607,27.83462686318249,35.51170786058583,38.63054986109744,43.47907708743076,100.65565708590628,72.82973520084178,67.16344747545565,66.3914538263125,64.84746652802619,22.387815825151904,34.73971421144256,3.8599682457158337,5.403955544002201,29.376361813056004,29.376361813056004,29.33575866744036,64.84746652802619,75.65537761603053,75.9070386107935,"{'others': (['m1', 'm3', 'm12', 'e1', 'e2'], 4.214344975106996, 148)}"
207,94,213,0,8.883875000000002,30.44870805290274,136.34760181858442,16.663678298566595,27.30988479241736,37.90228162065904,42.44367847429236,38.35369429713768,112.60153962258624,85.31880753961033,69.68447288491467,68.16959303959044,66.65471319426621,29.54015698382256,44.688955437064806,14.391358530580192,14.391358530580192,27.30988479241736,28.94173880757497,29.5401569838225,63.62495350361772,77.2588721115358,76.12177013225686,"{'others': (['m1', 'm3', 'm12', 'e1', 'e2'], 4.214344975106996, 148)}"
208,94,214,0,8.925583333333336,41.40737756589288,153.2862281588488,12.355859881902822,27.628542616397247,42.938920776745206,45.97667403219782,34.57603486885505,115.593726106919,88.01194567025597,66.66617734668682,64.36734364507697,61.30223204293043,29.118560220392,52.10689723649091,21.45578121502569,18.39066961287915,27.628542616397134,27.628542616397127,27.586004419318726,65.89989944615024,79.6929016558096,74.1351592914167,"{'others': (['m1', 'm3', 'm12', 'e1', 'e2'], 4.214344975106996, 148)}"
209,94,215,0,8.96729166666667,38.19595720086511,155.72246642117383,12.212939857408289,24.47354001323824,45.79852446528105,50.401502172109815,32.95514218735277,107.3962107182852,82.94465555830574,63.35462551030543,58.011464322689335,59.538081804865385,26.71580593808062,48.088450688545095,20.60933600937653,16.029483562848384,27.521488050027127,29.045878522650103,29.005732161344667,67.17116921574552,82.43734403750588,75.05308644187956,"{'others': (['m1', 'm3', 'm12', 'e1', 'e2'], 4.214344975106996, 148)}"
210,94,216,0,9.009000000000004,34.432787161726765,154.19900337642844,12.06982630826726,23.953243242940346,41.91817567514556,44.9372754484904,29.412910023983507,99.21458218154164,75.3909067395116,57.63749155332528,49.40356418856453,49.40356418856453,20.95908783757284,49.40356418856448,22.456165540256563,10.47954391878642,28.60162934997964,28.4838458872744,28.44447635099169,70.36265202613728,82.33927364760746,76.58543851466442,"{'others': (['m1', 'm3', 'm12', 'e1', 'e2'], 4.214344975106996, 148)}"
211,94,217,0,9.050708333333338,34.58035761920968,148.85348035295354,12.121554615409082,25.559394762024567,40.59433285733314,42.12466621480365,30.66537709345518,102.5135840291353,77.04580641599854,59.388005476468834,48.11180190498743,49.61529571451831,18.79367261913569,53.37403023834543,24.8076478572591,8.2692159524197,27.22943099621463,28.72420889917819,28.56638238108621,73.67119666701197,84.19565333372796,76.91366486895447,"{'others': (['m1', 'm3', 'm12', 'e1', 'e2'], 4.214344975106996, 148)}"
212,94,218,0,9.092416666666672,30.185240752255936,146.40619714296784,12.168059556956589,27.208608323620965,40.77801473429968,42.28627957234616,31.114233989062484,100.16998408445046,73.00835734173972,57.35195742928624,49.80564724122229,51.314909278835046,20.37503750777273,49.05101622241585,17.35651343254716,8.300941206870391,27.20860832362096,28.71566866957558,28.67597871464318,72.44457780541418,79.99088799347817,72.69568628038098,"{'others': (['m1', 'm3', 'm12', 'e1', 'e2'], 4.214344975106996, 148)}"
213,94,219,0,9.134125000000006,25.51057905003841,145.3400639400306,11.984262263768583,26.964590093479387,35.95278679130581,40.5576987318253,30.55399356948492,94.6728274750001,67.82631899679457,54.67819657844427,47.93704905507445,50.93311462101661,19.47442617862401,44.94098348913224,14.980327829710744,7.490163914855429,27.00617005664117,27.00617005664119,26.964590093479387,56.925245752900906,67.41147523369844,61.8743758382132,"{'others': (['m1', 'm3', 'm12', 'e1', 'e2'], 4.214344975106996, 148)}"
214,94,220,0,9.17583333333334,25.249342530478373,150.1945059976445,11.882043543754548,25.24934253047843,38.73072342458366,41.82517302510409,30.29338594548179,92.27728431828793,67.100020824927,54.21182366838013,43.07240784611025,50.4986850609568,17.080437594147156,45.300291010564194,15.59518215117788,3.713138607423275,26.899120129204107,28.21985341641704,28.21985341641704,83.17430480628181,86.14481569222045,74.39632504870654,"{'others': (['m1', 'm3', 'm12', 'e1', 'e2'], 4.214344975106996, 148)}"
215,94,221,0,9.217541666666676,25.64212673217139,160.23445317964644,10.558522772070546,25.64212673217139,42.47581441022164,45.65126934899561,29.287061285879936,90.70251551447794,65.13951774560049,52.03843366234781,31.67556831621169,42.23409108828224,8.295982178055397,53.54679405835793,21.87122574214618,3.7709009900252113,28.81718490331533,30.20489339138492,30.16720792020164,57.31769504838309,55.80933465237303,65.13951774560044,"{'others': (['m1', 'm3', 'm12', 'e1', 'e2'], 4.214344975106996, 148)}"
216,94,222,0,9.25925000000001,37.33053994199239,159.89784280635396,10.444199163899384,25.3644836837558,43.37160155904761,48.11647179081233,26.897925440426896,99.02618800731516,73.85164052856163,54.45903849747566,29.84056903971276,38.79273975162647,8.952170711913823,64.1572234353822,31.332597491698262,1.492028451985561,28.69974030488468,29.98940073125836,29.840569039712705,58.18910962743979,56.69708117545417,68.89230332970351,"{'others': (['m1', 'm3', 'm12', 'e1', 'e2'], 4.214344975106996, 148)}"
217,94,223,0,9.300958333333345,47.247488369389416,159.62823987405875,10.330345197809947,26.604706645676472,44.37118315702257,50.71562044136673,26.39926182096189,108.7368417765342,82.24651783457928,57.55478038779847,28.0395083940557,36.89408999217858,8.854581598122877,75.26394358404411,41.3213807912399,0.0,28.38687962421677,29.66248124606677,29.51527199374277,60.50630758717273,57.55478038779847,70.97487077550511,"{'others': (['m1', 'm3', 'm12', 'e1', 'e2'], 4.214344975106996, 148)}"
218,94,224,0,9.342666666666675,50.83398915201913,161.3666847596586,10.447761194029797,28.35820895522386,46.36484945375843,51.09624707051849,26.699319134325915,114.4105546073839,86.37394803719577,59.70149253731347,29.85074626865673,37.31343283582089,9.701492537313356,79.85074626865674,44.02985074626872,0.7462686567163246,30.184699128592086,29.999628719763823,29.85074626865668,58.208955223880594,61.19402985074623,71.89011688831222,"{'others': (['m1', 'm3', 'm12', 'e1', 'e2'], 4.214344975106996, 148)}"
219,94,225,0,9.384375000000013,34.93360712562717,154.32774285313735,8.725830560407076,26.217857922132325,43.72599898735501,48.343341337617446,28.08729664190496,96.87244016190232,70.76954023810119,52.35498336244302,27.63179677462267,34.90332224162864,5.090067826904146,64.71657665635325,32.72186460152693,2.1814576401018257,27.97411701441682,29.23117060768927,29.086101868023945,55.26359354924551,55.26359354924551,71.49799289100486,"{'others': (['m1', 'm3', 'm12', 'e1', 'e2'], 4.214344975106996, 148)}"
220,94,226,0,9.426083333333343,10.180741267798794,145.55546579399314,10.284101697094767,23.270265754968705,40.95603958854793,42.57667783958047,30.368588378209694,73.42877418676642,50.4864558070783,44.35894409540913,29.087832193710824,34.90539863245306,2.9087832193711165,40.72296507119529,11.635132877484352,7.271958048427791,29.41325001284965,29.232909563483098,29.087832193710938,55.26688116805076,58.17566438742188,71.50224629059149,"{'others': (['m1', 'm3', 'm12', 'e1', 'e2'], 4.214344975106996, 148)}"
221,94,227,0,9.46779166666668,10.293491575158669,148.58588127013107,8.94469497990211,22.106444231091785,41.27886829562106,44.50536941419404,32.116178490658925,73.00845116182424,51.04558635170355,44.85021329176232,30.880474725475665,35.29197111482938,2.2057481946768576,38.96821810595736,11.028740973384174,6.617244584030459,29.738997705690704,31.02020609396724,30.14522532725005,55.87895426514643,58.81995185804885,72.29412382034226,"{'others': (['m1', 'm3', 'm12', 'e1', 'e2'], 4.214344975106996, 148)}"
222,94,228,0,9.509500000000012,16.175486760963395,147.11603720885842,8.822992778707317,25.04169215539768,41.27886829562095,42.87203871767496,31.15931085492205,80.27361208321327,55.37360377740331,46.320712088213554,32.3509735219269,36.76246991128062,5.146745787579221,44.85021329176232,13.969738566286653,3.676246991128096,29.738997705690704,29.556660010685484,30.14522532725005,55.87895426514649,61.76094945095139,76.81860941584863,{}
223,94,229,0,9.551208333333348,21.89766438281572,144.55407372201907,10.322657984824012,24.817352967191027,40.90170052192128,44.01376068806928,30.482443731446544,86.73490134737352,62.15920312412394,50.364628080476,35.03626301250506,37.95595159688048,7.299221460938611,49.634705934382055,18.977975798440184,1.459844292187654,29.342507125379512,27.89028604125557,28.466963697660333,77.37174748594862,78.83159177813633,77.38551837641737,{}
224,94,230,0,9.592916666666682,25.09071356936693,147.6588344187115,8.855545965658962,23.66086692311667,39.87727941079063,43.03021877362373,32.23467387978581,89.15609184688662,65.54167657512083,52.39531363014862,35.422183862635734,39.84995684546516,6.641659474244193,50.919389302538775,21.400902750342425,0.737962163804923,31.30908301713295,31.134657799140328,30.9944108798062,78.22398936332041,81.17583801854005,78.27966480763813,{}
225,94,231,0,9.634625000000016,27.8371471054162,145.1127683136474,10.35991341427748,23.48754824560919,39.666429575227,44.342365803239495,30.592457696229065,91.59007213205857,68.17106422590483,53.476624702509866,35.16271213315724,39.55805114980183,8.058121530515223,53.47662470250998,24.174364591545668,2.197669508322292,29.44840695329244,30.906592710404176,31.49992961928672,77.65098929405565,79.11610229960388,76.24220596443851,{}
226,94,232,0,9.67633333333335,28.145059696509747,148.19853749982877,9.010511291312394,23.747349000742293,41.58260395754263,46.30158467752719,30.93084736243645,91.13422718216349,67.46102712293711,52.58682206453125,32.589016490695485,37.03297328488122,5.184616259883342,55.54945992732178,25.923081299416825,2.2219783970929257,31.423519844687657,29.77414203146792,30.36703809360256,77.0285844325528,79.99122229534333,74.19914550224604,{}
227,94,233,0,9.718041666666684,28.184014815079266,148.1615165561071,8.887913588371475,23.701102902323896,41.58260395754274,44.83284612070838,32.35249380488694,92.42528002637188,68.92511883300644,54.068140995926456,35.5516543534859,38.51429221627643,5.925275725581059,54.80880046162406,25.182421833719104,2.962637862790416,29.774142031467903,29.774142031467857,29.626378627904955,75.5472655011576,78.50990336394807,75.60533412272197,{}
228,94,234,0,9.759750000000018,29.77672271718701,151.67910337083654,8.92187143737226,23.79165716632599,41.741477665326656,46.31168446474889,31.50851105711329,92.95697617492122,69.427728626428,53.53122862423356,35.68748574948904,37.17446432238432,6.691403578029167,55.76169648357666,26.022125025669084,2.2304678593430936,29.887899417740734,28.408685746286075,28.99608217145982,77.3228857905595,78.80986436345489,77.33718233977862,{}
229,94,235,0,9.801458333333352,27.37622796246137,159.72363004061012,9.25128298172018,25.855326408991232,42.69374110866821,45.854614333031385,31.7573567762116,93.38385078942072,67.76124222345081,53.23155437145272,34.98073572981173,38.02253883675189,6.08360621388033,56.27335747839277,24.33442485552121,1.5209015534700256,33.76949476859867,33.59781345935589,33.4598341763417,80.60778233391414,85.17048699432434,74.58622790107569,{}
230,94,236,0,9.843166666666686,27.68903107776714,159.98106844932136,10.877278688652382,26.19595601785781,43.09928664408008,46.37855306681848,33.20689064592003,97.5079935320703,71.36025398990029,56.916341659854766,41.53354661665082,41.53354661665082,9.229677025922456,55.37806215553428,23.074192564805912,0.0,32.45004169286126,32.45004169286125,33.073009342888554,79.99053422466073,84.6053727376219,75.43845650168348,{}
231,94,237,0,9.88487500000002,28.4636209451196,155.808074708476,10.48659719030718,25.511473602511423,42.05325871471869,45.16671319344994,30.8838199063872,94.8064328879785,69.3178174333732,54.68011392088761,41.94638876122883,43.44447407412986,12.733725159658777,51.68394329508556,21.72223703706493,2.247127969351596,30.296900474049764,31.49544007139064,32.20883422737211,74.90426564505151,80.89660689665561,74.96416510735888,{}
232,94,238,0,9.926583333333356,5.17198140339849,134.4825672766026,20.75963440959272,25.91730976690752,34.479876022656754,37.92786362492234,43.09984502832077,94.88232903548102,68.98129860170394,66.37376134361415,74.13173344871183,72.40773964757892,30.169891519824542,21.54992251416047,4.3099845028319805,9.48196590623047,32.93685532372086,32.80121910442791,33.617879122090244,56.89179543738351,68.95975204531334,74.21187588665474,{}
233,94,239,0,9.968291666666689,5.499405408933468,137.43013016603544,20.868776242655485,26.143874859149,36.56174128033124,38.29892691463629,43.511384564538034,95.79073921334076,69.64948643191737,66.95399044518626,73.04071684929409,69.56258747551817,27.82503499020732,24.3469056164314,3.4781293737759142,8.695323434439842,34.824743215958726,34.95476760061504,33.91176139431519,57.38913466730253,71.30165216240619,76.83438919567685,{}
234,94,240,0,10.010000000000025,8.71627267280816,133.3771569444865,18.803418803418708,27.403794088686173,32.52358562468461,35.897435897436026,44.57574294155665,99.38079899999065,71.97778896214459,67.5213675213675,71.79487179487177,68.37606837606842,25.64102564102552,29.0598290598291,1.1368683772161605e-13,8.547008547008431,32.65807380263724,32.6580738026373,33.333333333333314,54.70085470085468,70.08547008547009,72.11973712727861,{}
235,94,241,0,10.051708333333355,18.644067796610216,128.82470959769392,18.720950876588617,27.17155854556168,33.89830508474574,39.01987943464864,40.81896467387212,105.3032174034513,78.1317326889228,68.64406779661016,67.79661016949154,66.1016949152542,26.27118644067798,38.13559322033905,7.627118644067877,9.322033898304994,32.24796201769565,33.94065151610302,33.89830508474574,57.62711864406782,71.18644067796612,71.5085529143354,{}
236,94,242,0,10.093416666666691,33.940651516103,142.41323076339,15.25423728813564,28.86336672190908,37.32663651787338,42.37288135593235,36.23314970581684,114.01376311079407,85.1684374671262,67.79661016949154,64.40677966101697,61.0169491525424,27.118644067796595,50.847457627118615,20.33898305084745,13.559322033898296,33.940651516103,32.24796201769565,33.05084745762713,55.93220338983053,69.49152542372883,71.68910502561567,{}
237,94,243,0,10.135125000000023,30.55524498105946,157.70769356474716,13.559200309362836,25.47993461304729,40.712896033148034,44.067401005429474,34.27723197260364,103.73563652141748,78.25961188756801,62.71130143080336,59.321501353462736,54.23680123745157,22.881150522049893,46.60975106343494,19.491350444709155,11.016850251357369,32.38101977232883,32.38101977232883,32.20310073473689,57.62660131479237,71.18580162415526,68.13413831548054,{}
238,94,244,0,10.17683333333336,25.36903912848092,165.6869546719772,13.500187046123642,25.3690391284808,42.22182149735391,47.28077940447472,32.46016034207352,96.5581944523758,71.19668943091045,58.21955663640813,55.688271565259925,45.56313128066722,18.56275718842005,45.56313128066711,20.250280569185406,6.750093523061878,32.10732203326969,30.5623482848858,31.2191825441609,54.000748184494455,70.87598199214898,69.70104865807177,{}
239,94,245,0,10.218541666666694,25.36700750148473,167.46850100558157,13.499105911583342,23.68362253923854,40.532456411846645,45.590719673262704,32.763153221115346,95.0345684826151,71.3707380817461,58.21489424370304,57.37120012422906,45.55948245159368,19.40496474790109,43.02840009317174,17.717576508953016,7.593247075265708,32.060376540010395,32.23750704013895,32.06037654001034,52.30903540738541,70.87030603581246,68.02079451922813,{}
240,94,246,0,10.260250000000028,25.47444669742486,166.61682761338218,13.556279903626546,23.96434361879321,44.09048485551529,47.4772295731058,32.901917986266874,95.63244485472762,71.67302106536988,58.46145708438951,57.61418959041293,44.05790968678639,18.63988486748656,44.05790968678639,18.63988486748656,6.778139951813273,30.501629783159785,30.689333891932733,30.501629783159785,52.53058462655298,71.17046949403948,68.30888918194837,{}
241,94,247,0,10.301958333333362,24.081378538243385,168.8488254476726,15.536570411325714,22.56686770717367,43.03021877362392,48.16275707648674,29.963887033445985,91.96361706885236,69.39686969806435,56.61899695623623,56.61899695623623,41.17745233180818,19.73086257565797,42.035315922054224,18.015135395166112,7.720772312213967,30.88308924885609,29.21778105511988,30.88308924885609,51.471815414760215,75.49199594164827,73.05452703997707,{}
242,94,248,0,10.343666666666696,23.96110996027171,164.77395235111098,12.07143280566913,22.45416298455532,42.985150144777,46.219559962563046,33.147020295384905,91.50432718922836,69.05028394006793,56.33622717047422,58.04338556957953,40.97180157852665,17.071583991052762,40.97180157852665,18.778742390158072,8.535791995526438,30.728851183895017,30.776235716565488,31.582430383447672,51.2147519731584,76.8221279597376,67.36248895366616,{}
243,94,249,0,10.38537500000003,19.258566069027264,159.23002923606643,12.18018664939228,25.895432021872804,41.48422089232013,44.918308924879206,33.445648132123566,90.62582731001662,64.86449731282917,54.25996322818986,56.843771000960885,41.3409243643352,16.36411589421607,40.47965510674476,14.641577379035311,6.0288848031322,31.053504702226828,31.05350470222681,31.005693273251325,53.39869397059954,79.23677169830904,69.94863905700271,{}
244,94,250,0,10.427083333333364,15.868183623571085,161.98556861965363,12.390969654161363,24.78193930832276,40.64540254101258,45.69563823820325,35.741021152637785,88.73180204188043,63.95469080349053,55.1989536079858,57.82747520836608,42.05634560608439,14.894955735488224,37.67547627211718,13.142608001901294,6.133217067554028,31.590898029452514,31.977345401745264,32.41843307135673,50.818084274018645,78.85564801140822,69.7645704377232,{}
245,94,251,0,10.468791666666698,12.436401767868858,157.51575523244517,14.503212090682442,24.872803535737653,38.852561150777056,42.24717252401102,35.56897872391812,87.32090004311829,62.45501039037049,55.40134334880861,58.03950255589473,40.4517745086539,14.070182437792596,36.93422889920589,12.311409633068706,3.517545609448121,31.70672764662152,31.85273023451749,31.657910485033483,52.76318414172255,80.90354901730791,69.68825146651427,{}
246,94,252,0,10.510500000000032,8.853728766338719,153.42970202294686,15.723400091738789,24.55582542006507,40.08696194390141,43.54766386019966,33.71399471264779,82.78263711564162,58.23925361464989,52.958951550091,53.8271310836991,39.936258545970304,13.89087253772891,34.727181344321934,8.681795336080427,1.736359067216199,31.25446320988982,31.446800183477656,32.12264274349786,52.09077201648307,79.87251709194067,67.09179991461855,{}
247,94,253,0,10.552208333333366,7.007844416368471,156.7197512039692,17.86656771364256,26.511982303246228,40.447162935911166,43.83405281989747,34.01693147191387,85.25410686809168,58.76256184028348,54.310794226855705,56.06275533094788,40.29510539411877,14.891669384782972,35.91520263388861,7.883824968414615,0.8759805520460304,31.53529987365817,31.72936508918124,31.53529987365817,54.31079422685582,80.59021078823764,71.14342804648255,{}
248,94,254,0,10.5939166666667,7.230111900537008,154.94960039813094,17.623056968446505,26.361782820756805,42.2313101680606,43.87404989889563,34.451981915494564,85.33189833449647,59.15503140616685,54.3603509752603,54.3603509752603,40.33187330422538,14.02847767103492,36.824753886466624,8.767798544396783,0.0,31.564074759828543,31.999461875436165,31.564074759828543,54.3603509752603,78.91018689957139,70.92710077017058,{}
249,94,255,0,10.635625000000037,7.23177990676512,156.3489683492117,19.37316846087264,28.11818611766756,40.37928963083398,45.63678837211936,35.77399194771283,90.29083649769711,62.28425625907529,57.88082057381223,54.37289205418722,45.60307075512469,14.908696208406129,39.46419584578109,9.646803428968724,0.8769821299063096,31.620040370425823,31.765643782260376,31.57135667662476,57.88082057381217,77.1744274317495,72.6784885823115,{}
250,94,256,0,10.677333333333369,15.384615384615358,159.0111160520696,18.880959003738937,29.11006216397679,41.02564102564111,46.185490892671126,32.88099839601936,96.10730117518358,67.01639584243641,58.97435897435889,52.991452991453,49.57264957264954,18.803418803418825,44.44444444444446,11.965811965812009,0.0,32.6580738026373,34.358549132037226,34.18803418803418,59.829059829059815,75.21367521367517,72.30183241899695,{}
251,94,257,0,10.719041666666705,30.29634346074189,163.0902048310433,16.80538766258053,26.88862026012873,43.72631403279581,48.764590419714594,29.010597070364536,102.73302685250152,75.92241910090183,60.49939558528973,52.096701753999525,47.05508545522531,21.00673457822564,52.93697113712847,22.68727334448363,5.8818856819032135,32.10664804813923,31.97443067909724,32.770505942031946,60.49939558528973,73.9437057153541,75.92241910090178,{}
252,94,258,0,10.760750000000035,25.584883573045225,170.4007163134246,17.018811396449223,28.98199147589668,47.68305295994696,51.05643418934801,32.73633734838512,104.16291183954476,75.19156638288119,62.11866159703982,56.16207760828263,47.65267191005796,19.571633105916703,51.90737475917024,21.2735142455615,5.956583988757302,35.78000196698945,35.90122197082164,35.73950393254347,62.96960216686233,78.2865324236667,78.581954350458,{}
253,94,259,0,10.802458333333371,27.17131462146784,171.48669926931657,15.254100348033262,27.17131462146784,45.79367732549878,49.15210112144064,32.38101977232885,101.91973845218904,74.74874276139987,61.01640139213299,55.93170127612194,45.76230104409984,18.643900425374,50.84700116011084,23.72860054138505,5.084700116011049,34.067069157740285,33.9403468246128,33.89800077340726,61.01640139213305,76.27050174016631,76.57122445118708,{}
254,94,260,0,10.844166666666704,22.00496300243752,170.7585796210463,16.877036203751345,27.00325792600222,45.5992408101928,50.65922919582194,32.243532393845705,98.01766504052624,71.06414738553511,59.91347852331728,54.00651585200421,43.88029412975345,16.877036203751345,48.94340499087889,20.252443444501523,3.375407240750292,35.60214687418675,35.602146874186694,35.44177602787778,60.7573303335048,77.63436653725614,74.56518310822909,{}
255,94,261,0,10.88587500000004,20.323366377708524,172.44948218659664,16.877637130801645,25.372652115397305,43.91430154011048,50.6610329782401,30.42659304189025,92.96499141887196,67.59488403207017,57.38396624472574,50.63291139240511,40.506329113924096,15.189873417721516,47.257383966244674,20.25316455696202,1.687763713080244,37.28391904535784,35.6034145311882,36.286919831223656,62.447257383966246,77.63713080168776,74.9488719364542,{}
256,94,262,0,10.927583333333374,11.814240825114894,168.90983486056228,16.877486893021228,27.056669769725072,40.50596854325113,45.56921461115758,33.797141165114326,89.51434650586515,62.4695047554424,56.5395810916213,48.94471198976174,42.19371723255318,11.81424082511478,43.881465921855465,16.87748689302134,5.063246067906448,35.60309760424319,35.60309760424319,35.44272247534474,62.44670150417875,75.94869101859581,77.92940844591283,{}
257,94,263,0,10.969291666666708,3.4176801056735258,164.08424204465956,18.797240581203823,27.341440845387524,44.4298413737547,46.13868142659135,35.92630473860522,85.4590893338661,58.12568636488621,56.39172174361181,46.13868142659146,42.72100132091805,8.544200264183587,41.012161268081286,10.253040317020236,6.835360211346824,35.926304738605154,34.21949539075322,35.031221083152786,64.93592200779534,71.77128221914222,82.18437014695701,{}
258,94,264,0,11.011000000000042,5.125210774178186,167.4322680744588,18.792439505319976,27.38779303975528,44.451335150291776,47.83530055899632,34.21075525714833,85.42017956963605,58.11084025862706,55.52311672026349,41.00168619342537,39.293282602032605,5.979412569874626,45.272695171907,14.521430526838117,11.104623344052584,37.73986885998372,36.03881324117342,35.87647541924713,66.62774006431613,70.04454724710155,80.45837308411912,{}
259,94,265,0,11.052708333333376,13.5380681576174,164.59495332679944,16.87565758648995,25.24377133031076,41.97976726951697,47.01733934185927,30.225432434052323,85.6551863016113,60.450864868104645,53.73410210498196,40.30057657873647,36.94219519717501,8.395953453903417,47.01733934185916,18.47109759858756,6.716762763122688,35.42256642766027,33.62576737827423,34.42340916100409,65.48843694044666,67.16762763122733,73.96067785958117,{}
260,94,266,0,11.09441666666671,24.98937309914811,168.2700259833416,13.327665652878975,25.04484347394885,44.98087157846658,49.97874619829645,28.321289512367912,91.64284518669643,66.638328264395,54.143641714821,39.982996958637045,38.31703875202709,10.828728342964157,52.47768350821104,25.82235220245309,0.8329791033049787,35.34031035201669,35.14342686827801,34.9851223388074,68.3042864710049,66.63832826439506,71.65557187278587,{}
261,94,267,0,11.136125000000044,28.352546214991666,169.85436413441266,11.654431888517706,24.973782618252244,48.28264639528766,51.61248407772132,26.63870145946896,91.5856706420826,66.61756188340897,52.44494349832962,38.29313334798667,34.96329566555312,9.989513047300877,54.94232176015498,28.303620300685907,0.0,36.96719749567854,35.121501431291925,35.795755086161535,66.59675364867257,66.59675364867257,73.27534610333558,{}
262,94,268,0,11.177833333333378,26.061640988282576,170.82026888585406,14.631124493166,24.38520748861015,47.14473447797968,52.04717103504943,26.010887987850765,91.05262180499236,66.67272289323702,53.64745647494215,40.64201248101677,34.13929048405407,11.379763494684653,53.64745647494226,27.63656848709149,0.0,34.29376770051774,32.67577363410094,32.513609984813456,63.40153947038624,65.02721996962691,73.1736833530245,{}
263,94,269,0,11.219541666666712,29.26224898633211,172.39113384307288,13.005443993925384,22.817513139372725,47.144734477979455,52.04717103504943,26.010887987850765,91.05262180499236,68.27858096810826,53.64745647494215,39.01633198177615,34.13929048405407,10.566923245064345,54.46029672456257,30.07508923595242,0.812840249620308,34.29376770051776,34.29376770051774,34.13929048405413,63.40153947038624,66.65290046886759,71.60379840543463,{}
264,94,270,0,11.261250000000048,29.26442428578025,175.70693417292188,13.006410793680176,22.76121888894022,47.14823912709062,52.02564317472047,26.063578360672725,91.05939048220716,68.30300870254058,53.651444523930536,40.64503373025048,34.14182833341033,11.380609444470224,53.65144452393042,27.638622936570187,1.6258013492100645,35.91512568850952,34.296317033413835,34.14182833341033,65.03205396840065,66.65785531761065,69.9283601275065,{}
265,94,271,0,11.30295833333338,26.16557443333673,174.83208412093,14.689473204756156,22.85029165184289,47.36087938607322,50.62339274790327,26.317848702993206,89.78383954361026,66.93861274202092,53.86140175077264,40.80409223543381,32.643273788347074,10.609063981212785,53.04531990606392,28.562864564803704,0.8160818447087195,36.05567437751794,34.43053074711957,34.2754374777644,63.65438388727671,66.91871126611142,71.98193461631212,{}
266,94,272,0,11.344666666666717,22.577708605564112,174.23807756142668,14.51424124643404,22.577708605564112,46.7681106829541,51.631383284994136,25.85344310060163,85.48796674232764,62.915717561312704,51.60619109843219,38.70464332382414,33.86656290834617,10.482507566869003,49.18715089069326,24.99674881330316,0.8063467359130527,34.21039469710339,34.01980605707871,33.86656290834611,62.895045401214304,67.73312581669228,71.03177918436387,{}
267,94,273,0,11.386375000000047,22.94908514208896,177.10408734594296,14.752983305628504,22.94908514208896,49.17661101876183,52.4550517533462,27.91491697351241,88.53307649909252,65.5893017456716,54.09427212063815,39.341288815009534,34.42362771313333,9.015712020106209,51.63544156970022,25.40791569302712,2.45883055093816,34.57939152996457,34.462634669231974,35.24323789677942,62.290373957098495,67.2080350589747,72.20016773067483,{}
