,frame_seq,m1,m3,m4,m5,m6,m7,m8,m9,m10,m11,m12,m13,m14,m15,m16,m17,e1,e2,e3,b1,b2,b3
0,37,0.0,60.03332407921454,7.0,10.0,15.033296378372908,16.0312195418814,12.041594578792296,29.017236257093817,19.026297590440446,19.0,17.0,15.0,4.0,13.0,3.0,2.0,5.0,6.0,5.5,28.0,28.0,32.0
1,38,0.0,59.033888572581766,7.0,10.04987562112089,15.033296378372908,15.033296378372908,13.038404810405298,30.066592756745816,20.024984394500787,20.0,18.0,16.0,4.0,13.0,3.0,2.0,5.0,5.0,5.0,28.0,28.0,32.0
2,39,1.0,60.03332407921454,7.0,10.0,15.033296378372908,16.0,12.165525060596439,30.066592756745816,20.09975124224178,19.5,17.0,15.0,4.0,14.0,3.0,2.0,5.0,5.0990195135927845,5.5,28.0,28.0,32.0
3,40,1.0,61.032778078668514,7.0,10.0,16.0,16.0312195418814,13.038404810405298,30.066592756745816,20.09975124224178,20.0,18.0,16.0,4.0,13.0,3.0,2.0,6.0,5.0,5.0,29.0,28.0,31.016124838541646
4,41,0.0,59.00847396772772,8.0,12.0,16.0312195418814,17.0,13.038404810405298,33.015148038438355,21.02379604162864,21.0,18.0,17.0,4.5,15.5,2.5,1.5,5.0,5.0,5.5,27.0,27.0,32.01562118716424
5,42,8.0,60.03332407921454,6.0,11.0,16.0312195418814,17.0,12.165525060596439,37.05401462729781,26.076809620810597,22.0,20.0,18.0,7.0,18.0,6.0,2.0,6.0,5.0,5.5,27.0,27.0,32.0
6,43,7.0,59.033888572581766,7.0,12.0,16.0312195418814,18.0,11.180339887498949,37.05401462729781,25.079872407968907,21.5,20.0,18.0,8.0,18.0,6.0,2.0,6.0,5.0,5.5,27.0,27.0,32.0
7,44,8.0,59.00847396772772,7.0710678118654755,12.0,17.0,18.0,12.041594578792296,39.05124837953327,27.073972741361768,23.0,21.0,20.0,8.5,18.5,6.5,2.5,7.0,7.0710678118654755,7.5,27.0,27.0,32.0
8,45,10.0,59.033888572581766,7.0710678118654755,11.0,15.033296378372908,18.027756377319946,12.041594578792296,40.049968789001575,29.068883707497267,24.0,22.0,20.0,9.0,19.0,7.0,3.0,8.0,8.06225774829855,8.0,28.0,27.0,32.0
9,46,9.0,61.032778078668514,8.06225774829855,12.0,17.0,18.027756377319946,11.045361017187261,40.049968789001575,28.071337695236398,23.5,22.0,20.0,10.0,19.0,7.0,3.0,9.0,8.06225774829855,8.0,27.0,27.0,32.0
10,47,9.0,60.03332407921454,8.06225774829855,12.0,17.0,18.027756377319946,11.045361017187261,40.049968789001575,28.071337695236398,23.5,22.0,20.0,10.0,19.0,6.0,3.0,8.06225774829855,8.06225774829855,8.0,27.0,27.0,32.0
11,48,10.04987562112089,61.00819617067857,7.0,12.041594578792296,16.0312195418814,17.029386365926403,12.041594578792296,41.012193308819754,29.068883707497267,24.0,21.0,20.0,8.5,20.5,7.5,2.5,9.055385138137417,8.0,8.0,27.0,27.0,32.0
12,49,11.0,63.00793600809346,7.0,11.0,17.029386365926403,18.0,12.165525060596439,41.048751503547585,30.066592756745816,24.5,21.0,20.0,8.5,20.5,8.5,2.5,9.0,9.0,8.5,27.0,28.0,32.01562118716424
13,50,10.04987562112089,62.00806399170998,8.0,12.0,18.0,19.0,11.40175425099138,41.048751503547585,29.068883707497267,24.0,21.0,20.0,9.5,20.5,7.5,2.5,9.0,8.06225774829855,8.0,27.0,27.0,33.0
14,51,11.0,63.00793600809346,7.0,12.041594578792296,16.0312195418814,18.0,12.165525060596439,42.01190307520001,30.066592756745816,24.5,20.0,19.0,7.5,22.5,9.5,1.5,9.055385138137417,8.06225774829855,8.5,27.0,28.0,32.0
15,52,8.06225774829855,63.0,7.0,12.0,17.029386365926403,19.0,12.165525060596439,39.01281840626232,27.018512172212592,23.0,19.0,19.0,7.0,20.0,7.0,1.0,9.0,8.06225774829855,8.5,27.0,27.0,32.0
16,53,6.0,61.00819617067857,8.0,12.041594578792296,17.0,17.0,11.180339887498949,37.013511046643494,25.079872407968907,22.0,17.0,18.0,6.5,19.5,6.5,0.5,9.055385138137417,9.055385138137417,9.5,27.0,28.0,32.0
17,54,2.0,58.008620049092706,7.0,12.041594578792296,16.0,17.0,14.142135623730951,35.014282800023196,23.08679276123039,22.0,19.0,18.0,4.5,16.5,3.5,1.5,9.055385138137417,8.0,8.5,27.0,28.0,32.0
18,55,2.23606797749979,58.0,7.0,12.0,16.0,17.0,14.142135623730951,35.014282800023196,23.021728866442675,22.0,19.0,19.0,5.0,16.0,3.0,1.0,10.04987562112089,9.055385138137417,9.0,27.0,28.0,32.0
19,56,1.4142135623730951,57.0087712549569,8.0,12.0,16.0,16.0,14.035668847618199,35.0,23.0,22.5,17.0,18.0,3.5,17.5,4.5,3.5,9.055385138137417,8.0,8.5,27.0,28.0,32.0
20,57,2.0,56.0,7.0,12.0,15.0,16.0312195418814,15.033296378372908,36.013886210738214,24.020824298928627,23.0,19.0,19.0,4.0,17.0,4.0,2.0,9.055385138137417,9.0,9.0,28.0,27.0,32.0
21,58,2.23606797749979,56.00892785976178,7.0,12.0,15.0,16.0312195418814,15.132745950421556,36.013886210738214,24.020824298928627,23.0,18.0,19.0,3.5,17.5,4.5,2.5,9.055385138137417,8.06225774829855,8.0,27.0,27.0,32.0
22,59,3.1622776601683795,59.0,8.0,11.0,16.0312195418814,17.0,14.142135623730951,36.013886210738214,25.019992006393608,23.5,18.0,18.0,4.0,18.0,6.0,2.0,9.0,8.06225774829855,8.5,27.0,27.0,31.0
23,60,2.23606797749979,58.008620049092706,8.0,12.0,16.0,17.029386365926403,14.317821063276353,36.05551275463989,24.08318915758459,23.0,19.0,18.0,4.5,17.5,4.5,2.5,10.04987562112089,9.055385138137417,9.5,27.0,28.0,32.0
24,61,9.0,61.0,8.0,11.0,17.0,18.0,12.165525060596439,40.049968789001575,29.068883707497267,24.5,20.0,20.0,8.0,20.0,8.0,1.0,9.0,9.0,9.0,27.0,27.0,32.0
25,62,9.0,61.0,7.0,11.0,17.0,18.0,13.152946437965905,40.049968789001575,29.068883707497267,24.5,20.0,20.0,7.0,20.0,7.0,0.0,9.055385138137417,9.055385138137417,9.0,28.0,28.0,31.0
26,63,8.0,61.00819617067857,7.0,11.0,17.0,18.027756377319946,12.165525060596439,38.05259518088089,27.073972741361768,23.0,18.0,19.0,6.5,19.5,7.5,0.5,9.055385138137417,8.06225774829855,8.5,28.0,28.0,31.016124838541646
27,64,1.0,61.00819617067857,9.0,11.045361017187261,16.0,17.0,13.152946437965905,34.0147027033899,23.08679276123039,22.5,18.0,19.0,5.5,15.5,3.5,2.5,9.055385138137417,9.0,8.5,27.0,28.0,31.0
28,65,2.0,59.0,7.0,10.0,16.0,17.0,13.038404810405298,32.01562118716424,22.02271554554524,21.0,17.0,17.0,4.0,15.0,4.0,2.0,9.0,9.0,9.0,26.0,27.0,30.0
29,66,1.0,59.0,7.0,10.0,16.0,16.0,13.038404810405298,31.016124838541646,21.02379604162864,20.5,17.0,17.0,4.0,14.0,3.0,2.0,9.055385138137417,8.0,8.5,26.0,27.0,30.0
30,67,2.0,59.0,7.0,10.0,16.0,16.0,13.152946437965905,32.0624390837628,22.090722034374522,21.0,17.0,17.0,4.0,15.0,4.0,2.0,8.06225774829855,8.0,8.5,26.0,27.0,30.0
31,68,1.0,60.0,7.0,10.0,16.0,17.0,13.152946437965905,31.064449134018133,21.095023109728988,20.5,17.0,17.0,4.0,14.0,3.0,2.0,8.06225774829855,8.0,8.5,26.0,28.0,30.0
32,69,2.0,59.0,7.0,9.0,16.0,17.029386365926403,13.152946437965905,31.064449134018133,22.090722034374522,21.0,17.0,17.0,4.0,14.0,4.0,2.0,8.0,8.0,8.0,26.0,27.0,30.0
33,70,1.0,59.0,8.0,10.0,16.0,16.0,12.165525060596439,31.064449134018133,21.095023109728988,20.5,17.0,17.0,5.0,14.0,3.0,2.0,8.06225774829855,8.0,8.0,26.0,27.0,30.0
34,71,1.0,59.0,7.0,10.0,16.0,17.029386365926403,13.152946437965905,31.064449134018133,21.095023109728988,20.5,17.0,17.0,4.0,14.0,3.0,2.0,9.055385138137417,8.0,8.0,26.0,27.0,30.01666203960727
35,72,2.0,58.0,8.0,12.0,15.0,17.029386365926403,12.041594578792296,34.0147027033899,22.02271554554524,21.0,18.0,18.0,6.0,16.0,3.0,1.0,9.055385138137417,8.06225774829855,8.0,26.0,27.0,31.0
36,73,3.0,59.0,7.0,12.0,16.0,16.0,12.165525060596439,34.058772731852805,22.090722034374522,20.5,18.0,18.0,6.0,16.0,3.0,1.0,9.055385138137417,8.0,8.5,27.0,28.0,30.01666203960727
37,74,7.0,58.0,7.0,12.0,16.0312195418814,17.0,12.165525060596439,38.05259518088089,26.076809620810597,22.5,20.0,20.0,8.0,18.0,6.0,2.0,5.0,5.0,5.5,27.0,27.0,30.0
38,75,7.0710678118654755,58.0,7.0,11.045361017187261,16.0,17.0,13.038404810405298,38.01315561749642,27.073972741361768,23.5,20.0,20.0,7.0,18.0,6.0,1.0,4.123105625617661,5.0,5.0,28.0,28.0,30.0
39,76,6.0,57.0087712549569,7.0,11.0,15.0,17.0,13.038404810405298,37.013511046643494,26.019223662515376,23.0,19.0,20.0,6.5,17.5,5.5,0.5,4.0,4.0,4.5,29.0,28.0,30.0
40,77,6.0,57.0,7.0,11.0,15.0,17.0,14.035668847618199,38.01315561749642,27.018512172212592,24.0,21.0,21.0,7.0,17.0,5.0,1.0,4.123105625617661,4.0,4.5,28.0,28.0,30.0
41,78,2.0,55.0,7.0,11.045361017187261,14.035668847618199,16.0,16.0312195418814,36.0,25.019992006393608,24.0,21.0,21.0,5.0,15.0,3.0,1.0,4.0,5.0990195135927845,5.0,28.0,29.0,31.0
42,79,2.0,56.0,7.0,10.0,15.033296378372908,15.0,15.033296378372908,34.0147027033899,24.020824298928627,23.0,21.0,21.0,6.0,13.0,2.0,0.0,4.0,5.0990195135927845,5.0,27.0,27.0,30.0
43,80,2.0,57.0,7.0,10.0,14.0,16.0,16.0312195418814,35.014282800023196,25.019992006393608,24.0,21.0,21.0,5.0,14.0,2.0,1.0,5.0,5.0,5.5,27.0,27.0,32.01562118716424
44,81,2.0,57.0,7.0,10.04987562112089,15.033296378372908,16.0,16.0312195418814,35.0,25.019992006393608,24.0,22.0,22.0,6.0,13.0,2.0,0.0,8.0,7.0,7.5,28.0,27.0,32.01562118716424
45,82,6.0,59.0,8.0,12.041594578792296,16.0,17.0,14.142135623730951,40.01249804748511,28.071337695236398,25.0,23.0,23.0,9.0,17.0,4.0,2.0,9.0,8.06225774829855,8.0,27.0,27.0,32.0
46,83,8.0,59.0,7.0,13.0,16.0,18.0,13.152946437965905,41.048751503547585,28.071337695236398,24.0,22.0,22.0,9.0,19.0,5.0,2.0,9.0,8.0,8.0,27.0,27.0,32.0
47,84,9.055385138137417,59.0,7.0,12.041594578792296,16.0312195418814,17.0,13.038404810405298,41.012193308819754,29.068883707497267,24.5,22.0,22.0,9.0,19.0,6.0,3.0,9.055385138137417,8.0,8.5,27.0,26.0,32.01562118716424
48,85,8.0,59.0,7.0,12.041594578792296,17.029386365926403,17.0,13.152946437965905,40.01249804748511,28.071337695236398,24.0,22.0,22.0,9.0,18.0,5.0,3.0,9.055385138137417,7.0,8.0,28.0,27.0,31.0
49,86,8.0,60.0,7.0,12.0,16.0,18.0,13.152946437965905,40.049968789001575,28.071337695236398,24.0,22.0,22.0,9.0,18.0,5.0,2.0,9.0,9.055385138137417,9.0,28.0,27.0,31.016124838541646
50,87,9.0,60.0,7.0,12.041594578792296,17.0,18.0,12.165525060596439,40.01249804748511,28.071337695236398,23.5,21.0,21.0,9.0,19.0,6.0,2.0,9.055385138137417,8.0,8.0,27.0,26.0,31.016124838541646
51,88,5.0,60.00833275470999,7.0,12.0,16.0,18.0,14.035668847618199,38.01315561749642,26.019223662515376,23.5,20.0,21.0,6.5,17.5,4.5,0.5,9.0,9.0,9.0,28.0,27.0,31.016124838541646
52,89,5.0,59.00847396772772,7.0710678118654755,12.0,15.033296378372908,17.0,14.035668847618199,38.05259518088089,26.076809620810597,23.5,20.0,21.0,6.5,17.5,4.5,0.5,9.055385138137417,9.0,9.0,28.0,27.0,31.016124838541646
53,90,3.0,57.0087712549569,7.0,10.0,16.0,17.0,16.0312195418814,36.013886210738214,26.019223662515376,24.5,20.0,21.0,4.5,15.5,3.5,1.5,9.055385138137417,8.0,8.5,28.0,27.0,30.01666203960727
54,91,3.0,57.0087712549569,7.0,10.04987562112089,16.0,17.0,15.033296378372908,35.0,25.019992006393608,23.5,20.0,21.0,5.5,14.5,3.5,0.5,9.055385138137417,8.0,8.5,28.0,27.0,31.0
55,92,2.0,58.008620049092706,6.0,11.0,15.0,16.0,16.0312195418814,35.014282800023196,24.020824298928627,23.0,20.0,21.0,4.5,14.5,2.5,0.5,9.055385138137417,9.0,9.0,28.0,27.0,31.016124838541646
56,93,4.0,58.0,8.0,12.0,16.0,16.0,13.038404810405298,37.013511046643494,25.019992006393608,23.0,21.0,21.0,8.0,16.0,3.0,1.0,9.055385138137417,8.0,8.5,28.0,27.0,31.016124838541646
57,94,5.0,58.008620049092706,7.0,12.041594578792296,15.033296378372908,17.0,12.165525060596439,36.013886210738214,24.08318915758459,21.5,21.0,20.0,8.5,15.5,3.5,2.5,9.055385138137417,9.0,9.0,27.0,26.0,31.016124838541646
58,95,5.0,58.0,7.0,12.0,16.0312195418814,16.0312195418814,12.165525060596439,36.05551275463989,24.08318915758459,21.5,20.0,20.0,8.0,16.0,3.0,2.0,9.055385138137417,8.0,9.0,27.0,26.0,31.0
59,96,4.0,58.008620049092706,7.0,12.0,16.0312195418814,17.0,13.152946437965905,36.05551275463989,24.08318915758459,22.0,21.0,20.0,7.5,15.5,2.5,1.5,9.055385138137417,8.06225774829855,8.5,27.0,26.0,31.016124838541646
60,97,4.0,58.008620049092706,7.0,12.0,16.0312195418814,17.0,12.041594578792296,35.014282800023196,23.021728866442675,21.0,20.0,19.0,7.5,15.5,2.5,1.5,9.055385138137417,9.0,9.0,27.0,26.0,31.016124838541646
61,98,4.0,58.008620049092706,7.0,12.0,16.0312195418814,17.029386365926403,13.152946437965905,36.05551275463989,24.08318915758459,22.0,21.0,20.0,7.5,15.5,2.5,1.5,10.04987562112089,8.06225774829855,9.0,28.0,27.0,31.016124838541646
62,99,5.0,58.0,7.0,11.0,15.033296378372908,16.0,12.165525060596439,35.05709628591621,24.08318915758459,21.5,20.0,20.0,8.0,15.0,3.0,2.0,10.04987562112089,9.055385138137417,9.5,27.0,26.0,31.016124838541646
63,100,7.0,57.0,6.0,11.0,15.0,17.0,12.041594578792296,36.013886210738214,25.019992006393608,21.5,20.0,20.0,8.0,16.0,4.0,2.0,9.0,9.055385138137417,9.0,28.0,27.0,31.0
64,101,9.0,59.00847396772772,6.0,12.0,16.0,17.029386365926403,12.041594578792296,39.01281840626232,27.018512172212592,22.5,21.0,20.0,8.5,18.5,5.5,2.5,8.06225774829855,9.0,9.0,28.0,27.0,32.01562118716424
65,102,9.0,59.00847396772772,6.0,12.0,16.0,17.0,12.041594578792296,39.01281840626232,27.018512172212592,22.5,21.0,20.0,8.5,18.5,5.5,2.5,8.06225774829855,9.0,9.0,28.0,26.0,32.01562118716424
66,103,9.0,60.0,6.0,11.0,16.0312195418814,17.029386365926403,12.041594578792296,38.01315561749642,27.018512172212592,22.5,20.0,20.0,8.0,18.0,6.0,3.0,9.055385138137417,8.0,8.5,28.0,26.0,33.0
67,104,9.0,59.00847396772772,6.0,12.041594578792296,16.0312195418814,18.0,12.041594578792296,39.0,27.018512172212592,22.5,19.0,20.0,7.5,19.5,6.5,2.5,9.055385138137417,9.0,9.0,26.0,25.0,32.01562118716424
68,105,8.0,59.00847396772772,7.0,11.0,16.0,18.0,11.045361017187261,37.013511046643494,26.019223662515376,22.0,19.0,18.0,7.5,18.5,6.5,1.5,9.055385138137417,8.0,8.5,27.0,25.0,32.01562118716424
69,106,9.0,58.0,6.0,12.0,16.0312195418814,17.029386365926403,12.041594578792296,39.01281840626232,27.018512172212592,22.5,20.0,20.0,8.0,19.0,6.0,3.0,9.055385138137417,9.055385138137417,9.0,27.0,26.0,32.01562118716424
70,107,9.0,60.0,6.0,12.041594578792296,16.0312195418814,17.0,11.180339887498949,38.01315561749642,26.076809620810597,21.5,19.0,19.0,8.0,19.0,6.0,3.0,9.055385138137417,9.055385138137417,9.0,28.0,26.0,32.01562118716424
71,108,10.0,60.0,6.0,12.041594578792296,16.0312195418814,17.0,11.045361017187261,39.0,27.018512172212592,22.0,20.0,20.0,9.0,19.0,6.0,4.0,9.055385138137417,9.0,9.0,28.0,26.0,32.01562118716424
72,109,12.0,59.0,7.0,12.0,17.0,18.0,11.045361017187261,42.01190307520001,30.01666203960727,24.0,21.0,21.0,10.0,21.0,8.0,4.0,10.04987562112089,9.0,9.0,29.0,27.0,32.01562118716424
73,110,11.0,59.00847396772772,7.0,12.041594578792296,16.0,19.0,11.045361017187261,41.0,29.017236257093817,23.5,20.0,21.0,9.5,20.5,7.5,3.5,10.04987562112089,8.0,8.5,28.0,26.0,32.01562118716424
74,111,12.0,59.00847396772772,7.0,12.041594578792296,16.0,18.0,12.041594578792296,43.0,31.016124838541646,25.0,21.0,22.0,9.5,21.5,8.5,3.5,9.055385138137417,8.0,9.0,29.0,26.0,32.01562118716424
75,112,12.0,59.00847396772772,7.0,12.041594578792296,16.0,19.0,11.045361017187261,42.0,30.01666203960727,24.0,21.0,22.0,10.5,20.5,6.5,3.5,9.055385138137417,8.0,8.5,28.0,26.0,32.0624390837628
76,113,11.0,59.00847396772772,7.0,13.038404810405298,16.0,18.0,12.041594578792296,43.0,30.01666203960727,24.5,21.0,22.0,9.5,21.5,7.5,3.5,9.055385138137417,8.0,8.5,29.0,26.0,33.06055050963308
77,114,16.0,60.00833275470999,6.0,12.041594578792296,17.0,19.0,12.041594578792296,46.0,34.0147027033899,26.0,22.0,23.0,10.5,23.5,9.5,4.5,9.055385138137417,8.0,8.5,29.0,26.0,32.01562118716424
78,115,14.0,60.00833275470999,7.0,13.0,17.0,18.0,11.045361017187261,45.0111097397076,32.01562118716424,25.0,21.0,22.0,10.5,23.5,9.5,4.5,9.055385138137417,9.0,9.0,29.0,25.0,32.01562118716424
79,116,10.0,59.033888572581766,7.0,12.041594578792296,16.0,18.0,11.045361017187261,40.0,28.0178514522438,23.0,20.0,22.0,10.0,19.0,6.0,4.0,9.055385138137417,8.0,8.5,28.0,25.0,31.016124838541646
80,117,10.0,57.0,7.0,11.0,16.0,18.0,11.045361017187261,39.01281840626232,28.0178514522438,23.0,21.0,21.0,10.0,18.0,6.0,4.0,9.219544457292887,8.0,8.5,27.0,25.0,32.01562118716424
81,118,4.123105625617661,56.0357029044876,7.0,12.0,15.0,16.0312195418814,13.038404810405298,36.0,24.0,22.0,19.0,21.0,7.0,16.0,3.0,1.0,9.055385138137417,9.0,9.0,28.0,25.0,31.016124838541646
82,119,2.23606797749979,55.036351623268054,7.0,12.041594578792296,15.0,15.0,16.0312195418814,37.013511046643494,25.0,24.0,19.0,21.0,4.0,17.0,3.0,2.0,9.219544457292887,8.0,8.5,28.0,25.0,32.01562118716424
83,120,2.23606797749979,55.036351623268054,7.0,12.041594578792296,14.0,15.033296378372908,15.033296378372908,36.013886210738214,24.0,23.0,18.0,20.0,4.0,17.0,3.0,2.0,9.055385138137417,8.0,8.5,28.0,25.0,32.01562118716424
84,121,1.0,55.036351623268054,7.0,12.041594578792296,14.0,16.0312195418814,16.0312195418814,36.0,24.020824298928627,23.5,19.0,21.0,4.0,16.0,3.0,2.0,9.055385138137417,8.06225774829855,8.5,29.0,26.0,32.01562118716424
85,122,2.23606797749979,54.00925846556311,7.0,12.0,14.0,16.0,16.0312195418814,37.0,25.0,24.0,20.0,21.0,4.5,16.5,3.5,1.5,9.055385138137417,8.0,9.0,28.0,26.0,31.0
86,123,2.0,55.0,7.0,12.041594578792296,14.0,15.0,16.1245154965971,37.013511046643494,25.079872407968907,24.0,21.0,21.0,5.0,16.0,3.0,1.0,10.198039027185569,9.0,9.5,29.0,26.0,31.0
87,124,3.0,54.0,8.0,12.041594578792296,15.0,17.029386365926403,14.142135623730951,37.013511046643494,25.079872407968907,23.5,21.0,21.0,7.0,16.0,3.0,0.0,9.219544457292887,8.0,8.5,28.0,26.0,31.0
88,125,4.123105625617661,56.0,7.0,14.035668847618199,15.0,17.029386365926403,13.038404810405298,38.01315561749642,24.08318915758459,22.0,21.0,21.0,8.0,17.0,3.0,1.0,9.219544457292887,8.0,8.5,29.0,26.0,32.01562118716424
89,126,4.123105625617661,56.0,8.0,14.035668847618199,15.033296378372908,17.029386365926403,12.041594578792296,38.01315561749642,24.08318915758459,22.0,21.0,21.0,9.0,17.0,3.0,2.0,9.055385138137417,8.0,9.0,28.0,26.0,31.016124838541646
90,127,7.0,57.0,7.0,12.0,16.0,16.0,12.165525060596439,38.05259518088089,26.076809620810597,22.5,21.0,21.0,9.0,17.0,4.0,2.0,9.055385138137417,8.0,9.0,28.0,26.0,31.0
91,128,8.0,58.008620049092706,7.0,13.0,16.0,17.0,13.152946437965905,41.048751503547585,28.071337695236398,24.0,21.0,22.0,8.5,19.5,5.5,2.5,9.055385138137417,8.06225774829855,8.5,28.0,26.0,32.01562118716424
92,129,9.0,60.0,8.06225774829855,12.0,16.0,18.0,12.165525060596439,41.10960958218893,29.154759474226502,24.5,21.0,21.0,9.0,20.0,7.0,2.0,9.055385138137417,8.0,8.5,28.0,26.0,33.015148038438355
93,130,8.06225774829855,59.00847396772772,7.0,13.0,16.0,17.0,13.152946437965905,41.10960958218893,28.160255680657446,24.0,20.0,21.0,7.5,20.5,6.5,1.5,9.055385138137417,9.055385138137417,9.0,28.0,26.0,32.01562118716424
94,131,9.055385138137417,60.0,7.0,12.0,16.0,17.0,13.152946437965905,41.10960958218893,29.154759474226502,24.5,21.0,21.0,8.0,20.0,6.0,2.0,10.04987562112089,9.0,9.0,28.0,26.0,32.01562118716424
95,132,9.055385138137417,60.00833275470999,7.0,12.0,15.0,18.0,13.152946437965905,41.10960958218893,29.154759474226502,24.5,20.0,21.0,7.5,20.5,7.5,1.5,9.055385138137417,9.055385138137417,9.0,28.0,26.0,32.01562118716424
96,133,8.06225774829855,60.00833275470999,7.0,12.0,15.0,18.027756377319946,13.152946437965905,40.11234224026316,28.160255680657446,24.0,20.0,21.0,7.5,19.5,6.5,1.5,9.055385138137417,9.055385138137417,9.0,28.0,26.0,32.01562118716424
97,134,8.06225774829855,60.0,7.0,12.0,16.0,18.0,12.165525060596439,39.11521443121589,27.16615541441225,23.0,20.0,20.0,8.0,19.0,6.0,2.0,7.0710678118654755,7.0,6.5,28.0,25.0,31.016124838541646
98,135,8.06225774829855,60.0,7.0,12.0,16.0312195418814,17.0,12.165525060596439,39.11521443121589,27.16615541441225,23.0,19.0,19.0,7.0,20.0,7.0,1.0,5.0,5.0,4.5,28.0,26.0,31.016124838541646
99,136,9.055385138137417,59.0,6.0,11.0,16.0312195418814,17.0,13.152946437965905,39.11521443121589,28.160255680657446,23.5,20.0,20.0,7.0,19.0,7.0,2.0,4.123105625617661,5.0,4.5,29.0,27.0,31.016124838541646
100,137,8.0,59.0,6.082762530298219,12.0,16.0,17.0,13.038404810405298,39.05124837953327,27.073972741361768,23.0,20.0,20.0,7.0,19.0,6.0,1.0,5.0990195135927845,5.0,5.0,29.0,27.0,32.01562118716424
101,138,8.0,59.0,6.082762530298219,11.0,15.033296378372908,17.0,13.038404810405298,38.05259518088089,27.073972741361768,23.0,19.0,19.0,6.0,19.0,7.0,1.0,5.0,5.0,5.0,29.0,28.0,31.016124838541646
102,139,8.06225774829855,61.0,7.0,11.0,16.0312195418814,18.027756377319946,12.041594578792296,38.05259518088089,27.073972741361768,23.0,19.0,19.0,7.0,19.0,7.0,1.0,5.0,5.0,5.0,29.0,27.0,32.01562118716424
103,140,8.06225774829855,60.0,6.0,11.0,16.0312195418814,18.0,13.152946437965905,38.118237105091836,27.16615541441225,23.0,19.0,19.0,6.0,19.0,7.0,1.0,5.0,5.0,5.0,28.0,27.0,31.016124838541646
104,141,7.0710678118654755,61.0,7.0,12.0,16.0312195418814,17.0,12.165525060596439,38.118237105091836,26.1725046566048,22.5,19.0,19.0,7.0,19.0,6.0,1.0,5.0,4.0,4.5,29.0,27.0,32.01562118716424
105,142,8.06225774829855,61.0,7.0,11.0,16.0,18.0,12.165525060596439,38.118237105091836,27.16615541441225,23.0,19.0,19.0,7.0,19.0,7.0,1.0,4.123105625617661,5.0,5.0,28.0,27.0,32.01562118716424
106,143,7.0710678118654755,61.0,7.0,12.0,16.0,18.0,12.165525060596439,38.118237105091836,26.1725046566048,22.5,19.0,19.0,7.0,19.0,6.0,1.0,4.123105625617661,5.0,5.0,28.0,27.0,31.016124838541646
107,144,7.0710678118654755,60.0,7.0,12.0,16.0,18.0,12.165525060596439,38.118237105091836,26.1725046566048,22.5,19.0,19.0,7.0,19.0,6.0,1.0,6.082762530298219,6.0,6.0,28.0,27.0,32.01562118716424
108,145,7.0,60.0,7.0,12.0,16.0,18.027756377319946,12.165525060596439,38.05259518088089,26.076809620810597,22.5,19.0,19.0,7.0,19.0,6.0,1.0,6.082762530298219,7.0,7.0,27.0,26.0,31.0
109,146,7.0,60.00833275470999,7.0710678118654755,11.0,16.0,18.0,12.041594578792296,37.05401462729781,26.076809620810597,22.5,18.0,19.0,6.5,18.5,6.5,0.5,7.0710678118654755,7.0,7.0,27.0,27.0,32.0
110,147,8.06225774829855,60.0,7.0,12.0,16.0312195418814,17.0,12.165525060596439,39.11521443121589,27.16615541441225,23.0,20.0,20.0,8.0,19.0,6.0,2.0,8.0,8.0,8.0,27.0,26.0,32.0
111,148,9.055385138137417,60.0,6.0,11.045361017187261,16.0312195418814,17.0,13.152946437965905,39.05124837953327,28.160255680657446,23.5,20.0,20.0,7.0,19.0,7.0,2.0,8.06225774829855,8.0,8.5,27.0,27.0,33.0
112,149,9.055385138137417,60.0,7.0,12.0,16.0312195418814,17.0,12.165525060596439,40.11234224026316,28.160255680657446,23.5,20.0,20.0,8.0,20.0,7.0,2.0,9.0,8.06225774829855,8.5,27.0,27.0,31.0
113,150,11.0,60.0,7.0,12.0,16.0312195418814,18.0,12.165525060596439,42.04759208325728,30.066592756745816,24.5,21.0,21.0,9.0,21.0,8.0,3.0,9.055385138137417,9.0,9.0,28.0,27.0,32.0
114,151,13.0,60.0,7.0,12.0,17.0,18.0,13.341664064126334,45.09988913511872,33.13608305156178,26.5,24.0,24.0,11.0,21.0,8.0,5.0,9.055385138137417,9.0,9.0,28.0,27.0,32.0
115,152,12.0,60.0,7.0710678118654755,13.0,17.029386365926403,18.0,13.038404810405298,45.044422518220834,32.0624390837628,26.0,24.0,24.0,11.0,21.0,7.0,5.0,10.04987562112089,9.0,9.0,27.0,27.0,32.0
116,153,10.0,58.008620049092706,7.0,12.0,15.0,17.0,13.152946437965905,42.04759208325728,30.066592756745816,25.0,23.0,24.0,10.5,18.5,5.5,4.5,10.04987562112089,8.0,8.5,28.0,27.0,31.016124838541646
117,154,4.0,58.0,7.0,11.0,14.0,15.0,14.035668847618199,36.013886210738214,25.019992006393608,23.0,23.0,23.0,9.0,13.0,2.0,3.0,9.055385138137417,9.0,9.0,28.0,27.0,31.016124838541646
118,155,3.0,57.0,7.0,11.045361017187261,14.0,15.0,12.041594578792296,33.0,22.02271554554524,20.5,21.0,21.0,9.0,12.0,1.0,2.0,9.055385138137417,9.0,9.0,29.0,28.0,31.016124838541646
119,156,3.0,57.0,7.0,11.0,15.0,16.0,12.041594578792296,33.015148038438355,22.02271554554524,20.5,21.0,21.0,9.0,12.0,1.0,2.0,9.055385138137417,8.0,8.5,28.0,27.0,31.016124838541646
120,157,3.0,57.0,7.0,11.045361017187261,15.0,15.0,12.041594578792296,33.0,22.02271554554524,20.5,21.0,21.0,9.0,12.0,1.0,2.0,10.0,9.0,9.0,28.0,27.0,31.0
121,158,6.0,58.008620049092706,7.0,11.0,14.0,15.0,12.041594578792296,36.013886210738214,25.019992006393608,22.0,21.0,22.0,9.5,14.5,1.5,3.5,10.04987562112089,9.0,9.0,28.0,26.0,30.01666203960727
122,159,8.0,57.0087712549569,7.0,12.041594578792296,15.0,16.0,12.041594578792296,39.0,27.018512172212592,23.0,23.0,24.0,11.5,15.5,2.5,5.5,10.04987562112089,9.055385138137417,9.0,28.0,26.0,31.016124838541646
123,160,9.055385138137417,54.00925846556311,7.0,12.041594578792296,14.0,15.0,13.038404810405298,41.012193308819754,29.0,24.5,23.0,24.0,10.5,17.5,4.5,3.5,9.055385138137417,9.0,9.0,29.0,28.0,32.0
124,161,2.0,55.00909015790027,8.0,12.041594578792296,14.0,15.0,15.033296378372908,37.0,25.019992006393608,24.0,22.0,23.0,7.5,14.5,1.5,0.5,9.055385138137417,9.055385138137417,9.0,28.0,27.0,30.01666203960727
125,162,2.0,55.0,8.0,12.041594578792296,14.0,16.0,15.033296378372908,37.0,25.019992006393608,24.0,22.0,22.0,7.0,15.0,2.0,0.0,9.055385138137417,9.0,9.5,28.0,27.0,32.01562118716424
126,163,1.0,56.00892785976178,8.0,11.045361017187261,15.0,15.0,14.0,34.0147027033899,23.0,22.5,20.0,21.0,6.5,13.5,1.5,0.5,9.055385138137417,8.0,8.5,28.0,26.0,31.0
127,164,2.23606797749979,56.0357029044876,7.0,12.0,15.033296378372908,16.0312195418814,14.035668847618199,35.0,23.0,22.0,19.0,21.0,6.0,15.0,1.0,1.0,9.055385138137417,9.0,9.0,27.0,26.0,30.0
128,165,2.0,56.00892785976178,8.0,12.0,15.0,16.0,13.038404810405298,35.014282800023196,23.021728866442675,22.0,20.0,21.0,7.5,14.5,1.5,0.5,9.0,8.06225774829855,8.5,27.0,26.0,31.016124838541646
129,166,2.0,54.00925846556311,8.0,12.0,14.0,16.0,13.038404810405298,35.014282800023196,23.021728866442675,22.0,20.0,21.0,7.5,14.5,1.5,0.5,10.04987562112089,8.06225774829855,8.5,27.0,26.0,31.016124838541646
130,167,4.0,56.0,7.0,13.038404810405298,14.0,16.0,13.038404810405298,37.0,24.020824298928627,22.0,21.0,21.0,8.0,16.0,2.0,2.0,9.055385138137417,9.055385138137417,9.0,28.0,27.0,31.0
131,168,5.0,55.0,7.0,12.0,15.033296378372908,16.0312195418814,12.165525060596439,36.05551275463989,24.08318915758459,21.5,20.0,20.0,8.0,16.0,3.0,2.0,9.055385138137417,9.055385138137417,9.0,27.0,27.0,30.0
132,169,4.0,54.0,7.0,13.038404810405298,14.035668847618199,15.0,13.152946437965905,37.013511046643494,24.08318915758459,22.0,21.0,21.0,8.0,16.0,2.0,2.0,10.04987562112089,9.055385138137417,9.5,27.0,27.0,30.0
133,170,2.23606797749979,55.0,8.06225774829855,13.0,15.0,16.0312195418814,14.035668847618199,37.013511046643494,24.020824298928627,23.0,20.0,20.0,6.0,17.0,3.0,1.0,10.04987562112089,10.04987562112089,10.0,27.0,27.0,30.0
134,171,1.0,54.00925846556311,8.0,13.0,14.0,15.033296378372908,14.142135623730951,36.05551275463989,23.08679276123039,22.5,21.0,20.0,6.5,15.5,1.5,0.5,10.04987562112089,9.055385138137417,9.5,27.0,27.0,31.0
135,172,1.0,54.00925846556311,8.0,13.0,14.0,15.033296378372908,14.142135623730951,36.05551275463989,23.08679276123039,22.5,21.0,20.0,6.5,15.5,1.5,0.5,10.04987562112089,9.055385138137417,9.5,27.0,27.0,31.0
136,173,2.0,55.00909015790027,7.0,12.0,14.0,15.0,15.132745950421556,36.05551275463989,24.08318915758459,23.0,21.0,20.0,5.5,15.5,2.5,0.5,9.055385138137417,9.055385138137417,9.5,28.0,28.0,30.0
137,174,2.0,55.036351623268054,8.0,12.0,14.035668847618199,16.0312195418814,14.035668847618199,36.013886210738214,24.020824298928627,23.0,21.0,19.0,6.0,16.0,2.0,0.0,9.055385138137417,8.0,8.5,28.0,27.0,30.0
138,175,3.0,54.00925846556311,8.0,12.041594578792296,13.038404810405298,15.0,14.142135623730951,37.013511046643494,25.079872407968907,23.5,22.0,21.0,7.5,15.5,2.5,0.5,9.055385138137417,9.0,9.0,28.0,27.0,31.016124838541646
139,176,4.0,55.00909015790027,8.0,12.0,14.035668847618199,16.0,13.038404810405298,37.013511046643494,25.019992006393608,23.0,22.0,21.0,8.5,15.5,2.5,1.5,9.055385138137417,9.0,9.0,28.0,27.0,31.0
140,177,4.0,55.036351623268054,8.0,12.0,14.0,16.0312195418814,12.041594578792296,36.013886210738214,24.020824298928627,22.0,22.0,20.0,9.0,15.0,3.0,2.0,10.04987562112089,8.0,9.0,27.0,27.0,30.01666203960727
141,178,5.0,57.0087712549569,7.0,12.0,15.033296378372908,16.0312195418814,13.038404810405298,37.013511046643494,25.019992006393608,22.5,22.0,21.0,8.5,15.5,2.5,2.5,9.0,8.0,8.5,27.0,27.0,30.0
142,179,5.0,56.00892785976178,7.0,12.0,15.033296378372908,16.0,13.152946437965905,37.05401462729781,25.079872407968907,22.5,22.0,21.0,8.5,15.5,3.5,2.5,9.055385138137417,8.0,8.5,27.0,26.0,32.0
143,180,7.0710678118654755,57.0087712549569,8.0,12.0,15.0,17.0,12.041594578792296,39.05124837953327,27.073972741361768,23.5,22.0,21.0,9.5,17.5,4.5,2.5,9.055385138137417,9.0,9.0,27.0,27.0,32.01562118716424
144,181,10.04987562112089,58.008620049092706,7.0,12.0,15.0,18.0,13.152946437965905,42.1070065428546,30.14962686336267,25.0,21.0,22.0,8.5,20.5,7.5,2.5,10.0,8.0,9.0,27.0,26.0,30.0
145,182,13.038404810405298,60.00833275470999,7.0,13.0,16.0,18.027756377319946,13.152946437965905,46.09772228646444,33.13608305156178,26.5,21.0,22.0,8.5,24.5,10.5,2.5,9.055385138137417,9.0,9.0,28.0,26.0,31.016124838541646
146,183,12.0,61.00819617067857,6.0,12.0,16.0,18.0,13.341664064126334,43.104524124504614,31.144823004794873,25.0,20.0,21.0,7.5,22.5,9.5,1.5,9.055385138137417,9.055385138137417,9.0,28.0,27.0,31.0
147,184,12.041594578792296,61.0,6.0,12.0,17.0,18.0,13.152946437965905,43.104524124504614,31.144823004794873,25.0,20.0,20.0,7.0,23.0,10.0,1.0,9.055385138137417,9.055385138137417,9.0,27.0,26.0,32.0
148,185,7.0,62.00806399170998,7.0710678118654755,11.045361017187261,17.0,17.0,13.152946437965905,38.05259518088089,27.16615541441225,23.5,18.0,19.0,5.5,19.5,7.5,0.5,9.055385138137417,9.055385138137417,9.5,28.0,27.0,31.0
149,186,7.0,62.0,7.0,11.0,17.0,18.0,12.165525060596439,37.05401462729781,26.076809620810597,22.5,17.0,17.0,5.0,20.0,7.0,1.0,9.055385138137417,8.06225774829855,8.5,28.0,27.0,32.0
150,187,7.0,62.00806399170998,7.0,11.0,16.0,18.0,12.165525060596439,37.05401462729781,26.076809620810597,22.5,16.0,17.0,4.5,20.5,8.5,1.5,9.055385138137417,9.0,9.0,28.0,27.0,31.016124838541646
151,188,7.0,62.00806399170998,7.0,11.0,16.0,18.0,12.165525060596439,37.05401462729781,26.076809620810597,22.5,17.0,18.0,5.5,19.5,7.5,0.5,9.055385138137417,8.0,8.5,27.0,26.0,31.0
152,189,7.0,62.00806399170998,7.0,11.0,17.0,18.0,12.165525060596439,37.05401462729781,26.076809620810597,22.5,17.0,18.0,5.5,19.5,7.5,0.5,9.055385138137417,8.06225774829855,8.5,27.0,26.0,31.016124838541646
153,190,7.0,62.00806399170998,7.0,11.0,17.0,18.0,12.165525060596439,37.05401462729781,26.076809620810597,22.5,17.0,18.0,5.5,19.5,7.5,0.5,9.055385138137417,8.06225774829855,8.5,28.0,27.0,31.016124838541646
154,191,7.0,62.00806399170998,7.0,11.0,16.0,18.0,12.165525060596439,37.05401462729781,26.076809620810597,22.5,17.0,18.0,5.5,19.5,7.5,0.5,9.055385138137417,9.0,9.0,28.0,27.0,31.016124838541646
155,192,7.0,62.00806399170998,7.0,11.0,17.0,18.0,12.165525060596439,37.05401462729781,26.076809620810597,22.5,17.0,18.0,5.5,19.5,7.5,0.5,9.055385138137417,8.06225774829855,8.5,27.0,26.0,33.0
156,193,7.0710678118654755,62.00806399170998,7.0,11.045361017187261,17.0,18.0,12.165525060596439,37.05401462729781,26.1725046566048,22.5,17.0,18.0,5.5,19.5,7.5,0.5,9.055385138137417,8.0,8.5,28.0,27.0,31.016124838541646
157,194,10.04987562112089,62.00806399170998,6.0,11.045361017187261,17.0,18.0,12.165525060596439,39.05124837953327,28.160255680657446,23.0,17.0,18.0,5.5,21.5,8.5,0.5,10.04987562112089,9.055385138137417,9.0,28.0,27.0,32.01562118716424
158,195,10.0,62.00806399170998,6.0,11.0,16.0,18.0,12.165525060596439,39.05124837953327,28.071337695236398,23.0,17.0,18.0,5.5,21.5,8.5,0.5,10.04987562112089,9.0,9.5,28.0,27.0,32.0
159,196,10.04987562112089,62.00806399170998,6.0,12.041594578792296,17.0,18.027756377319946,13.152946437965905,41.048751503547585,29.154759474226502,24.0,18.0,19.0,5.5,22.5,9.5,0.5,10.04987562112089,9.055385138137417,9.5,28.0,26.0,32.0
160,197,10.04987562112089,61.00819617067857,6.0,11.0,17.029386365926403,18.027756377319946,12.165525060596439,39.11521443121589,28.160255680657446,23.0,17.0,18.0,5.5,21.5,8.5,0.5,10.04987562112089,9.0,9.5,29.0,27.0,32.01562118716424
161,198,7.0710678118654755,62.00806399170998,7.0,11.0,17.0,18.0,12.165525060596439,37.12142238654117,26.1725046566048,22.5,17.0,18.0,5.5,19.5,6.5,0.5,10.04987562112089,9.0,9.5,28.0,27.0,32.01562118716424
162,199,7.0,61.00819617067857,6.082762530298219,12.0,17.0,18.027756377319946,12.165525060596439,37.12142238654117,25.179356624028344,21.5,17.0,18.0,5.5,19.5,6.5,0.5,9.0,9.055385138137417,9.5,28.0,27.0,32.01562118716424
163,200,6.082762530298219,61.00819617067857,7.0,12.0,17.0,18.027756377319946,12.165525060596439,37.12142238654117,25.179356624028344,22.0,17.0,18.0,5.5,19.5,6.5,0.5,9.055385138137417,9.055385138137417,9.5,28.0,27.0,32.01562118716424
164,201,6.082762530298219,61.00819617067857,7.0,11.0,17.0,18.0,12.165525060596439,36.124783736376884,25.179356624028344,22.0,17.0,18.0,5.5,18.5,6.5,0.5,9.055385138137417,9.055385138137417,9.0,28.0,27.0,32.01562118716424
165,202,7.0,61.00819617067857,6.082762530298219,11.0,17.029386365926403,18.0,12.165525060596439,36.124783736376884,25.179356624028344,21.5,17.0,18.0,5.5,18.5,6.5,0.5,9.055385138137417,9.0,9.5,28.0,26.0,30.01666203960727
166,203,7.0710678118654755,61.00819617067857,6.0,12.0,17.029386365926403,18.027756377319946,12.165525060596439,37.12142238654117,25.179356624028344,21.5,17.0,18.0,5.5,19.5,6.5,0.5,9.055385138137417,9.0,9.5,28.0,26.0,32.01562118716424
167,204,6.0,61.00819617067857,7.0710678118654755,11.0,16.0,18.0,12.165525060596439,36.124783736376884,25.179356624028344,22.0,17.0,18.0,5.5,18.5,6.5,0.5,9.055385138137417,8.0,8.5,29.0,27.0,32.01562118716424
168,205,5.0,61.00819617067857,7.0,12.0,16.0,18.0,12.36931687685298,36.124783736376884,24.186773244895647,21.5,17.0,18.0,5.5,18.5,5.5,0.5,8.06225774829855,8.06225774829855,8.0,29.0,27.0,30.01666203960727
169,206,5.0990195135927845,60.00833275470999,7.0,11.0,16.0,17.0,12.165525060596439,35.12833614050059,24.186773244895647,21.5,17.0,18.0,5.5,17.5,5.5,0.5,5.0,5.0,5.0,28.0,26.0,30.01666203960727
170,207,5.0990195135927845,60.00833275470999,7.0,11.045361017187261,16.0,17.0,12.165525060596439,35.05709628591621,24.186773244895647,21.5,17.0,18.0,5.5,17.5,5.5,0.5,5.0990195135927845,5.0,5.0,28.0,27.0,31.016124838541646
171,208,5.0,60.00833275470999,7.0,11.0,16.0,17.0,12.165525060596439,35.05709628591621,24.08318915758459,21.5,17.0,18.0,5.5,17.5,5.5,0.5,5.0990195135927845,5.0,5.5,29.0,28.0,32.01562118716424
172,209,5.0990195135927845,62.00806399170998,7.0,12.0,16.0,17.029386365926403,12.165525060596439,36.124783736376884,24.186773244895647,21.5,17.0,18.0,5.5,18.5,5.5,0.5,5.0,5.0,5.5,28.0,27.0,32.01562118716424
173,210,5.0,61.00819617067857,7.0,11.0,16.0,17.0,12.165525060596439,35.05709628591621,24.08318915758459,21.5,17.0,18.0,5.5,17.5,5.5,0.5,5.0,5.0,5.5,29.0,27.0,31.016124838541646
174,211,5.0990195135927845,61.00819617067857,7.0,11.045361017187261,16.0,17.0,12.165525060596439,35.05709628591621,24.186773244895647,21.5,17.0,18.0,5.5,17.5,5.5,0.5,6.082762530298219,7.0,6.5,29.0,27.0,32.01562118716424
175,212,5.0,60.03332407921454,7.0,11.0,16.0,17.0,12.165525060596439,35.05709628591621,24.08318915758459,21.5,17.0,19.0,6.0,17.0,5.0,0.0,7.0710678118654755,7.0,7.0,29.0,27.0,31.016124838541646
176,213,5.0990195135927845,61.0,7.0,11.0,17.029386365926403,18.0,12.165525060596439,35.12833614050059,24.186773244895647,21.5,18.0,18.0,6.0,17.0,5.0,0.0,7.0710678118654755,7.0,7.5,29.0,27.0,31.016124838541646
177,214,6.082762530298219,61.0,7.0,11.0,17.0,18.027756377319946,12.165525060596439,36.124783736376884,25.179356624028344,22.0,18.0,18.0,6.0,18.0,6.0,0.0,8.06225774829855,7.0,7.5,29.0,27.0,31.016124838541646
178,215,6.0,61.0,7.0710678118654755,11.0,17.0,18.027756377319946,12.165525060596439,36.124783736376884,25.179356624028344,22.0,18.0,18.0,6.0,18.0,6.0,0.0,7.0710678118654755,7.0,7.5,29.0,26.0,31.016124838541646
179,216,6.082762530298219,61.032778078668514,7.0,11.045361017187261,16.0,17.029386365926403,12.165525060596439,36.05551275463989,25.179356624028344,22.0,17.0,19.0,6.0,18.0,6.0,0.0,9.055385138137417,7.0,7.5,29.0,26.0,30.0
180,217,5.0,61.00819617067857,7.0710678118654755,12.0,16.0,17.029386365926403,12.041594578792296,36.05551275463989,24.08318915758459,21.5,17.0,18.0,5.5,18.5,5.5,0.5,8.06225774829855,8.0,8.0,29.0,27.0,31.016124838541646
181,218,6.082762530298219,61.00819617067857,7.0,10.0,16.0,17.0,12.165525060596439,35.12833614050059,25.179356624028344,22.0,18.0,19.0,6.5,16.5,4.5,0.5,9.055385138137417,8.0,8.0,29.0,27.0,31.016124838541646
182,219,5.0,62.00806399170998,7.0,11.0,16.0,17.0,12.165525060596439,35.05709628591621,24.08318915758459,21.5,17.0,18.0,5.5,17.5,5.5,0.5,8.06225774829855,9.0,9.0,28.0,26.0,31.016124838541646
183,220,6.082762530298219,62.00806399170998,7.0,11.045361017187261,17.0,17.0,12.165525060596439,36.05551275463989,25.179356624028344,22.0,18.0,19.0,6.5,17.5,5.5,0.5,9.055385138137417,8.0,8.5,28.0,26.0,32.01562118716424
184,221,7.0,61.00819617067857,6.0,11.0,16.0,17.0,12.165525060596439,36.05551275463989,25.079872407968907,21.5,18.0,19.0,6.5,17.5,5.5,1.5,9.0,8.0,8.5,29.0,27.0,31.016124838541646
185,222,6.0,61.00819617067857,6.0,11.0,16.0,17.029386365926403,12.165525060596439,35.05709628591621,24.08318915758459,21.0,18.0,19.0,6.5,16.5,5.5,1.5,9.055385138137417,8.06225774829855,8.5,29.0,27.0,31.016124838541646
186,223,7.0,61.032778078668514,7.0,11.0,16.0,17.0,12.165525060596439,37.05401462729781,26.076809620810597,22.5,18.0,20.0,7.0,18.0,6.0,1.0,9.055385138137417,8.0,8.0,29.0,26.0,30.066592756745816
187,224,9.0,61.00819617067857,6.0,11.0,16.0,18.0,13.038404810405298,39.01281840626232,28.0178514522438,23.5,20.0,21.0,7.5,18.5,6.5,1.5,9.055385138137417,8.0,8.0,29.0,26.0,32.01562118716424
188,225,9.055385138137417,61.00819617067857,7.0,12.041594578792296,17.0,18.0,13.038404810405298,41.012193308819754,29.068883707497267,24.5,21.0,22.0,8.5,19.5,6.5,2.5,9.055385138137417,9.0,9.0,29.0,26.0,33.015148038438355
189,226,9.0,61.00819617067857,7.0,12.0,16.0,18.0,12.041594578792296,40.01249804748511,28.0178514522438,23.5,20.0,21.0,8.5,19.5,6.5,2.5,9.055385138137417,9.0,9.0,29.0,26.0,31.016124838541646
190,227,11.0,61.032778078668514,7.0,12.041594578792296,16.0,19.0,13.152946437965905,43.01162633521314,31.064449134018133,25.5,22.0,24.0,10.0,20.0,7.0,4.0,9.055385138137417,8.0,8.5,29.0,26.0,31.0
191,228,11.0,61.07372593840988,7.0,13.0,17.0,19.026297590440446,13.038404810405298,44.01136216933077,31.016124838541646,25.5,21.0,24.0,9.5,21.5,7.5,3.5,9.055385138137417,8.0,8.5,28.0,26.0,32.0
192,229,13.0,61.032778078668514,7.0,12.0,17.0,18.027756377319946,12.041594578792296,44.01136216933077,32.01562118716424,25.5,22.0,24.0,11.0,21.0,8.0,4.0,9.055385138137417,8.06225774829855,8.5,28.0,26.0,32.01562118716424
193,230,10.0,61.032778078668514,8.0,12.0,17.0,18.027756377319946,13.038404810405298,43.01162633521314,31.016124838541646,26.0,22.0,24.0,10.0,20.0,7.0,3.0,9.055385138137417,8.06225774829855,8.5,29.0,26.0,32.01562118716424
194,231,4.0,58.034472514187634,7.0,9.055385138137417,16.0,17.029386365926403,16.0312195418814,36.0,27.018512172212592,25.0,20.0,22.0,5.0,15.0,4.0,1.0,9.055385138137417,8.0,8.5,29.0,27.0,31.016124838541646
195,232,1.0,58.034472514187634,7.0,10.04987562112089,15.0,16.0312195418814,16.0312195418814,34.0,24.020824298928627,23.5,20.0,22.0,5.0,13.0,2.0,1.0,9.0,8.0,8.5,28.0,27.0,30.0
196,233,1.4142135623730951,59.033888572581766,7.0,10.0,15.0,16.0312195418814,16.0312195418814,34.0,24.0,23.5,20.0,22.0,5.0,13.0,2.0,1.0,8.0,9.0,9.0,28.0,27.0,30.0
197,234,2.0,58.008620049092706,7.0,11.0,15.033296378372908,16.0312195418814,15.033296378372908,35.014282800023196,24.020824298928627,23.0,20.0,21.0,5.5,14.5,1.5,1.5,9.055385138137417,8.06225774829855,8.5,28.0,27.0,32.0
198,235,2.0,56.00892785976178,7.0,11.0,16.0,17.029386365926403,14.035668847618199,34.0147027033899,23.021728866442675,22.0,19.0,20.0,5.5,14.5,2.5,0.5,9.055385138137417,9.0,9.0,27.0,27.0,31.0
199,236,2.0,55.00909015790027,7.0,12.0,15.0,16.0,14.035668847618199,35.014282800023196,23.021728866442675,22.0,20.0,21.0,6.5,14.5,1.5,0.5,9.055385138137417,9.0,9.0,28.0,27.0,31.0
200,237,3.0,56.00892785976178,7.0,12.0,15.033296378372908,16.0,12.0,34.0,22.0,20.5,19.0,20.0,7.5,14.5,1.5,1.5,9.055385138137417,9.055385138137417,9.0,28.0,27.0,31.0
201,238,3.0,54.00925846556311,7.0,12.0,15.033296378372908,16.0,13.038404810405298,35.014282800023196,23.021728866442675,21.5,20.0,21.0,7.5,14.5,1.5,1.5,9.055385138137417,9.0,9.0,29.0,28.0,30.01666203960727
202,239,7.0710678118654755,55.00909015790027,7.0,12.041594578792296,15.0,15.0,12.041594578792296,38.01315561749642,26.076809620810597,22.5,21.0,22.0,9.5,16.5,3.5,3.5,10.04987562112089,8.06225774829855,8.5,29.0,28.0,31.0
203,240,7.0,55.00909015790027,7.0,12.041594578792296,15.033296378372908,15.0,12.041594578792296,38.0,26.019223662515376,22.5,21.0,22.0,9.5,16.5,3.5,3.5,10.04987562112089,8.06225774829855,8.5,28.0,27.0,31.0
204,241,10.04987562112089,59.0,7.0,12.041594578792296,16.0,18.0,12.041594578792296,41.012193308819754,29.068883707497267,24.0,21.0,21.0,9.0,20.0,7.0,3.0,9.055385138137417,8.0,8.5,29.0,28.0,31.0
205,242,10.0,60.00833275470999,7.0,12.0,16.0,18.0,11.045361017187261,40.01249804748511,28.0178514522438,23.0,19.0,20.0,8.5,20.5,7.5,2.5,9.055385138137417,9.055385138137417,9.0,28.0,27.0,33.0
206,243,10.0,61.032778078668514,6.0,12.041594578792296,17.0,18.0,12.165525060596439,40.01249804748511,28.071337695236398,23.0,18.0,20.0,7.0,21.0,8.0,2.0,9.055385138137417,8.0,8.5,28.0,27.0,32.0
207,244,11.0,60.0,6.0,12.0,17.0,18.0,11.045361017187261,40.01249804748511,28.0178514522438,22.5,19.0,19.0,8.0,21.0,8.0,2.0,9.055385138137417,8.06225774829855,8.5,28.0,27.0,31.0
208,245,10.0,60.00833275470999,7.0,12.0,17.0,18.0,12.041594578792296,41.012193308819754,29.017236257093817,24.0,20.0,21.0,8.5,20.5,7.5,2.5,9.055385138137417,9.055385138137417,9.0,28.0,27.0,31.016124838541646
209,246,10.0,60.00833275470999,7.0,12.0,17.0,18.0,12.041594578792296,41.012193308819754,29.017236257093817,24.0,20.0,21.0,8.5,20.5,7.5,2.5,9.055385138137417,8.0,8.5,28.0,27.0,31.0
210,247,11.0,59.0,7.0710678118654755,11.045361017187261,17.0,17.0,10.04987562112089,39.01281840626232,28.071337695236398,22.5,20.0,20.0,10.0,19.0,7.0,4.0,9.055385138137417,9.055385138137417,9.0,29.0,28.0,31.0
211,248,8.0,56.0,6.0,12.0,15.0,16.0,12.041594578792296,38.01315561749642,26.019223662515376,22.0,21.0,21.0,9.0,17.0,4.0,3.0,9.055385138137417,8.06225774829855,8.5,28.0,27.0,31.016124838541646
212,249,6.0,55.0,7.0,11.0,14.035668847618199,16.0312195418814,13.0,37.0,26.0,23.0,21.0,21.0,8.0,16.0,4.0,2.0,9.055385138137417,9.055385138137417,9.0,28.0,27.0,31.0
213,250,3.0,54.0,7.0,12.0,14.0,16.0,15.033296378372908,37.013511046643494,25.019992006393608,23.5,21.0,21.0,6.0,16.0,3.0,0.0,8.06225774829855,8.06225774829855,8.0,28.0,27.0,32.0
214,251,3.0,53.0,7.0,12.041594578792296,15.0,16.0,15.033296378372908,37.0,25.019992006393608,23.5,21.0,21.0,6.0,16.0,3.0,0.0,9.055385138137417,8.0,8.0,26.0,26.0,32.0
215,252,2.0,54.0,7.0,12.0,15.0,16.0,15.033296378372908,36.013886210738214,24.020824298928627,23.0,20.0,20.0,5.0,16.0,3.0,1.0,8.06225774829855,8.0,8.0,27.0,26.0,31.0
216,253,2.0,53.009433122794285,7.0,12.0,15.0,16.0,16.0312195418814,37.013511046643494,25.019992006393608,24.0,20.0,21.0,4.5,16.5,3.5,1.5,9.055385138137417,9.055385138137417,9.0,27.0,26.0,31.0
217,254,2.0,53.0,7.0,12.0,14.0,16.0,15.033296378372908,36.013886210738214,24.020824298928627,23.0,20.0,20.0,5.0,16.0,3.0,1.0,9.055385138137417,8.0,8.5,27.0,26.0,31.0
218,255,2.23606797749979,53.009433122794285,7.0,13.038404810405298,15.0,15.033296378372908,15.033296378372908,37.013511046643494,24.08318915758459,23.0,21.0,20.0,5.5,16.5,2.5,0.5,9.055385138137417,8.06225774829855,8.5,27.0,26.0,32.0
219,256,2.23606797749979,53.009433122794285,8.0,13.038404810405298,15.0,15.0,14.035668847618199,37.013511046643494,24.08318915758459,23.0,21.0,20.0,6.5,16.5,2.5,0.5,9.055385138137417,8.06225774829855,8.5,28.0,27.0,32.0
220,257,6.0,56.00892785976178,7.0,12.0,14.0,16.0,12.041594578792296,37.013511046643494,25.019992006393608,22.0,21.0,20.0,8.5,16.5,3.5,2.5,9.055385138137417,9.0,9.0,28.0,27.0,32.0
221,258,12.0,58.0,6.0,12.041594578792296,15.0,17.029386365926403,11.180339887498949,41.012193308819754,29.068883707497267,23.0,20.0,20.0,9.0,21.0,8.0,3.0,9.055385138137417,9.055385138137417,9.0,28.0,27.0,31.0
222,259,12.0,58.0,7.0,12.0,15.033296378372908,17.029386365926403,10.04987562112089,41.012193308819754,29.017236257093817,23.0,19.0,19.0,9.0,22.0,9.0,3.0,10.04987562112089,9.055385138137417,9.5,28.0,27.0,32.0
223,260,11.0,60.00833275470999,7.0,11.0,16.0,17.0,11.045361017187261,40.01249804748511,29.017236257093817,23.5,20.0,19.0,8.5,20.5,8.5,2.5,10.04987562112089,9.0,9.0,27.0,27.0,32.0
224,261,11.0,59.00847396772772,7.0,12.0,16.0,18.0,11.045361017187261,41.012193308819754,29.017236257093817,23.5,19.0,20.0,8.5,21.5,8.5,2.5,9.0,9.055385138137417,9.0,27.0,27.0,32.0
225,262,11.0,60.0,7.0,12.0,16.0,18.0,11.045361017187261,41.012193308819754,29.017236257093817,23.5,19.0,19.0,8.0,22.0,9.0,2.0,9.055385138137417,9.0,9.0,27.0,26.0,30.0
226,263,11.0,60.00833275470999,6.0,11.045361017187261,16.0,17.0,11.180339887498949,39.01281840626232,28.071337695236398,22.5,17.0,18.0,6.5,21.5,9.5,1.5,8.06225774829855,9.055385138137417,9.0,27.0,27.0,30.0
227,264,11.0,60.00833275470999,6.0,11.045361017187261,16.0,17.0,11.180339887498949,39.01281840626232,28.071337695236398,22.5,17.0,18.0,6.5,21.5,9.5,1.5,10.04987562112089,9.055385138137417,9.5,27.0,27.0,31.0
228,265,8.0,60.00833275470999,6.0,11.045361017187261,16.0,17.0,12.165525060596439,37.013511046643494,26.076809620810597,22.0,17.0,18.0,5.5,19.5,7.5,0.5,10.0,9.055385138137417,9.0,27.0,26.0,30.01666203960727
229,266,7.0,57.0,6.0,11.0,14.035668847618199,16.0,13.038404810405298,37.013511046643494,26.019223662515376,22.5,17.0,17.0,4.0,20.0,7.0,2.0,9.055385138137417,9.0,9.0,27.0,26.0,32.01562118716424
230,267,4.0,57.0,6.0,11.0,15.0,16.0,15.033296378372908,36.013886210738214,25.019992006393608,23.0,17.0,17.0,2.0,19.0,6.0,3.0,9.055385138137417,8.0,8.5,27.0,26.0,30.0
231,268,3.0,56.0,7.0,11.0,15.033296378372908,16.0,15.033296378372908,36.013886210738214,25.019992006393608,23.5,18.0,18.0,3.0,18.0,6.0,2.0,9.0,8.0,8.5,27.0,26.0,32.0
232,269,4.0,55.00909015790027,6.0,12.0,15.0,16.0312195418814,15.033296378372908,37.013511046643494,25.019992006393608,23.0,17.0,18.0,2.5,19.5,6.5,2.5,9.0,9.0,9.0,27.0,26.0,30.0
233,270,4.123105625617661,56.0,6.0,11.045361017187261,15.0,16.0,15.033296378372908,36.013886210738214,25.079872407968907,23.0,17.0,17.0,2.0,19.0,6.0,3.0,9.055385138137417,9.0,9.0,27.0,26.0,30.0
234,271,4.0,55.0,6.0,11.0,15.0,16.0,15.033296378372908,36.013886210738214,25.019992006393608,23.0,17.0,17.0,2.0,19.0,6.0,3.0,9.055385138137417,9.0,9.0,27.0,26.0,30.0
235,272,3.0,55.0,6.0,12.0,15.0,16.0,15.033296378372908,36.013886210738214,24.020824298928627,22.5,17.0,17.0,2.0,19.0,6.0,3.0,9.055385138137417,9.0,9.0,26.0,26.0,31.0
236,273,3.0,55.0,6.0,12.0,15.0,16.0,15.033296378372908,36.013886210738214,24.020824298928627,22.5,18.0,18.0,3.0,18.0,5.0,2.0,9.0,8.0,8.5,26.0,26.0,32.0
237,274,4.123105625617661,55.00909015790027,6.0,11.045361017187261,15.0,16.0,15.033296378372908,36.013886210738214,25.079872407968907,23.0,17.0,18.0,2.5,18.5,5.5,2.5,9.055385138137417,8.0,8.0,27.0,26.0,32.0
238,275,4.123105625617661,55.0,6.0,12.041594578792296,15.0,15.033296378372908,15.033296378372908,37.013511046643494,25.079872407968907,23.0,18.0,18.0,3.0,19.0,5.0,2.0,9.055385138137417,9.055385138137417,9.0,26.0,26.0,31.0
239,276,3.0,53.0,6.0,12.0,15.0,16.0,15.033296378372908,36.013886210738214,24.020824298928627,22.5,18.0,18.0,3.0,18.0,5.0,2.0,9.055385138137417,8.06225774829855,8.5,26.0,26.0,31.0
240,277,3.0,54.0,7.0,12.0,15.0,16.0,14.142135623730951,36.05551275463989,24.08318915758459,22.5,18.0,18.0,4.0,18.0,5.0,2.0,9.055385138137417,8.06225774829855,8.5,26.0,26.0,31.0
241,278,5.0,55.0,6.0,12.0,15.0,16.0,14.035668847618199,37.013511046643494,25.019992006393608,22.5,18.0,18.0,4.0,19.0,6.0,1.0,7.0710678118654755,6.082762530298219,6.0,26.0,26.0,32.0
242,279,7.0,57.0,6.0,12.0,16.0312195418814,17.0,12.041594578792296,37.013511046643494,25.019992006393608,21.5,18.0,18.0,6.0,19.0,6.0,1.0,4.0,5.0,5.0,27.0,26.0,31.0
243,280,7.0,57.0,6.0,12.0,16.0312195418814,17.0,12.041594578792296,37.013511046643494,25.019992006393608,21.5,18.0,18.0,6.0,19.0,6.0,1.0,4.0,5.0,4.5,28.0,27.0,32.0
244,281,7.0,58.0,7.0,12.0,16.0,17.0,12.041594578792296,38.01315561749642,26.019223662515376,22.5,18.0,18.0,6.0,20.0,7.0,0.0,4.0,4.123105625617661,4.5,27.0,26.0,32.01562118716424
245,282,8.0,58.0,7.0,11.0,16.0,17.0,12.041594578792296,38.01315561749642,27.018512172212592,23.0,18.0,18.0,6.0,20.0,8.0,0.0,4.0,5.0,5.0,27.0,26.0,31.0
246,283,8.06225774829855,60.0,6.0,12.041594578792296,16.0312195418814,17.0,12.041594578792296,38.01315561749642,26.076809620810597,22.0,18.0,18.0,6.0,20.0,7.0,1.0,5.0990195135927845,5.0,5.0,27.0,26.0,31.0
247,284,8.06225774829855,60.0,6.0,12.041594578792296,16.0312195418814,17.0,12.041594578792296,38.01315561749642,26.076809620810597,22.0,18.0,18.0,6.0,20.0,7.0,1.0,5.0,5.0,5.0,26.0,26.0,33.0
248,285,7.0,60.0,7.0,12.0,16.0312195418814,17.0,12.041594578792296,38.01315561749642,26.019223662515376,22.5,18.0,18.0,6.0,20.0,7.0,1.0,6.082762530298219,6.0,6.5,27.0,26.0,31.0
249,286,8.0,60.00833275470999,6.0,12.0,16.0312195418814,18.027756377319946,12.041594578792296,38.01315561749642,26.019223662515376,22.0,18.0,17.0,5.5,20.5,7.5,0.5,7.0,7.0,7.5,27.0,26.0,31.0
250,287,8.0,61.0,7.0,11.0,17.029386365926403,18.0,11.180339887498949,37.05401462729781,26.076809620810597,22.0,18.0,18.0,7.0,19.0,6.0,1.0,8.06225774829855,8.06225774829855,8.0,27.0,26.0,32.0
251,288,6.082762530298219,60.00833275470999,7.0,12.041594578792296,16.0,17.0,12.041594578792296,37.013511046643494,25.079872407968907,22.0,18.0,17.0,5.5,19.5,6.5,0.5,8.0,8.0,8.0,27.0,26.0,32.0
252,289,6.0,60.00833275470999,7.0,12.0,16.0312195418814,18.0,12.165525060596439,37.05401462729781,25.079872407968907,22.0,17.0,18.0,5.5,19.5,6.5,0.5,8.06225774829855,8.06225774829855,8.0,27.0,26.0,31.016124838541646
253,290,6.0,60.00833275470999,7.0,12.0,16.0,18.0,12.165525060596439,37.05401462729781,25.079872407968907,22.0,17.0,18.0,5.5,19.5,6.5,0.5,8.06225774829855,8.06225774829855,8.0,27.0,26.0,31.016124838541646
254,291,6.0,60.0,7.0,12.0,16.0,17.029386365926403,12.165525060596439,37.05401462729781,25.079872407968907,22.0,18.0,18.0,6.0,19.0,6.0,0.0,9.055385138137417,8.06225774829855,8.5,27.0,26.0,31.016124838541646
255,292,7.0,60.00833275470999,6.0,11.0,16.0312195418814,17.0,12.165525060596439,36.05551275463989,25.079872407968907,21.5,17.0,18.0,5.5,18.5,6.5,0.5,9.055385138137417,8.0,8.0,27.0,26.0,31.0
256,293,6.0,60.00833275470999,7.0,11.045361017187261,16.0,17.0,12.165525060596439,36.013886210738214,25.079872407968907,22.0,17.0,18.0,5.5,18.5,6.5,0.5,9.0,9.0,9.0,27.0,26.0,31.016124838541646
257,294,6.0,60.0,6.0,12.0,16.0312195418814,17.0,13.152946437965905,37.05401462729781,25.079872407968907,22.0,18.0,18.0,5.0,19.0,6.0,0.0,8.06225774829855,8.0,8.5,28.0,27.0,31.016124838541646
258,295,6.0,60.0,7.0,12.0,16.0,18.0,12.165525060596439,37.05401462729781,25.079872407968907,22.0,18.0,18.0,6.0,19.0,6.0,0.0,8.0,9.0,9.0,28.0,27.0,31.0
259,296,7.0710678118654755,61.00819617067857,7.0,11.045361017187261,17.0,17.0,12.041594578792296,37.013511046643494,26.076809620810597,22.5,18.0,19.0,6.5,18.5,6.5,0.5,9.055385138137417,9.0,9.0,28.0,27.0,31.0
260,297,7.0710678118654755,61.0,7.0,11.045361017187261,17.0,17.0,12.041594578792296,37.013511046643494,26.076809620810597,22.5,18.0,18.0,6.0,19.0,7.0,0.0,9.0,9.0,9.0,28.0,27.0,31.0
261,298,7.0,61.0,7.0,11.0,16.0,17.0,12.165525060596439,37.05401462729781,26.076809620810597,22.5,18.0,18.0,6.0,19.0,6.0,0.0,9.055385138137417,9.0,9.0,28.0,27.0,31.0
262,299,6.0,61.0,7.0,12.0,16.0,18.0,13.152946437965905,38.05259518088089,26.076809620810597,23.0,19.0,19.0,6.0,19.0,6.0,0.0,9.055385138137417,8.0,8.5,27.0,26.0,32.01562118716424
263,300,6.0,60.0,7.0,11.0,16.0,17.0,12.041594578792296,36.013886210738214,25.019992006393608,22.0,18.0,18.0,6.0,18.0,6.0,0.0,9.055385138137417,9.055385138137417,9.0,28.0,27.0,32.0
264,301,6.0,61.0,7.0,12.0,17.0,17.029386365926403,13.038404810405298,38.01315561749642,26.019223662515376,23.0,19.0,19.0,6.0,19.0,6.0,0.0,9.055385138137417,8.0,8.0,28.0,26.0,31.016124838541646
265,302,6.0,61.0,7.0,11.0,16.0,18.0,13.038404810405298,37.013511046643494,26.019223662515376,23.0,19.0,19.0,6.0,18.0,6.0,0.0,9.055385138137417,8.0,9.0,29.0,28.0,32.01562118716424
266,303,7.0,61.0,7.0,11.0,16.0,17.0,12.041594578792296,37.013511046643494,26.019223662515376,22.5,19.0,19.0,7.0,18.0,6.0,1.0,10.04987562112089,9.055385138137417,9.0,29.0,27.0,32.01562118716424
267,304,8.06225774829855,62.0,7.0,11.045361017187261,17.0,17.0,12.041594578792296,38.01315561749642,27.073972741361768,23.0,19.0,19.0,7.0,19.0,7.0,1.0,10.04987562112089,9.0,9.0,28.0,27.0,32.01562118716424
268,305,8.0,62.0,7.0,11.045361017187261,16.0312195418814,17.029386365926403,13.152946437965905,39.01281840626232,28.071337695236398,24.0,20.0,20.0,7.0,19.0,7.0,1.0,10.0,8.0,8.5,28.0,27.0,31.016124838541646
269,306,9.0,61.00819617067857,7.0,12.0,16.0,18.027756377319946,12.041594578792296,40.01249804748511,28.0178514522438,23.5,19.0,20.0,7.5,20.5,7.5,1.5,9.055385138137417,8.06225774829855,9.0,29.0,26.0,33.015148038438355
270,307,8.0,62.00806399170998,6.0,12.041594578792296,16.0312195418814,17.0,13.038404810405298,39.0,27.018512172212592,23.0,19.0,20.0,6.5,19.5,7.5,1.5,9.055385138137417,9.0,9.5,28.0,26.0,33.015148038438355
271,308,8.06225774829855,61.00819617067857,7.0,12.0,16.0,18.0,12.041594578792296,39.0,27.0,23.0,19.0,20.0,7.5,19.5,6.5,1.5,9.055385138137417,9.0,9.5,29.0,26.0,32.01562118716424
272,309,9.0,61.0,7.0,11.045361017187261,16.0312195418814,17.0,12.041594578792296,39.0,28.0178514522438,23.5,20.0,20.0,8.0,19.0,7.0,2.0,9.055385138137417,9.055385138137417,9.5,29.0,27.0,32.01562118716424
273,310,8.0,62.00806399170998,7.0,12.041594578792296,16.0,17.0,12.041594578792296,39.0,27.018512172212592,23.0,19.0,20.0,7.5,19.5,7.5,0.5,9.055385138137417,8.0,9.0,29.0,27.0,32.01562118716424
274,311,11.0,62.00806399170998,6.0,11.0,16.0,18.0,13.038404810405298,41.012193308819754,30.01666203960727,24.5,20.0,21.0,7.5,20.5,7.5,1.5,9.055385138137417,9.055385138137417,9.5,29.0,26.0,32.01562118716424
275,312,12.041594578792296,62.00806399170998,6.0,12.041594578792296,17.0,18.027756377319946,13.038404810405298,43.01162633521314,31.064449134018133,25.0,20.0,21.0,7.5,22.5,8.5,1.5,10.04987562112089,10.04987562112089,10.0,28.0,25.0,32.01562118716424
276,313,11.0,62.03224967708329,7.0,12.041594578792296,17.0,19.0,12.165525060596439,42.01190307520001,30.066592756745816,24.5,20.0,22.0,9.0,21.0,8.0,2.0,9.055385138137417,9.0,9.5,29.0,26.0,32.01562118716424
277,314,11.0,61.00819617067857,7.0,11.0,17.0,18.0,13.038404810405298,42.01190307520001,31.016124838541646,25.5,21.0,22.0,8.5,20.5,8.5,2.5,9.055385138137417,9.0,9.0,28.0,26.0,31.016124838541646
278,315,11.0,62.00806399170998,7.0,11.045361017187261,17.0,18.0,13.038404810405298,42.0,31.016124838541646,25.5,20.0,21.0,7.5,21.5,9.5,1.5,10.04987562112089,8.0,8.5,29.0,27.0,31.016124838541646
279,316,11.0,63.00793600809346,6.0,11.0,17.029386365926403,18.0,13.038404810405298,41.012193308819754,30.01666203960727,24.5,20.0,21.0,7.5,20.5,8.5,2.5,9.055385138137417,8.0,8.5,28.0,26.0,32.0
280,317,11.0,62.00806399170998,6.0,11.0,17.029386365926403,18.0,13.038404810405298,41.012193308819754,30.01666203960727,24.5,20.0,21.0,7.5,20.5,8.5,2.5,9.055385138137417,9.0,9.0,28.0,26.0,31.0
281,318,10.0,63.00793600809346,6.0,11.0,16.0312195418814,18.0,13.038404810405298,40.01249804748511,29.017236257093817,24.0,20.0,21.0,7.5,19.5,7.5,2.5,10.04987562112089,9.0,9.0,28.0,26.0,32.0624390837628
282,319,8.0,60.03332407921454,7.0,11.045361017187261,16.0,17.0,14.035668847618199,40.0,29.017236257093817,25.0,20.0,22.0,7.0,19.0,7.0,1.0,9.055385138137417,9.055385138137417,9.0,28.0,26.0,32.01562118716424
283,320,7.0,58.077534382926416,7.0,10.04987562112089,16.0,16.0,14.0,38.01315561749642,28.0,24.5,20.0,23.0,7.5,16.5,4.5,0.5,9.055385138137417,9.0,9.0,29.0,26.0,31.016124838541646
284,321,7.0,59.07622195096772,7.0,10.04987562112089,15.0,17.0,14.0,38.01315561749642,28.0,24.5,20.0,23.0,7.5,16.5,4.5,1.5,9.055385138137417,9.0,9.5,28.0,26.0,30.01666203960727
285,322,7.0,58.077534382926416,7.0,11.045361017187261,16.0,16.0312195418814,13.0,38.01315561749642,27.0,23.5,19.0,22.0,7.5,17.5,4.5,0.5,8.0,8.0,8.0,28.0,26.0,31.016124838541646
286,323,7.0,58.034472514187634,7.0,10.04987562112089,16.0312195418814,16.0312195418814,13.038404810405298,37.0,27.018512172212592,23.5,20.0,22.0,8.0,16.0,5.0,2.0,8.0,7.0,7.5,28.0,26.0,30.01666203960727
287,324,6.0,57.0350769263968,8.0,11.045361017187261,15.0,17.0,14.0,39.01281840626232,28.0,25.0,21.0,23.0,8.0,17.0,5.0,1.0,5.0,5.0,5.0,30.0,26.0,30.01666203960727
288,325,7.0710678118654755,55.08175741568164,7.0,11.0,15.033296378372908,16.0312195418814,15.033296378372908,40.0,29.0,25.5,21.0,24.0,7.5,17.5,5.5,0.5,5.0990195135927845,5.0,4.5,30.0,27.0,29.017236257093817
289,326,3.1622776601683795,55.08175741568164,8.0,11.0,13.0,14.0,16.0312195418814,38.0,27.0,25.5,20.0,23.0,5.5,16.5,3.5,1.5,5.0,6.082762530298219,5.5,29.0,27.0,30.066592756745816
290,327,2.23606797749979,54.08326913195984,7.0,9.0,13.038404810405298,14.035668847618199,18.027756377319946,36.0,27.0,26.0,21.0,24.0,4.5,13.5,2.5,1.5,5.0990195135927845,5.0,5.0,29.0,26.0,31.016124838541646
291,328,2.23606797749979,54.08326913195984,7.0,9.0,13.038404810405298,14.035668847618199,18.027756377319946,36.0,27.0,26.0,21.0,24.0,4.5,13.5,2.5,1.5,5.0990195135927845,5.0,5.0,29.0,26.0,31.016124838541646
292,329,2.23606797749979,54.08326913195984,6.0,9.0,13.038404810405298,15.033296378372908,18.027756377319946,35.0,26.0,25.0,20.0,23.0,3.5,13.5,2.5,1.5,5.0990195135927845,6.0,6.0,27.0,26.0,30.0
293,330,2.23606797749979,55.08175741568164,6.0,10.0,14.0,14.0,18.027756377319946,36.0,26.0,25.0,20.0,23.0,3.5,14.5,3.5,1.5,7.0710678118654755,7.0,7.5,27.0,26.0,30.01666203960727
294,331,2.23606797749979,55.036351623268054,6.0,10.04987562112089,15.0,15.033296378372908,18.027756377319946,36.013886210738214,26.0,25.0,21.0,23.0,4.0,14.0,3.0,1.0,7.0710678118654755,7.0,7.0,27.0,26.0,32.0
295,332,3.0,58.0,7.0,12.0,15.0,16.0,15.033296378372908,37.013511046643494,25.019992006393608,23.5,21.0,21.0,6.0,16.0,4.0,1.0,8.06225774829855,8.0,8.0,28.0,26.0,31.016124838541646
296,333,6.0,59.0,7.0,11.0,16.0,17.029386365926403,13.038404810405298,37.013511046643494,26.019223662515376,23.0,20.0,20.0,7.0,17.0,6.0,1.0,9.0,8.0,8.0,28.0,26.0,30.01666203960727
297,334,6.0,60.0,7.0,11.0,16.0,16.0,13.0,37.0,26.0,23.0,20.0,20.0,7.0,17.0,5.0,1.0,9.0,8.0,8.0,28.0,26.0,32.01562118716424
298,335,7.0,61.0,7.0,11.045361017187261,16.0,17.029386365926403,13.152946437965905,38.01315561749642,27.073972741361768,23.5,20.0,20.0,7.0,18.0,7.0,1.0,9.0,8.0,8.0,28.0,27.0,31.016124838541646
299,336,7.0710678118654755,61.0,6.0,11.045361017187261,15.0,17.0,13.038404810405298,37.013511046643494,26.076809620810597,22.5,19.0,19.0,6.0,18.0,6.0,1.0,8.06225774829855,9.0,9.0,28.0,26.0,31.016124838541646
300,337,6.0,61.0,7.0,12.041594578792296,16.0,17.029386365926403,13.152946437965905,38.01315561749642,26.076809620810597,23.0,20.0,20.0,7.0,18.0,6.0,1.0,8.06225774829855,8.0,8.5,28.0,27.0,31.016124838541646
301,338,7.0,61.0,7.0,11.045361017187261,16.0312195418814,17.0,13.038404810405298,38.0,27.018512172212592,23.5,20.0,20.0,7.0,18.0,6.0,1.0,8.06225774829855,8.0,8.5,28.0,27.0,31.016124838541646
302,339,7.0,61.0,7.0,11.0,16.0312195418814,17.0,13.038404810405298,38.01315561749642,27.018512172212592,23.5,21.0,21.0,8.0,17.0,5.0,2.0,9.055385138137417,8.0,8.5,28.0,27.0,31.016124838541646
303,340,2.0,57.0350769263968,8.0,11.0,15.0,16.0,14.035668847618199,35.014282800023196,24.020824298928627,23.0,20.0,22.0,7.0,14.0,2.0,0.0,9.055385138137417,9.0,9.0,28.0,27.0,31.0
304,341,2.0,55.00909015790027,7.0710678118654755,10.0,15.0,16.0,16.1245154965971,35.014282800023196,25.019992006393608,24.0,21.0,22.0,5.5,13.5,1.5,0.5,9.055385138137417,9.0,9.0,28.0,27.0,31.016124838541646
305,342,2.0,55.00909015790027,7.0,10.0,15.0,16.0312195418814,16.0312195418814,35.014282800023196,25.019992006393608,24.0,21.0,22.0,5.5,13.5,2.5,0.5,9.055385138137417,9.0,9.0,28.0,26.0,31.016124838541646
306,343,3.0,56.00892785976178,7.0,11.045361017187261,15.0,16.0,16.1245154965971,37.013511046643494,26.076809620810597,24.5,22.0,23.0,6.5,14.5,2.5,0.5,9.055385138137417,9.055385138137417,9.0,28.0,26.0,31.0
307,344,7.0,57.0,7.0,12.0,16.0312195418814,16.0312195418814,14.035668847618199,40.01249804748511,28.0178514522438,24.5,23.0,23.0,9.0,17.0,4.0,3.0,9.055385138137417,9.055385138137417,9.0,28.0,26.0,32.01562118716424
308,345,8.06225774829855,56.0,7.0,12.041594578792296,15.033296378372908,17.0,13.038404810405298,40.01249804748511,28.071337695236398,24.0,23.0,23.0,10.0,17.0,4.0,4.0,9.055385138137417,9.055385138137417,9.0,28.0,26.0,31.016124838541646
309,346,8.0,57.0087712549569,7.0,12.0,16.0,17.0,13.152946437965905,40.049968789001575,28.071337695236398,24.0,23.0,22.0,9.5,17.5,4.5,2.5,9.055385138137417,9.055385138137417,9.0,28.0,26.0,31.016124838541646
310,347,8.0,58.008620049092706,6.0,12.0,16.0312195418814,17.0,14.142135623730951,40.049968789001575,28.071337695236398,24.0,23.0,22.0,8.5,17.5,5.5,3.5,9.055385138137417,8.0,8.5,28.0,26.0,30.01666203960727
311,348,8.0,58.008620049092706,6.0,12.0,16.0312195418814,17.0,13.152946437965905,39.05124837953327,27.073972741361768,23.0,22.0,21.0,8.5,17.5,5.5,3.5,9.0,8.06225774829855,8.5,28.0,27.0,30.0
312,349,8.0,58.008620049092706,7.0,11.045361017187261,15.0,17.0,13.152946437965905,39.01281840626232,28.071337695236398,24.0,22.0,21.0,8.5,17.5,5.5,2.5,9.055385138137417,8.06225774829855,8.5,28.0,26.0,30.01666203960727
313,350,9.055385138137417,57.0,7.0,11.045361017187261,15.033296378372908,17.0,13.038404810405298,40.01249804748511,29.068883707497267,24.5,22.0,22.0,9.0,18.0,6.0,3.0,9.055385138137417,9.055385138137417,9.5,28.0,26.0,30.0
314,351,10.04987562112089,57.0,7.0,12.041594578792296,15.0,17.0,13.038404810405298,42.01190307520001,30.066592756745816,25.0,22.0,22.0,9.0,20.0,7.0,3.0,9.055385138137417,8.06225774829855,8.0,27.0,26.0,30.0
315,352,11.0,57.0,6.082762530298219,12.0,15.0,17.0,13.038404810405298,42.04759208325728,30.066592756745816,24.5,22.0,22.0,9.0,20.0,7.0,3.0,9.0,9.055385138137417,9.0,27.0,26.0,31.0
316,353,9.055385138137417,57.0,7.0,13.038404810405298,15.0,17.0,13.038404810405298,42.01190307520001,29.068883707497267,24.5,22.0,22.0,9.0,20.0,6.0,3.0,8.06225774829855,9.055385138137417,9.0,27.0,26.0,31.0
317,354,6.0,55.0,7.0,11.0,15.0,16.0,13.152946437965905,37.05401462729781,26.076809620810597,23.0,21.0,21.0,8.0,16.0,4.0,2.0,9.055385138137417,9.0,9.0,27.0,26.0,31.016124838541646
318,355,4.0,56.0,7.0,12.0,16.0,16.0,13.038404810405298,36.013886210738214,24.020824298928627,22.0,20.0,20.0,7.0,16.0,3.0,1.0,9.055385138137417,8.0,8.5,27.0,26.0,31.016124838541646
319,356,3.0,55.0,7.0,12.041594578792296,15.0,16.0312195418814,14.142135623730951,36.013886210738214,24.08318915758459,22.5,20.0,20.0,6.0,16.0,3.0,0.0,9.055385138137417,8.0,8.5,27.0,26.0,31.0
320,357,2.0,55.036351623268054,8.0,12.041594578792296,15.0,16.0,14.035668847618199,36.0,24.020824298928627,23.0,19.0,21.0,6.0,16.0,3.0,1.0,9.055385138137417,8.0,9.0,27.0,26.0,30.01666203960727
321,358,2.0,55.00909015790027,8.0,12.041594578792296,15.0,16.0,14.035668847618199,36.0,24.020824298928627,23.0,19.0,20.0,5.5,16.5,3.5,1.5,9.055385138137417,9.0,9.0,27.0,26.0,31.016124838541646
322,359,2.0,55.0,7.0,12.041594578792296,15.0,16.0,14.142135623730951,35.014282800023196,23.08679276123039,22.0,19.0,19.0,5.0,16.0,3.0,1.0,9.0,8.0,8.5,27.0,26.0,31.016124838541646
323,360,4.0,55.0,7.0,13.0,15.0,16.0,13.038404810405298,37.013511046643494,24.020824298928627,22.0,20.0,20.0,7.0,17.0,4.0,0.0,9.0,9.0,9.0,27.0,26.0,32.0
324,361,8.0,55.00909015790027,7.0,14.0,16.0,17.0,11.045361017187261,40.01249804748511,26.019223662515376,22.0,20.0,21.0,9.5,19.5,4.5,2.5,7.0710678118654755,7.0,7.0,27.0,26.0,31.0
325,362,10.0,56.00892785976178,7.0710678118654755,12.0,15.033296378372908,17.029386365926403,11.0,40.01249804748511,28.0178514522438,23.0,21.0,20.0,9.5,19.5,6.5,3.5,5.0990195135927845,5.0990195135927845,5.0,29.0,27.0,31.016124838541646
326,363,9.0,56.0,7.0,12.0,15.0,16.0,11.045361017187261,39.01281840626232,27.018512172212592,22.5,20.0,20.0,9.0,19.0,6.0,3.0,5.0990195135927845,4.0,4.5,29.0,28.0,31.016124838541646
327,364,9.0,56.0,7.0,12.0,15.0,17.029386365926403,11.045361017187261,39.01281840626232,27.018512172212592,22.5,20.0,20.0,9.0,19.0,6.0,3.0,5.0,4.123105625617661,4.5,29.0,28.0,31.016124838541646
328,365,7.0,56.00892785976178,7.0,12.0,15.0,17.0,12.041594578792296,38.01315561749642,26.019223662515376,22.5,21.0,20.0,8.5,17.5,4.5,2.5,5.0,4.123105625617661,4.5,29.0,27.0,31.0
329,366,9.0,56.0,7.0,11.0,16.0,16.0312195418814,12.041594578792296,39.01281840626232,28.0178514522438,23.5,21.0,21.0,9.0,18.0,6.0,3.0,5.0,5.0,5.0,28.0,27.0,30.0
330,367,8.0,56.0,7.0,12.0,16.0312195418814,17.029386365926403,11.045361017187261,38.01315561749642,26.019223662515376,22.0,20.0,20.0,9.0,18.0,6.0,3.0,5.0,5.0,4.5,28.0,27.0,31.0
331,368,9.055385138137417,57.0,6.0,12.041594578792296,15.0,17.0,12.041594578792296,39.01281840626232,27.073972741361768,22.5,20.0,20.0,8.0,19.0,6.0,2.0,5.0,4.123105625617661,4.5,28.0,27.0,31.0
332,369,8.0,57.0,7.0,12.0,16.0,17.029386365926403,12.165525060596439,39.05124837953327,27.073972741361768,23.0,20.0,20.0,8.0,19.0,6.0,2.0,5.0990195135927845,5.0990195135927845,5.0,27.0,26.0,31.016124838541646
333,370,9.0,58.0,7.0,11.0,16.0,17.029386365926403,12.165525060596439,39.05124837953327,28.071337695236398,23.5,20.0,20.0,8.0,19.0,7.0,2.0,6.0,5.0,5.5,27.0,26.0,31.0
334,371,8.06225774829855,58.0,7.0,12.041594578792296,16.0,17.0,12.041594578792296,39.01281840626232,27.073972741361768,23.0,20.0,20.0,8.0,19.0,6.0,2.0,6.0,6.0,6.0,26.0,26.0,31.016124838541646
335,372,9.055385138137417,58.0,7.0,12.041594578792296,16.0312195418814,17.0,11.180339887498949,39.05124837953327,27.16615541441225,22.5,20.0,20.0,9.0,19.0,6.0,3.0,7.0710678118654755,7.0,7.5,27.0,26.0,31.0
336,373,9.055385138137417,58.0,7.0,13.0,15.0,17.0,12.041594578792296,41.048751503547585,28.071337695236398,23.5,21.0,21.0,9.0,20.0,6.0,3.0,8.06225774829855,8.06225774829855,8.5,27.0,26.0,32.0
337,374,9.055385138137417,58.008620049092706,7.0,13.0,15.0,17.029386365926403,12.041594578792296,41.048751503547585,28.071337695236398,23.5,21.0,20.0,8.5,20.5,6.5,2.5,9.055385138137417,8.0,8.0,27.0,26.0,30.0
338,375,9.055385138137417,58.008620049092706,7.0,12.0,15.0,17.029386365926403,12.041594578792296,40.049968789001575,28.071337695236398,23.5,21.0,20.0,8.5,19.5,6.5,2.5,9.055385138137417,8.0,8.5,27.0,26.0,30.0
339,376,9.0,59.0,7.0710678118654755,12.0,16.0312195418814,17.0,12.041594578792296,40.049968789001575,28.071337695236398,23.5,21.0,21.0,9.0,19.0,6.0,3.0,9.0,8.0,8.5,27.0,26.0,32.0
340,377,9.0,58.0,7.0710678118654755,13.0,16.0312195418814,18.0,12.041594578792296,41.048751503547585,28.071337695236398,23.5,21.0,21.0,9.0,20.0,6.0,3.0,9.055385138137417,8.0,8.5,27.0,26.0,30.0
341,378,9.0,59.00847396772772,8.0,13.0,16.0,18.0,11.045361017187261,41.012193308819754,28.0178514522438,23.5,20.0,21.0,9.5,20.5,6.5,2.5,10.04987562112089,9.0,9.0,28.0,26.0,31.0
342,379,7.0,57.0087712549569,7.0,12.041594578792296,16.0,17.0,12.041594578792296,38.0,26.019223662515376,22.5,20.0,21.0,8.5,17.5,4.5,1.5,9.055385138137417,9.0,9.0,28.0,26.0,32.0
343,380,6.0,57.0087712549569,8.0,12.0,16.0,17.0,12.041594578792296,38.01315561749642,26.019223662515376,23.0,20.0,21.0,8.5,17.5,4.5,1.5,9.055385138137417,9.0,9.0,28.0,26.0,32.01562118716424
344,381,3.0,57.0087712549569,8.0,11.0,15.0,16.0,14.035668847618199,36.013886210738214,25.019992006393608,23.5,20.0,21.0,6.5,15.5,3.5,0.5,10.0,9.0,9.0,28.0,27.0,31.0
345,382,2.0,56.00892785976178,7.0710678118654755,10.0,15.0,16.0,15.033296378372908,34.0,24.0,23.0,20.0,21.0,5.5,13.5,1.5,0.5,9.055385138137417,9.055385138137417,9.0,28.0,26.0,31.016124838541646
346,383,2.23606797749979,56.0357029044876,7.0,10.0,15.0,16.0312195418814,15.132745950421556,34.0147027033899,24.020824298928627,23.0,20.0,22.0,6.0,13.0,1.0,0.0,9.055385138137417,9.0,9.0,28.0,27.0,31.016124838541646
347,384,2.0,56.00892785976178,6.0,11.0,15.0,15.0,16.0,35.0,24.0,23.0,20.0,21.0,4.5,14.5,2.5,0.5,9.055385138137417,9.0,9.5,28.0,26.0,30.01666203960727
348,385,2.0,55.00909015790027,6.0,11.045361017187261,14.0,15.033296378372908,16.0312195418814,35.0,24.020824298928627,23.0,20.0,21.0,4.5,14.5,2.5,0.5,9.055385138137417,9.0,9.5,28.0,26.0,31.016124838541646
349,386,3.0,55.00909015790027,7.0,11.0,15.033296378372908,16.0,15.033296378372908,36.013886210738214,25.019992006393608,23.5,20.0,21.0,5.5,15.5,3.5,0.5,9.055385138137417,9.055385138137417,9.5,27.0,26.0,31.0
350,387,4.0,55.00909015790027,7.0,12.0,15.0,16.0312195418814,15.033296378372908,38.01315561749642,26.019223662515376,24.0,21.0,22.0,6.5,16.5,3.5,0.5,10.04987562112089,9.0,9.0,27.0,26.0,31.0
351,388,4.123105625617661,56.0,7.0,12.041594578792296,15.0,17.0,14.035668847618199,37.013511046643494,25.079872407968907,23.0,21.0,21.0,7.0,16.0,4.0,1.0,9.055385138137417,9.055385138137417,9.0,27.0,26.0,31.016124838541646
352,389,7.0,55.0,7.0,11.0,15.0,15.0,13.038404810405298,38.01315561749642,27.018512172212592,23.5,20.0,20.0,7.0,18.0,6.0,1.0,9.055385138137417,9.0,9.5,27.0,26.0,31.0
353,390,5.0990195135927845,53.009433122794285,8.0,12.041594578792296,15.0,16.0,14.035668847618199,39.01281840626232,27.073972741361768,24.5,22.0,21.0,7.5,17.5,4.5,0.5,9.055385138137417,9.055385138137417,9.0,27.0,26.0,31.016124838541646
354,391,5.0990195135927845,54.00925846556311,8.0,12.041594578792296,15.0,15.0,14.035668847618199,39.01281840626232,27.073972741361768,24.5,22.0,21.0,7.5,17.5,4.5,0.5,9.0,9.0,9.5,28.0,27.0,32.0
355,392,5.0,52.0,8.0,12.0,14.0,15.0,14.035668847618199,39.01281840626232,27.018512172212592,24.5,21.0,21.0,7.0,18.0,4.0,0.0,10.04987562112089,9.0,9.5,28.0,27.0,31.0
356,393,5.0,52.0,8.0,12.0,14.0,15.0,14.035668847618199,39.01281840626232,27.018512172212592,24.5,21.0,21.0,7.0,18.0,4.0,0.0,10.04987562112089,9.055385138137417,9.0,27.0,27.0,30.01666203960727
357,394,4.0,52.009614495783374,8.0,12.0,14.035668847618199,15.0,15.132745950421556,39.05124837953327,27.073972741361768,25.0,22.0,21.0,6.5,17.5,3.5,0.5,9.055385138137417,9.055385138137417,9.5,28.0,27.0,31.0
358,395,4.0,52.009614495783374,7.0,12.0,14.0,15.0,16.0312195418814,39.01281840626232,27.018512172212592,25.0,22.0,21.0,5.5,17.5,3.5,0.5,9.0,8.0,8.5,27.0,26.0,32.01562118716424
359,396,4.0,52.009614495783374,7.0,12.0,14.0,15.0,15.132745950421556,38.05259518088089,26.076809620810597,24.0,21.0,20.0,5.5,17.5,4.5,0.5,9.0,8.0,8.5,28.0,27.0,31.016124838541646
360,397,3.1622776601683795,52.009614495783374,6.0,12.0,14.0,15.0,17.029386365926403,38.05259518088089,26.076809620810597,24.5,21.0,20.0,3.5,17.5,4.5,1.5,5.0,6.0,5.5,28.0,27.0,31.0
361,398,2.0,53.009433122794285,6.0,11.0,14.0,14.0,16.0312195418814,35.014282800023196,24.020824298928627,23.0,20.0,19.0,3.5,15.5,3.5,1.5,5.0,5.0990195135927845,5.0,28.0,27.0,32.0
362,399,1.0,54.0,6.0,11.0,14.0,15.0,14.035668847618199,32.01562118716424,21.02379604162864,20.5,18.0,18.0,4.0,14.0,2.0,1.0,5.0,5.0,5.0,28.0,27.0,31.0
363,400,1.0,54.0,6.0,11.045361017187261,14.035668847618199,15.0,15.033296378372908,33.0,22.02271554554524,21.5,19.0,19.0,4.0,14.0,2.0,1.0,5.0,5.0990195135927845,5.0,28.0,27.0,31.0
364,401,1.0,55.00909015790027,7.0,11.0,14.0,15.0,14.035668847618199,33.015148038438355,22.02271554554524,21.5,19.0,18.0,4.5,14.5,2.5,1.5,5.0,5.0,5.0,28.0,27.0,31.016124838541646
365,402,1.0,54.037024344425184,8.0,12.0,15.0,16.0312195418814,13.152946437965905,34.058772731852805,22.090722034374522,21.5,21.0,19.0,7.0,14.0,2.0,0.0,6.082762530298219,6.0,6.0,28.0,27.0,31.016124838541646
366,403,6.0,56.00892785976178,7.0,12.0,15.0,16.0,13.152946437965905,38.05259518088089,26.076809620810597,23.0,22.0,21.0,8.5,16.5,3.5,2.5,7.0710678118654755,7.0,7.5,27.0,26.0,31.016124838541646
367,404,8.0,56.00892785976178,7.0,13.038404810405298,15.0,17.0,12.165525060596439,40.01249804748511,27.073972741361768,23.0,21.0,22.0,9.5,18.5,4.5,2.5,8.06225774829855,8.0,8.0,28.0,26.0,31.016124838541646
368,405,9.055385138137417,56.0,7.0,12.041594578792296,15.033296378372908,17.0,12.165525060596439,40.049968789001575,28.160255680657446,23.5,22.0,22.0,10.0,18.0,5.0,4.0,9.0,8.0,8.5,28.0,26.0,31.016124838541646
369,406,8.0,55.00909015790027,7.0,13.0,15.0,16.0,13.152946437965905,41.048751503547585,28.071337695236398,24.0,22.0,23.0,9.5,18.5,5.5,2.5,9.0,8.0,8.5,28.0,26.0,31.016124838541646
370,407,7.0,55.00909015790027,7.0,11.045361017187261,14.0,15.0,12.165525060596439,37.013511046643494,26.076809620810597,22.5,21.0,22.0,9.5,15.5,3.5,2.5,9.055385138137417,8.0,8.5,29.0,26.0,30.01666203960727
371,408,4.0,54.037024344425184,7.0,12.041594578792296,14.0,16.0,12.041594578792296,35.0,23.021728866442675,21.0,20.0,22.0,9.0,14.0,1.0,2.0,8.06225774829855,8.0,8.5,28.0,25.0,31.016124838541646
372,409,3.0,53.03772242470448,8.06225774829855,11.0,15.0,16.0312195418814,12.165525060596439,34.0147027033899,23.021728866442675,21.5,20.0,22.0,9.0,13.0,1.0,2.0,9.055385138137417,8.0,8.5,29.0,26.0,32.01562118716424
373,410,4.0,54.037024344425184,7.0,11.045361017187261,14.035668847618199,15.0,12.041594578792296,34.0,23.021728866442675,21.0,20.0,22.0,9.0,13.0,1.0,2.0,9.055385138137417,8.0,8.5,29.0,25.0,31.064449134018133
374,411,4.0,54.037024344425184,6.0,11.045361017187261,14.035668847618199,15.0,13.038404810405298,34.0,23.021728866442675,21.0,20.0,22.0,8.0,13.0,1.0,2.0,9.055385138137417,8.0,8.5,29.0,25.0,31.064449134018133
375,412,7.0,53.08483775994799,6.0,11.045361017187261,14.035668847618199,15.033296378372908,13.038404810405298,37.0,26.019223662515376,22.5,21.0,24.0,9.5,14.5,2.5,3.5,9.055385138137417,8.06225774829855,8.5,29.0,25.0,31.064449134018133
376,413,4.0,52.03844732503075,8.0,12.041594578792296,14.0,15.0,15.033296378372908,39.0,27.018512172212592,25.0,22.0,24.0,8.0,16.0,2.0,1.0,9.055385138137417,9.0,9.5,29.0,25.0,30.01666203960727
377,414,2.23606797749979,52.08646657242167,7.0,11.045361017187261,14.035668847618199,15.033296378372908,16.0312195418814,36.013886210738214,25.0,24.0,20.0,23.0,5.5,14.5,1.5,0.5,9.055385138137417,8.0,8.5,29.0,25.0,30.066592756745816
378,415,2.0,53.08483775994799,6.0,11.045361017187261,13.038404810405298,14.035668847618199,16.0,35.014282800023196,24.0,23.0,19.0,22.0,4.5,14.5,1.5,1.5,9.055385138137417,8.0,8.5,28.0,24.0,31.016124838541646
379,416,2.0,53.03772242470448,6.0,11.045361017187261,13.038404810405298,14.0,16.0,35.014282800023196,24.0,23.0,20.0,22.0,5.0,14.0,1.0,1.0,9.055385138137417,8.0,8.5,28.0,24.0,30.01666203960727
380,417,2.0,53.08483775994799,7.0,11.045361017187261,14.0,16.0,15.0,35.014282800023196,24.0,23.0,19.0,22.0,5.5,14.5,1.5,0.5,9.055385138137417,9.0,9.0,28.0,25.0,30.01666203960727
381,418,2.0,55.14526271584895,7.0710678118654755,12.041594578792296,15.0,15.0,13.038404810405298,34.0147027033899,22.0,21.0,18.0,22.0,7.0,14.0,1.0,1.0,9.055385138137417,9.0,9.0,28.0,24.0,29.068883707497267
382,419,7.0,58.077534382926416,7.0,12.041594578792296,16.0,17.0,12.041594578792296,38.0,26.019223662515376,22.5,18.0,21.0,7.5,18.5,4.5,1.5,10.04987562112089,8.0,8.5,28.0,25.0,31.016124838541646
383,420,9.0,57.07889277132134,7.0,12.041594578792296,16.0,17.029386365926403,12.041594578792296,40.0,28.0178514522438,23.5,19.0,22.0,8.5,19.5,5.5,2.5,9.055385138137417,9.0,9.0,28.0,25.0,30.01666203960727
384,421,10.0,57.07889277132134,6.0,13.0,16.0,17.0,12.041594578792296,41.012193308819754,28.0178514522438,23.0,19.0,22.0,8.5,20.5,6.5,2.5,9.055385138137417,9.055385138137417,9.0,28.0,25.0,31.016124838541646
385,422,10.0,57.07889277132134,7.0,12.0,16.0,17.0,12.041594578792296,41.012193308819754,29.017236257093817,24.0,19.0,22.0,8.5,20.5,6.5,2.5,9.055385138137417,9.0,9.0,27.0,25.0,31.016124838541646
386,423,11.0,57.0350769263968,6.0,13.0,16.0,17.029386365926403,12.041594578792296,42.01190307520001,29.017236257093817,23.5,19.0,21.0,8.0,22.0,8.0,2.0,9.219544457292887,9.0,9.0,28.0,25.0,30.0
387,424,6.0,57.0350769263968,7.0,12.041594578792296,16.0,17.029386365926403,12.041594578792296,37.0,25.019992006393608,22.0,18.0,20.0,7.0,18.0,5.0,1.0,9.055385138137417,9.0,9.0,28.0,25.0,30.01666203960727
388,425,2.0,57.0087712549569,8.0,12.041594578792296,16.0,17.0,12.041594578792296,34.0,22.02271554554524,21.0,18.0,19.0,6.5,15.5,2.5,0.5,9.055385138137417,8.0,8.5,28.0,26.0,31.0
389,426,2.0,56.00892785976178,8.0,12.041594578792296,15.0,16.0,12.041594578792296,34.0,22.02271554554524,21.0,18.0,19.0,6.5,15.5,1.5,0.5,10.198039027185569,9.0,9.5,28.0,26.0,31.0
390,427,2.0,56.0357029044876,8.0,12.041594578792296,16.0,17.0,12.041594578792296,34.0,22.02271554554524,21.0,18.0,20.0,7.0,15.0,2.0,0.0,9.055385138137417,8.0,8.5,28.0,26.0,31.0
391,428,2.0,55.036351623268054,8.0,12.041594578792296,15.0,16.0,12.041594578792296,34.0,22.02271554554524,21.0,18.0,20.0,7.0,15.0,1.0,0.0,9.055385138137417,9.0,9.0,29.0,27.0,30.0
392,429,4.0,54.00925846556311,7.0,12.0,15.033296378372908,16.0,12.041594578792296,35.014282800023196,23.021728866442675,21.0,19.0,20.0,7.5,15.5,2.5,1.5,9.055385138137417,8.0,8.5,28.0,26.0,31.016124838541646
393,430,3.0,53.03772242470448,8.0,12.041594578792296,14.0,16.0312195418814,12.041594578792296,35.0,23.021728866442675,21.5,19.0,21.0,8.0,15.0,2.0,1.0,9.219544457292887,9.0,9.5,29.0,27.0,31.0
394,431,4.0,53.03772242470448,7.0,12.041594578792296,14.0,15.033296378372908,12.041594578792296,35.0,23.021728866442675,21.0,18.0,20.0,7.0,16.0,2.0,1.0,10.04987562112089,9.0,9.5,29.0,27.0,31.0
395,432,4.0,50.00999900019995,7.0,13.0,15.033296378372908,16.0,12.0,36.0,23.0,21.0,20.0,21.0,8.5,15.5,1.5,2.5,9.055385138137417,9.055385138137417,9.0,28.0,27.0,31.0
396,433,4.0,51.0098029794274,6.0,13.038404810405298,14.0,15.0,13.152946437965905,36.013886210738214,23.08679276123039,21.0,20.0,21.0,7.5,15.5,1.5,1.5,9.055385138137417,9.0,9.5,27.0,26.0,30.01666203960727
397,434,4.0,51.0098029794274,6.0,12.0,14.035668847618199,15.0,14.035668847618199,36.013886210738214,24.020824298928627,22.0,20.0,21.0,6.5,15.5,2.5,1.5,9.055385138137417,8.06225774829855,9.0,28.0,27.0,30.0
398,435,4.0,51.0098029794274,7.0,13.0,14.0,14.0,13.038404810405298,37.013511046643494,24.020824298928627,22.0,20.0,21.0,7.5,16.5,2.5,1.5,9.055385138137417,8.0,8.5,27.0,27.0,30.0
399,436,3.1622776601683795,50.00999900019995,7.0,13.038404810405298,13.0,15.0,14.035668847618199,37.013511046643494,24.08318915758459,22.5,20.0,21.0,6.5,16.5,2.5,0.5,9.055385138137417,9.055385138137417,9.0,27.0,26.0,30.0
400,437,1.0,51.0098029794274,8.0,12.041594578792296,14.0,15.033296378372908,14.142135623730951,35.014282800023196,23.08679276123039,22.5,20.0,21.0,6.5,14.5,1.5,0.5,9.055385138137417,9.055385138137417,9.0,27.0,26.0,30.01666203960727
401,438,0.0,52.0,7.0,12.0,14.0,15.0,15.132745950421556,34.058772731852805,22.090722034374522,22.0,20.0,20.0,5.0,14.0,1.0,1.0,9.055385138137417,9.055385138137417,9.0,27.0,26.0,29.0
402,439,0.0,52.0,8.0,12.0,14.035668847618199,15.0,14.142135623730951,34.058772731852805,22.090722034374522,22.0,19.0,19.0,5.0,15.0,2.0,1.0,9.055385138137417,9.055385138137417,9.5,27.0,26.0,31.0
403,440,1.0,52.0,7.0,12.041594578792296,14.0,15.0,15.132745950421556,35.014282800023196,23.08679276123039,22.5,20.0,20.0,5.0,15.0,2.0,1.0,10.04987562112089,9.055385138137417,9.0,28.0,26.0,31.0
404,441,1.0,52.0,7.0,12.0,14.0,15.033296378372908,15.132745950421556,35.05709628591621,23.08679276123039,22.5,20.0,20.0,5.0,15.0,2.0,1.0,10.04987562112089,9.0,9.0,27.0,26.0,30.01666203960727
405,442,1.4142135623730951,53.009433122794285,8.0,12.041594578792296,14.035668847618199,15.0,14.142135623730951,35.05709628591621,23.194827009486403,22.5,20.0,19.0,5.5,15.5,2.5,0.5,9.055385138137417,10.04987562112089,10.0,28.0,27.0,31.0
406,443,3.0,53.009433122794285,7.0,13.0,14.035668847618199,15.0,13.152946437965905,36.05551275463989,23.08679276123039,21.5,21.0,20.0,7.5,15.5,1.5,1.5,10.04987562112089,10.0,10.0,28.0,27.0,31.0
407,444,5.0,54.0,7.0,12.0,14.035668847618199,15.0,12.041594578792296,36.013886210738214,24.020824298928627,21.5,20.0,20.0,8.0,16.0,3.0,2.0,9.055385138137417,10.0,10.0,27.0,27.0,31.0
408,445,6.082762530298219,54.00925846556311,7.0,12.041594578792296,15.033296378372908,16.0312195418814,12.041594578792296,37.013511046643494,25.079872407968907,22.0,22.0,21.0,9.5,15.5,2.5,3.5,9.055385138137417,9.055385138137417,9.5,28.0,27.0,31.0
409,446,6.0,54.00925846556311,7.0,13.0,15.033296378372908,16.0,11.045361017187261,37.013511046643494,24.020824298928627,21.0,21.0,20.0,9.5,16.5,2.5,3.5,9.055385138137417,10.04987562112089,10.0,28.0,27.0,31.0
410,447,7.0,56.00892785976178,7.0,13.0,15.033296378372908,17.0,12.041594578792296,39.01281840626232,26.019223662515376,22.5,20.0,21.0,8.5,18.5,4.5,2.5,10.04987562112089,9.0,9.5,28.0,27.0,31.016124838541646
411,448,8.0,56.0,7.0,13.0,15.0,16.0,11.180339887498949,39.05124837953327,26.076809620810597,22.0,20.0,20.0,9.0,19.0,5.0,2.0,10.04987562112089,9.055385138137417,9.0,28.0,27.0,31.0
412,449,8.06225774829855,56.0,7.0,13.038404810405298,15.033296378372908,17.0,11.045361017187261,39.01281840626232,26.076809620810597,22.0,20.0,20.0,9.0,19.0,5.0,3.0,9.055385138137417,9.055385138137417,9.0,27.0,26.0,31.0
413,450,8.0,57.0,7.0,13.0,16.0312195418814,17.0,11.180339887498949,39.05124837953327,26.076809620810597,22.0,20.0,20.0,9.0,19.0,5.0,3.0,10.0,10.04987562112089,10.0,27.0,26.0,31.0
414,451,8.0,58.0,7.0,13.0,16.0312195418814,17.029386365926403,11.180339887498949,39.05124837953327,26.076809620810597,22.0,19.0,19.0,8.0,20.0,6.0,2.0,10.04987562112089,10.04987562112089,10.0,27.0,26.0,31.0
415,452,8.0,58.008620049092706,7.0710678118654755,12.0,16.0,18.0,11.045361017187261,38.05259518088089,26.076809620810597,22.0,19.0,20.0,8.5,18.5,5.5,2.5,7.0710678118654755,7.0,7.0,28.0,27.0,32.0
416,453,9.0,59.0,6.0,12.0,16.0312195418814,17.0,12.165525060596439,39.05124837953327,27.073972741361768,22.5,20.0,20.0,8.0,19.0,6.0,3.0,7.0710678118654755,7.0,7.0,27.0,26.0,31.0
417,454,9.0,58.0,6.082762530298219,12.0,15.0,17.0,11.045361017187261,38.05259518088089,26.076809620810597,21.5,19.0,19.0,8.0,19.0,6.0,2.0,5.0,6.0,5.5,29.0,28.0,30.0
418,455,9.055385138137417,58.0,6.0,12.0,15.0,17.0,11.045361017187261,38.05259518088089,26.076809620810597,21.5,19.0,19.0,8.0,19.0,6.0,2.0,6.0,6.0,6.0,29.0,28.0,30.0
419,456,9.055385138137417,59.0,6.0,12.0,15.0,17.0,11.045361017187261,38.05259518088089,26.076809620810597,21.5,19.0,19.0,8.0,19.0,6.0,2.0,5.0990195135927845,5.0990195135927845,5.0,29.0,28.0,31.0
420,457,9.055385138137417,59.0,6.0,11.0,15.033296378372908,17.0,12.041594578792296,38.05259518088089,27.073972741361768,22.5,20.0,20.0,8.0,18.0,6.0,3.0,4.0,5.0,5.0,28.0,27.0,31.0
421,458,8.06225774829855,58.0,6.0,12.0,16.0312195418814,17.0,12.041594578792296,38.05259518088089,26.076809620810597,22.0,20.0,20.0,8.0,18.0,6.0,3.0,5.0,6.0,5.5,27.0,26.0,31.0
422,459,9.055385138137417,59.00847396772772,6.0,12.0,16.0312195418814,17.0,12.041594578792296,39.05124837953327,27.073972741361768,22.5,19.0,20.0,7.5,19.5,6.5,2.5,5.0,5.0,5.0,28.0,27.0,32.0
423,460,9.055385138137417,59.0,6.0,12.0,15.0,17.0,12.041594578792296,39.05124837953327,27.073972741361768,22.5,20.0,20.0,8.0,19.0,6.0,3.0,6.0,6.0,6.0,27.0,26.0,31.0
424,461,8.06225774829855,60.0,6.0,12.041594578792296,16.0312195418814,17.0,12.041594578792296,38.01315561749642,26.076809620810597,22.0,19.0,19.0,7.0,19.0,6.0,2.0,7.0,6.0,6.5,27.0,25.0,31.0
425,462,8.0,59.0,6.0,12.0,16.0312195418814,18.0,12.165525060596439,38.05259518088089,26.076809620810597,22.0,19.0,19.0,7.0,19.0,6.0,2.0,8.0,7.0,7.0,28.0,27.0,32.0
426,463,8.0,59.0,7.0,11.0,16.0,17.0,12.165525060596439,38.05259518088089,27.073972741361768,23.0,20.0,20.0,8.0,18.0,5.0,2.0,8.06225774829855,7.0,7.5,27.0,26.0,31.0
427,464,8.0,60.00833275470999,6.082762530298219,12.0,16.0,17.0,12.041594578792296,38.05259518088089,26.076809620810597,22.0,19.0,20.0,7.5,18.5,5.5,1.5,8.06225774829855,7.0710678118654755,7.5,28.0,26.0,32.0
428,465,8.06225774829855,59.00847396772772,6.0,12.0,16.0312195418814,17.0,12.041594578792296,38.05259518088089,26.076809620810597,22.0,19.0,20.0,7.5,18.5,5.5,2.5,8.06225774829855,8.0,8.0,28.0,26.0,32.01562118716424
429,466,8.0,59.00847396772772,7.0710678118654755,12.0,15.0,17.029386365926403,12.041594578792296,39.05124837953327,27.073972741361768,23.0,19.0,20.0,7.5,19.5,5.5,1.5,8.06225774829855,8.06225774829855,8.0,27.0,26.0,30.01666203960727
430,467,9.0,59.033888572581766,7.0,11.0,15.0,17.029386365926403,12.165525060596439,39.05124837953327,28.071337695236398,23.5,20.0,22.0,9.0,18.0,6.0,3.0,9.055385138137417,9.0,9.0,27.0,25.0,32.0624390837628
431,468,10.0,59.00847396772772,6.0,12.0,16.0,17.029386365926403,12.165525060596439,40.049968789001575,28.071337695236398,23.0,20.0,21.0,8.5,19.5,6.5,2.5,9.0,8.0,8.0,28.0,26.0,32.01562118716424
432,469,10.0,59.00847396772772,6.0,11.045361017187261,16.0,17.0,12.165525060596439,39.01281840626232,28.071337695236398,23.0,20.0,21.0,8.5,18.5,6.5,2.5,8.06225774829855,8.06225774829855,8.0,28.0,26.0,32.01562118716424
433,470,9.0,59.033888572581766,7.0,12.0,16.0,17.029386365926403,12.165525060596439,40.049968789001575,28.071337695236398,23.5,20.0,22.0,9.0,19.0,6.0,3.0,9.0,8.06225774829855,8.5,28.0,26.0,32.01562118716424
434,471,9.055385138137417,60.00833275470999,8.0,12.041594578792296,16.0,17.0,12.041594578792296,41.012193308819754,29.068883707497267,24.5,21.0,22.0,9.5,19.5,6.5,2.5,8.06225774829855,8.0,8.0,28.0,25.0,32.01562118716424
435,472,9.055385138137417,60.00833275470999,7.0,12.0,15.0,17.0,13.038404810405298,41.048751503547585,29.068883707497267,24.5,21.0,22.0,8.5,19.5,6.5,2.5,9.055385138137417,8.06225774829855,8.0,28.0,26.0,31.0
436,473,10.04987562112089,60.00833275470999,7.0,12.041594578792296,15.0,17.0,12.041594578792296,41.012193308819754,29.068883707497267,24.0,21.0,22.0,9.5,19.5,6.5,2.5,9.055385138137417,8.06225774829855,8.0,28.0,26.0,31.0
437,474,9.0,59.00847396772772,7.0,12.0,16.0,18.0,13.152946437965905,41.048751503547585,29.068883707497267,24.5,21.0,22.0,8.5,19.5,6.5,2.5,9.055385138137417,9.0,9.0,27.0,26.0,31.0
438,475,9.0,59.00847396772772,8.06225774829855,12.0,16.0,17.0,12.041594578792296,41.048751503547585,29.068883707497267,24.5,21.0,22.0,9.5,19.5,6.5,2.5,9.055385138137417,9.0,9.0,27.0,26.0,31.016124838541646
439,476,9.0,59.00847396772772,7.0,13.0,16.0,17.029386365926403,13.152946437965905,42.04759208325728,29.068883707497267,24.5,21.0,22.0,8.5,20.5,6.5,2.5,9.055385138137417,9.0,9.0,27.0,26.0,31.016124838541646
440,477,8.0,59.00847396772772,7.0,12.0,16.0,17.0,13.152946437965905,40.049968789001575,28.071337695236398,24.0,21.0,22.0,8.5,18.5,5.5,2.5,9.055385138137417,8.0,8.5,28.0,27.0,31.0
441,478,7.0710678118654755,59.00847396772772,7.0,12.041594578792296,15.0,17.0,13.038404810405298,39.01281840626232,27.073972741361768,23.5,20.0,21.0,7.5,18.5,5.5,1.5,9.055385138137417,8.06225774829855,8.5,28.0,27.0,31.0
442,479,8.06225774829855,59.00847396772772,7.0,12.041594578792296,15.0,17.0,13.038404810405298,40.01249804748511,28.071337695236398,24.0,21.0,22.0,8.5,18.5,5.5,2.5,9.0,9.0,9.0,28.0,27.0,30.0
443,480,8.0,58.0,7.0,12.0,16.0,17.029386365926403,12.165525060596439,39.05124837953327,27.073972741361768,23.0,20.0,20.0,8.0,19.0,6.0,2.0,9.055385138137417,9.0,9.0,28.0,27.0,31.0
444,481,8.06225774829855,59.00847396772772,6.0,13.038404810405298,16.0,17.0,13.038404810405298,40.01249804748511,27.073972741361768,23.0,20.0,21.0,7.5,19.5,5.5,1.5,9.055385138137417,9.0,9.0,28.0,26.0,31.016124838541646
445,482,11.0,58.034472514187634,7.0,12.041594578792296,15.0,17.0,12.165525060596439,42.01190307520001,30.066592756745816,24.5,20.0,22.0,9.0,21.0,7.0,3.0,9.055385138137417,8.06225774829855,9.0,28.0,27.0,32.0
446,483,10.0,58.008620049092706,7.0,13.0,16.0,17.0,13.038404810405298,43.01162633521314,30.01666203960727,25.0,21.0,22.0,8.5,21.5,7.5,1.5,9.055385138137417,8.06225774829855,9.0,28.0,27.0,32.0
447,484,11.045361017187261,57.0350769263968,7.0,14.035668847618199,15.0,17.029386365926403,13.038404810405298,45.0111097397076,31.064449134018133,25.5,21.0,23.0,9.0,23.0,8.0,3.0,10.04987562112089,9.0,9.0,28.0,26.0,31.0
448,485,10.0,56.0357029044876,8.0,14.0,15.0,17.029386365926403,13.038404810405298,45.0111097397076,31.016124838541646,26.0,22.0,24.0,10.0,22.0,7.0,3.0,9.055385138137417,8.0,9.0,28.0,27.0,32.0
449,486,11.0,56.0357029044876,8.0,13.0,16.0,17.0,13.152946437965905,45.044422518220834,32.0624390837628,26.5,22.0,24.0,10.0,22.0,7.0,3.0,10.04987562112089,9.0,9.0,29.0,27.0,30.0
450,487,8.06225774829855,53.009433122794285,8.0,13.038404810405298,15.0,17.029386365926403,15.033296378372908,44.01136216933077,31.064449134018133,27.0,23.0,24.0,8.5,20.5,5.5,1.5,9.055385138137417,9.0,9.0,29.0,27.0,31.0
451,488,6.0,52.0,8.0,13.038404810405298,15.0,16.0312195418814,15.132745950421556,42.01190307520001,29.068883707497267,26.0,23.0,23.0,8.0,19.0,4.0,1.0,9.055385138137417,9.055385138137417,9.0,29.0,27.0,31.0
452,489,6.082762530298219,53.009433122794285,8.0,13.038404810405298,15.0,16.0312195418814,15.033296378372908,42.01190307520001,29.068883707497267,26.0,23.0,24.0,8.5,18.5,3.5,0.5,10.04987562112089,9.0,9.0,29.0,28.0,32.0
453,490,8.0,53.009433122794285,8.06225774829855,12.041594578792296,15.0,16.0312195418814,15.033296378372908,43.01162633521314,31.064449134018133,27.0,23.0,24.0,8.5,19.5,5.5,1.5,9.055385138137417,8.06225774829855,9.0,28.0,27.0,31.0
454,491,10.0,55.036351623268054,8.06225774829855,13.038404810405298,15.033296378372908,17.0,14.035668847618199,45.0111097397076,32.0624390837628,27.0,23.0,25.0,10.0,21.0,7.0,3.0,9.055385138137417,8.0,8.5,28.0,27.0,31.0
455,492,11.0,55.00909015790027,8.0,13.0,16.0,17.0,14.142135623730951,46.04345773288535,33.06055050963308,27.5,24.0,25.0,10.5,21.5,6.5,3.5,9.055385138137417,8.0,9.0,28.0,27.0,31.0
456,493,10.0,56.00892785976178,8.0,14.035668847618199,15.0,17.0,14.142135623730951,46.010868281309364,32.0624390837628,27.0,24.0,25.0,10.5,21.5,6.5,2.5,9.055385138137417,9.0,9.0,29.0,27.0,32.0
457,494,9.0,58.0,9.0,14.0,16.0,18.0,13.038404810405298,45.0111097397076,31.016124838541646,26.5,23.0,23.0,10.0,22.0,7.0,2.0,8.06225774829855,7.0710678118654755,8.0,29.0,28.0,32.0
458,495,10.04987562112089,58.0,7.0,14.035668847618199,16.0312195418814,17.0,14.0,45.0,31.016124838541646,26.0,23.0,23.0,9.0,22.0,7.0,3.0,8.0,8.06225774829855,8.5,29.0,28.0,32.01562118716424
459,496,9.055385138137417,58.008620049092706,8.0,12.041594578792296,16.0,17.0,14.035668847618199,43.01162633521314,31.064449134018133,26.5,23.0,24.0,9.5,19.5,6.5,2.5,5.0,5.0990195135927845,5.5,30.0,27.0,30.01666203960727
460,497,4.0,56.00892785976178,7.0710678118654755,10.04987562112089,14.0,15.0,16.0,37.0,27.018512172212592,25.0,21.0,22.0,5.5,15.5,4.5,0.5,5.0,6.082762530298219,5.5,29.0,27.0,30.01666203960727
461,498,2.0,56.0357029044876,6.0,9.0,13.0,14.035668847618199,16.0312195418814,33.015148038438355,24.020824298928627,23.0,19.0,21.0,4.0,13.0,3.0,1.0,6.0,6.0,6.0,30.0,28.0,30.01666203960727
462,499,2.0,56.00892785976178,6.0,9.0,13.0,14.0,16.0312195418814,33.015148038438355,24.020824298928627,23.0,19.0,20.0,3.5,13.5,2.5,1.5,5.0990195135927845,6.0,6.0,30.0,28.0,29.017236257093817
463,500,2.0,56.00892785976178,6.0,9.0,14.0,14.035668847618199,16.0312195418814,33.015148038438355,24.020824298928627,23.0,19.0,20.0,3.5,13.5,2.5,1.5,5.0990195135927845,6.0,6.0,30.0,28.0,30.01666203960727
464,501,1.0,56.0357029044876,6.0,10.0,13.0,14.0,16.0312195418814,33.015148038438355,23.021728866442675,22.5,19.0,21.0,4.0,13.0,2.0,1.0,7.0710678118654755,7.0,7.0,29.0,27.0,31.0
465,502,2.0,56.0357029044876,7.0710678118654755,10.0,15.0,15.033296378372908,16.1245154965971,35.014282800023196,25.019992006393608,24.0,19.0,21.0,4.0,15.0,3.0,2.0,8.06225774829855,8.0,8.0,29.0,27.0,31.0
466,503,3.0,56.0357029044876,7.0,11.045361017187261,14.0,15.0,15.132745950421556,36.013886210738214,25.079872407968907,23.5,19.0,21.0,5.0,16.0,3.0,1.0,8.0,7.0,7.5,29.0,27.0,31.016124838541646
467,504,3.0,56.00892785976178,7.0,12.0,14.0,16.0,15.132745950421556,37.05401462729781,25.079872407968907,23.5,21.0,22.0,6.5,15.5,2.5,0.5,8.06225774829855,8.0,8.5,28.0,27.0,31.016124838541646
468,505,4.0,57.0,7.0,12.0,15.033296378372908,16.0,14.142135623730951,37.05401462729781,25.079872407968907,23.0,21.0,21.0,7.0,16.0,4.0,1.0,9.055385138137417,8.0,8.5,28.0,27.0,31.016124838541646
469,506,4.123105625617661,57.0087712549569,7.0,12.0,15.033296378372908,16.0312195418814,13.152946437965905,36.124783736376884,24.186773244895647,22.0,21.0,20.0,7.5,15.5,2.5,1.5,9.055385138137417,8.0,8.5,28.0,26.0,31.0
470,507,3.0,58.0,7.0,12.0,15.033296378372908,16.0,14.142135623730951,36.05551275463989,24.08318915758459,22.5,21.0,21.0,7.0,15.0,3.0,1.0,8.06225774829855,8.0,8.5,28.0,27.0,31.016124838541646
471,508,4.0,57.0087712549569,7.0,12.0,15.033296378372908,16.0,13.152946437965905,36.05551275463989,24.08318915758459,22.0,20.0,19.0,6.5,16.5,3.5,0.5,8.06225774829855,8.06225774829855,8.5,27.0,26.0,31.016124838541646
472,509,4.123105625617661,55.00909015790027,7.0,12.0,14.035668847618199,15.0,13.038404810405298,36.05551275463989,24.08318915758459,22.0,20.0,19.0,6.5,16.5,3.5,0.5,9.0,9.055385138137417,9.0,28.0,27.0,31.016124838541646
473,510,4.0,53.0,7.0,12.0,14.035668847618199,15.033296378372908,13.038404810405298,36.013886210738214,24.020824298928627,22.0,20.0,20.0,7.0,16.0,3.0,1.0,9.055385138137417,8.0,9.0,28.0,27.0,31.0
474,511,4.0,53.0,8.0,13.038404810405298,14.0,15.0,13.038404810405298,38.0,25.019992006393608,23.0,21.0,21.0,8.0,17.0,3.0,1.0,9.055385138137417,8.0,8.5,28.0,27.0,31.016124838541646
475,512,4.0,53.0,8.0,13.0,14.0,16.0,13.038404810405298,38.01315561749642,25.019992006393608,23.0,21.0,21.0,8.0,17.0,3.0,1.0,9.055385138137417,8.0,9.0,28.0,27.0,31.016124838541646
476,513,4.123105625617661,54.0,8.0,13.038404810405298,15.0,16.0312195418814,14.035668847618199,39.01281840626232,26.076809620810597,24.0,22.0,22.0,8.0,17.0,3.0,1.0,10.04987562112089,8.0,9.0,29.0,27.0,31.0
477,514,4.123105625617661,54.0,8.0,13.038404810405298,14.035668847618199,16.0,14.035668847618199,39.01281840626232,26.076809620810597,24.0,22.0,22.0,8.0,17.0,3.0,1.0,10.04987562112089,9.0,9.5,28.0,27.0,31.016124838541646
478,515,1.0,53.009433122794285,8.0,11.0,14.0,16.0,16.0312195418814,36.013886210738214,25.019992006393608,24.5,21.0,22.0,5.5,14.5,1.5,1.5,10.04987562112089,9.055385138137417,9.5,28.0,27.0,30.01666203960727
479,516,1.4142135623730951,54.0,7.0710678118654755,11.0,14.035668847618199,15.0,16.0312195418814,35.014282800023196,24.020824298928627,23.5,21.0,21.0,5.0,14.0,2.0,1.0,10.04987562112089,9.0,9.5,28.0,27.0,31.016124838541646
480,517,2.0,54.00925846556311,7.0,11.0,15.0,15.0,16.0312195418814,36.013886210738214,25.019992006393608,24.0,21.0,22.0,5.5,14.5,1.5,0.5,9.055385138137417,9.0,9.0,28.0,26.0,30.0
481,518,6.0,55.00909015790027,8.0,12.0,15.0,16.0312195418814,14.035668847618199,40.01249804748511,28.0178514522438,25.0,22.0,23.0,8.5,17.5,4.5,1.5,10.0,9.055385138137417,9.5,28.0,26.0,30.01666203960727
482,519,7.0,55.0,8.06225774829855,11.045361017187261,15.0,16.0,14.035668847618199,40.01249804748511,29.068883707497267,25.5,23.0,23.0,9.0,17.0,5.0,2.0,9.055385138137417,8.06225774829855,9.0,28.0,26.0,30.0
483,520,7.0710678118654755,56.00892785976178,8.0,12.041594578792296,15.0,17.029386365926403,14.035668847618199,41.012193308819754,29.068883707497267,25.5,22.0,23.0,8.5,18.5,5.5,1.5,10.04987562112089,9.0,9.5,29.0,27.0,31.016124838541646
484,521,9.0,57.0087712549569,7.0,11.0,16.0,17.0,15.033296378372908,42.01190307520001,31.016124838541646,26.5,23.0,24.0,8.5,18.5,6.5,2.5,9.055385138137417,9.0,9.5,29.0,26.0,30.01666203960727
485,522,10.0,57.0087712549569,8.0,11.045361017187261,16.0,17.029386365926403,14.035668847618199,43.0,32.01562118716424,27.0,23.0,24.0,9.5,19.5,6.5,2.5,9.055385138137417,9.0,9.0,29.0,26.0,30.01666203960727
486,523,10.0,57.0087712549569,8.0,12.041594578792296,16.0,17.029386365926403,14.035668847618199,44.0,32.01562118716424,27.0,23.0,24.0,9.5,20.5,7.5,2.5,10.04987562112089,9.055385138137417,9.5,28.0,26.0,31.016124838541646
487,524,11.0,57.0350769263968,7.0,12.041594578792296,15.0,16.0312195418814,14.035668847618199,44.0,32.01562118716424,26.5,22.0,24.0,9.0,21.0,8.0,2.0,9.055385138137417,8.06225774829855,8.5,28.0,26.0,30.066592756745816
488,525,10.0,57.0350769263968,7.0,12.041594578792296,15.0,17.029386365926403,14.035668847618199,43.0,31.016124838541646,26.0,21.0,23.0,8.0,21.0,8.0,2.0,9.055385138137417,8.06225774829855,8.5,28.0,26.0,30.01666203960727
489,526,5.0,56.08029957123981,8.0,10.04987562112089,15.0,16.0312195418814,15.033296378372908,38.0,28.0178514522438,25.5,20.0,23.0,6.5,16.5,4.5,0.5,9.055385138137417,9.0,9.5,28.0,26.0,31.0
490,527,2.0,55.036351623268054,6.0,10.0,14.035668847618199,15.033296378372908,16.0312195418814,34.0147027033899,24.020824298928627,23.0,19.0,21.0,4.0,14.0,2.0,2.0,10.04987562112089,9.055385138137417,9.0,28.0,26.0,29.017236257093817
491,528,0.0,55.036351623268054,7.0,11.045361017187261,14.0,15.033296378372908,15.033296378372908,33.0,22.02271554554524,22.0,18.0,20.0,4.0,14.0,2.0,2.0,10.04987562112089,9.055385138137417,9.5,28.0,26.0,30.0
492,529,1.0,54.00925846556311,7.0,11.0,14.0,15.033296378372908,15.033296378372908,34.0147027033899,23.021728866442675,22.5,19.0,20.0,4.5,14.5,2.5,1.5,9.055385138137417,9.055385138137417,9.5,29.0,27.0,30.0
493,530,1.0,54.037024344425184,8.0,12.0,14.0,16.0,14.142135623730951,35.05709628591621,23.08679276123039,22.5,19.0,21.0,6.0,15.0,2.0,1.0,9.055385138137417,9.055385138137417,9.0,29.0,27.0,30.01666203960727
494,531,2.0,53.03772242470448,7.0,12.0,14.035668847618199,16.0,14.142135623730951,35.05709628591621,23.08679276123039,22.0,19.0,21.0,6.0,15.0,2.0,1.0,9.055385138137417,9.0,9.0,28.0,26.0,30.01666203960727
495,532,2.0,52.009614495783374,9.0,13.0,14.0,16.0,13.152946437965905,37.05401462729781,24.08318915758459,23.0,20.0,21.0,7.5,16.5,2.5,0.5,9.055385138137417,9.055385138137417,9.5,28.0,27.0,30.01666203960727
496,533,3.0,51.0098029794274,9.0,14.0,14.0,16.0,13.152946437965905,39.05124837953327,25.079872407968907,23.5,21.0,22.0,8.5,17.5,2.5,0.5,9.055385138137417,9.0,9.5,29.0,26.0,29.0
497,534,5.0990195135927845,51.0098029794274,9.0,14.035668847618199,15.0,15.033296378372908,13.038404810405298,41.012193308819754,27.073972741361768,24.5,21.0,22.0,8.5,19.5,4.5,0.5,7.0,7.0710678118654755,7.0,29.0,27.0,30.01666203960727
498,535,7.0,51.0098029794274,8.06225774829855,13.0,15.0,15.0,13.038404810405298,41.048751503547585,28.071337695236398,24.5,22.0,23.0,9.5,18.5,3.5,1.5,4.123105625617661,5.0990195135927845,5.0,29.0,27.0,30.01666203960727
499,536,5.0,51.0098029794274,9.055385138137417,14.0,14.0,16.0,13.038404810405298,41.048751503547585,27.073972741361768,24.5,22.0,23.0,9.5,18.5,3.5,1.5,5.0990195135927845,5.0990195135927845,5.0,29.0,26.0,30.01666203960727
500,537,5.0990195135927845,51.0,9.0,14.035668847618199,15.0,15.0,13.038404810405298,41.012193308819754,27.073972741361768,24.5,22.0,22.0,9.0,19.0,4.0,1.0,4.123105625617661,5.0990195135927845,5.0,30.0,27.0,30.01666203960727
501,538,4.0,50.0,8.0,12.0,13.0,14.0,15.033296378372908,39.01281840626232,27.018512172212592,25.0,22.0,22.0,7.0,17.0,4.0,0.0,5.0990195135927845,5.0990195135927845,5.0,28.0,26.0,30.01666203960727
502,539,3.0,52.0,6.0,11.0,14.0,14.0,16.0,36.0,25.0,23.5,21.0,21.0,5.0,15.0,2.0,0.0,5.0,5.0,5.5,28.0,26.0,30.01666203960727
503,540,2.23606797749979,52.03844732503075,6.0,11.0,13.038404810405298,14.035668847618199,16.0312195418814,35.0,24.0,23.0,20.0,22.0,5.0,14.0,1.0,1.0,7.0,6.0,6.5,28.0,26.0,30.01666203960727
504,541,1.0,54.0,7.0,11.045361017187261,14.0,15.0,15.033296378372908,34.0,23.021728866442675,22.5,20.0,20.0,5.0,14.0,2.0,1.0,7.0710678118654755,8.0,7.5,28.0,27.0,31.016124838541646
505,542,1.0,54.0,7.0,11.045361017187261,14.0,15.0,15.033296378372908,34.0,23.021728866442675,22.5,20.0,20.0,5.0,14.0,2.0,1.0,7.0710678118654755,7.0,7.0,28.0,27.0,31.0
506,543,1.0,53.0,7.0,11.0,14.0,14.0,15.033296378372908,34.0147027033899,23.021728866442675,22.5,21.0,21.0,6.0,13.0,1.0,0.0,8.06225774829855,7.0,7.5,27.0,26.0,31.016124838541646
507,544,3.0,56.0,8.0,11.0,15.0,16.0,13.152946437965905,35.05709628591621,24.08318915758459,22.5,20.0,20.0,7.0,15.0,2.0,0.0,9.055385138137417,8.0,8.5,28.0,26.0,31.016124838541646
508,545,7.0,56.00892785976178,7.0,12.0,15.0,16.0,13.152946437965905,39.05124837953327,27.073972741361768,23.5,21.0,22.0,8.5,17.5,4.5,2.5,9.055385138137417,8.0,8.0,29.0,27.0,32.0
509,546,8.06225774829855,57.0087712549569,8.0,12.041594578792296,15.0,17.0,12.041594578792296,40.01249804748511,28.071337695236398,24.0,22.0,23.0,10.5,17.5,4.5,3.5,9.055385138137417,8.0,8.5,29.0,26.0,32.01562118716424
510,547,9.0,58.077534382926416,7.0,12.0,16.0312195418814,17.029386365926403,13.038404810405298,41.012193308819754,29.017236257093817,24.5,21.0,24.0,9.5,18.5,4.5,2.5,9.055385138137417,8.0,8.5,28.0,25.0,31.016124838541646
511,548,5.0,56.08029957123981,9.055385138137417,12.041594578792296,15.0,15.033296378372908,13.152946437965905,39.0,27.018512172212592,24.5,20.0,23.0,8.5,17.5,3.5,0.5,9.055385138137417,8.0,8.5,30.0,26.0,32.01562118716424
512,549,5.0,56.08029957123981,9.055385138137417,12.041594578792296,15.0,16.0312195418814,13.152946437965905,39.0,27.018512172212592,24.5,20.0,23.0,8.5,17.5,3.5,0.5,9.055385138137417,8.0,8.5,30.0,26.0,32.01562118716424
513,550,1.0,55.226805085936306,9.055385138137417,11.045361017187261,15.033296378372908,15.033296378372908,15.132745950421556,36.0,25.019992006393608,24.5,19.0,24.0,6.5,14.5,1.5,2.5,8.06225774829855,8.0,8.5,30.0,27.0,32.01562118716424
514,551,2.23606797749979,56.142675390472796,7.0,10.04987562112089,15.033296378372908,15.132745950421556,16.0312195418814,35.014282800023196,25.0,24.0,20.0,24.0,6.0,13.0,1.0,1.0,8.06225774829855,8.0,8.5,30.0,26.0,30.01666203960727
515,552,2.23606797749979,55.14526271584895,7.0,10.0,14.035668847618199,15.033296378372908,16.0312195418814,35.0,25.0,24.0,20.0,24.0,6.0,13.0,1.0,1.0,9.055385138137417,9.0,9.0,29.0,25.0,31.064449134018133
516,553,1.0,54.08326913195984,7.0710678118654755,10.04987562112089,14.035668847618199,14.035668847618199,17.029386365926403,35.014282800023196,25.0,24.5,21.0,24.0,5.5,12.5,0.5,1.5,9.055385138137417,9.0,8.5,28.0,25.0,31.064449134018133
517,554,1.0,54.08326913195984,8.0,10.04987562112089,14.0,14.142135623730951,16.0312195418814,35.0,25.019992006393608,24.5,21.0,24.0,6.5,12.5,0.5,0.5,9.055385138137417,9.0,9.0,28.0,25.0,30.0
518,555,2.23606797749979,55.14526271584895,7.0,10.04987562112089,15.033296378372908,15.132745950421556,16.0312195418814,35.014282800023196,25.0,24.0,20.0,24.0,6.0,13.0,1.0,1.0,9.055385138137417,8.0,8.5,28.0,25.0,31.016124838541646
519,556,3.0,55.036351623268054,7.0,11.045361017187261,15.033296378372908,15.033296378372908,14.035668847618199,35.0,24.020824298928627,22.5,19.0,21.0,6.0,15.0,2.0,1.0,9.055385138137417,9.0,9.0,29.0,26.0,31.016124838541646
520,557,5.0,57.0350769263968,7.0,11.045361017187261,15.0,17.029386365926403,13.152946437965905,36.013886210738214,25.079872407968907,22.5,19.0,21.0,7.0,16.0,3.0,0.0,9.219544457292887,9.0,9.0,28.0,25.0,31.0
521,558,6.0,57.0350769263968,7.0,12.041594578792296,15.0,17.029386365926403,12.165525060596439,37.013511046643494,25.079872407968907,22.0,18.0,20.0,7.0,18.0,5.0,1.0,9.055385138137417,8.0,8.5,28.0,25.0,31.016124838541646
522,559,6.0,57.0350769263968,7.0,11.0,15.0,16.0312195418814,12.041594578792296,36.013886210738214,25.019992006393608,22.0,18.0,20.0,7.0,17.0,5.0,1.0,9.055385138137417,9.0,9.0,28.0,25.0,32.01562118716424
523,560,6.0,57.0350769263968,7.0,12.0,15.0,16.0312195418814,12.041594578792296,37.013511046643494,25.019992006393608,22.0,18.0,20.0,7.0,18.0,5.0,1.0,9.055385138137417,8.0,8.5,28.0,25.0,32.01562118716424
524,561,6.0,58.077534382926416,7.0,12.041594578792296,16.0312195418814,16.0312195418814,12.041594578792296,37.0,25.019992006393608,22.0,17.0,20.0,6.5,18.5,5.5,0.5,8.06225774829855,8.0,8.0,28.0,25.0,31.016124838541646
525,562,7.0,58.034472514187634,7.0,11.0,15.033296378372908,16.0312195418814,12.0,37.0,26.0,22.5,18.0,20.0,7.0,18.0,5.0,0.0,9.055385138137417,8.0,8.5,28.0,25.0,31.0
526,563,9.0,59.07622195096772,7.0,11.045361017187261,16.0312195418814,17.029386365926403,11.045361017187261,38.0,27.018512172212592,22.5,18.0,21.0,8.5,18.5,6.5,1.5,9.055385138137417,8.0,8.0,28.0,25.0,32.01562118716424
527,564,9.0,59.07622195096772,6.0,11.0,16.0,17.029386365926403,11.045361017187261,37.013511046643494,26.019223662515376,21.5,17.0,20.0,7.5,18.5,5.5,1.5,8.06225774829855,8.0,8.5,28.0,25.0,31.016124838541646
528,565,8.0,59.033888572581766,7.0,11.045361017187261,16.0,18.0,11.045361017187261,37.0,26.019223662515376,22.0,18.0,20.0,8.0,18.0,5.0,2.0,8.06225774829855,8.0,8.0,28.0,25.0,31.016124838541646
529,566,8.0,59.033888572581766,7.0,11.045361017187261,17.0,17.0,11.045361017187261,37.0,26.019223662515376,22.0,18.0,20.0,8.0,18.0,6.0,2.0,9.055385138137417,8.0,8.5,28.0,25.0,31.016124838541646
530,567,8.0,60.03332407921454,7.0,11.045361017187261,16.0,17.029386365926403,11.0,37.013511046643494,26.0,22.0,17.0,19.0,7.0,19.0,6.0,1.0,8.0,8.0,8.0,27.0,25.0,30.01666203960727
531,568,9.0,60.07495318350236,7.0,12.041594578792296,16.0,18.027756377319946,12.041594578792296,40.0,28.0178514522438,23.5,19.0,22.0,8.5,19.5,5.5,2.5,8.06225774829855,8.0,8.5,28.0,24.0,31.0
532,569,11.0,59.07622195096772,7.0,13.038404810405298,16.0,18.027756377319946,12.041594578792296,43.0,30.01666203960727,24.5,19.0,22.0,8.5,22.5,8.5,2.5,9.055385138137417,8.0,8.5,28.0,26.0,30.01666203960727
533,570,12.0,58.077534382926416,7.0710678118654755,12.041594578792296,17.029386365926403,17.0,12.165525060596439,43.0,31.016124838541646,25.0,19.0,22.0,8.5,22.5,8.5,2.5,9.055385138137417,8.0,8.5,28.0,25.0,30.01666203960727
534,571,12.0,58.077534382926416,7.0,12.041594578792296,16.0,17.029386365926403,12.041594578792296,43.0,31.016124838541646,25.0,19.0,22.0,8.5,22.5,8.5,2.5,9.055385138137417,8.0,8.0,28.0,25.0,31.016124838541646
535,572,12.0,58.077534382926416,7.0,12.0,16.0,17.029386365926403,12.041594578792296,43.01162633521314,31.016124838541646,25.0,19.0,22.0,8.5,22.5,8.5,2.5,9.055385138137417,8.0,8.5,28.0,25.0,30.01666203960727
536,573,8.0,58.034472514187634,7.0,11.045361017187261,16.0312195418814,17.0,12.041594578792296,38.0,27.018512172212592,23.0,18.0,20.0,7.0,19.0,6.0,0.0,8.06225774829855,9.0,9.0,28.0,25.0,31.016124838541646
537,574,2.0,56.08029957123981,8.0,11.045361017187261,15.0,15.132745950421556,14.035668847618199,35.0,24.020824298928627,23.0,18.0,21.0,5.5,15.5,2.5,1.5,9.055385138137417,9.055385138137417,9.0,27.0,25.0,30.01666203960727
538,575,1.0,57.07889277132134,8.0,12.041594578792296,15.0,16.0312195418814,13.038404810405298,34.0,22.02271554554524,21.5,17.0,20.0,5.5,15.5,2.5,1.5,8.06225774829855,8.06225774829855,8.5,27.0,25.0,30.01666203960727
539,576,1.0,56.08029957123981,8.0,12.0,15.0,16.0312195418814,13.038404810405298,34.0147027033899,22.02271554554524,21.5,17.0,20.0,5.5,15.5,2.5,1.5,9.055385138137417,8.06225774829855,8.5,27.0,26.0,30.0
540,577,5.0,57.0350769263968,7.0,12.0,16.0,16.0312195418814,12.165525060596439,36.05551275463989,24.08318915758459,21.5,18.0,20.0,7.0,17.0,3.0,1.0,9.055385138137417,9.0,9.5,28.0,26.0,30.0
541,578,7.0,58.034472514187634,7.0,12.0,16.0,17.029386365926403,12.165525060596439,38.05259518088089,26.076809620810597,22.5,19.0,21.0,8.0,18.0,4.0,2.0,9.055385138137417,8.0,9.0,27.0,25.0,31.0
542,579,7.0,56.00892785976178,7.0,12.041594578792296,16.0,17.0,12.041594578792296,38.0,26.019223662515376,22.5,19.0,20.0,7.5,18.5,5.5,1.5,9.055385138137417,9.0,9.0,27.0,26.0,31.0
543,580,8.0,58.008620049092706,6.0,12.0,16.0,17.029386365926403,12.041594578792296,38.01315561749642,26.019223662515376,22.0,19.0,20.0,7.5,18.5,4.5,1.5,9.055385138137417,9.0,9.0,28.0,27.0,31.016124838541646
544,581,7.0,56.00892785976178,7.0710678118654755,12.0,16.0312195418814,17.029386365926403,11.045361017187261,37.05401462729781,25.079872407968907,21.5,19.0,20.0,8.5,17.5,4.5,2.5,9.055385138137417,9.0,9.5,27.0,25.0,31.016124838541646
545,582,7.0710678118654755,56.00892785976178,6.0,12.041594578792296,15.033296378372908,17.029386365926403,12.041594578792296,37.013511046643494,25.079872407968907,21.5,19.0,20.0,7.5,17.5,4.5,2.5,9.055385138137417,9.055385138137417,9.0,28.0,26.0,30.0
546,583,7.0710678118654755,56.00892785976178,7.0,12.0,15.033296378372908,17.029386365926403,11.045361017187261,37.05401462729781,25.079872407968907,21.5,19.0,20.0,8.5,17.5,4.5,2.5,8.06225774829855,9.055385138137417,9.0,27.0,25.0,30.0
547,584,7.0,55.00909015790027,7.0,12.0,16.0312195418814,16.0312195418814,10.198039027185569,36.05551275463989,24.08318915758459,20.5,18.0,19.0,8.5,17.5,4.5,2.5,9.055385138137417,8.06225774829855,9.0,28.0,26.0,30.01666203960727
548,585,7.0,55.0,7.0,12.0,16.0312195418814,18.0,10.198039027185569,36.05551275463989,24.08318915758459,20.5,19.0,19.0,9.0,17.0,4.0,3.0,9.055385138137417,8.06225774829855,9.0,27.0,26.0,31.0
549,586,7.0,56.00892785976178,7.0,13.0,16.0,17.029386365926403,11.180339887498949,38.05259518088089,25.079872407968907,21.5,19.0,20.0,8.5,18.5,4.5,2.5,9.055385138137417,9.0,9.0,27.0,26.0,31.0
550,587,10.0,56.00892785976178,7.0,12.041594578792296,16.0,17.0,10.198039027185569,39.01281840626232,27.073972741361768,22.0,18.0,19.0,8.5,20.5,6.5,2.5,9.055385138137417,9.0,9.0,28.0,26.0,30.0
551,588,12.0,56.0,7.0,12.0,16.0,18.0,10.198039027185569,41.048751503547585,29.068883707497267,23.0,19.0,19.0,9.0,22.0,8.0,3.0,7.0710678118654755,7.0,7.0,27.0,26.0,32.0
552,589,11.045361017187261,56.00892785976178,7.0,13.038404810405298,16.0,17.0,10.04987562112089,41.012193308819754,28.071337695236398,22.5,18.0,19.0,8.5,22.5,8.5,2.5,5.0990195135927845,5.0,5.0,28.0,26.0,31.016124838541646
553,590,12.0,56.00892785976178,7.0710678118654755,12.0,17.0,18.027756377319946,10.04987562112089,41.048751503547585,29.068883707497267,23.0,18.0,19.0,8.5,22.5,8.5,2.5,5.0990195135927845,5.0990195135927845,5.0,28.0,26.0,31.0
554,591,10.0,56.00892785976178,7.0,12.0,16.0,18.0,10.04987562112089,39.01281840626232,27.018512172212592,22.0,18.0,19.0,8.5,20.5,7.5,2.5,5.0,5.0,5.0,28.0,26.0,31.0
555,592,9.0,56.00892785976178,6.0,12.0,16.0,17.029386365926403,10.04987562112089,37.013511046643494,25.019992006393608,20.5,18.0,19.0,8.5,18.5,5.5,2.5,5.0990195135927845,5.0990195135927845,4.5,28.0,26.0,30.01666203960727
556,593,9.0,57.0,7.0,12.0,16.0312195418814,18.0,10.04987562112089,38.01315561749642,26.019223662515376,21.5,19.0,19.0,9.0,19.0,6.0,3.0,5.0,5.0,4.5,28.0,26.0,31.016124838541646
557,594,9.0,56.00892785976178,7.0,12.0,16.0,18.0,10.04987562112089,38.01315561749642,26.019223662515376,21.5,18.0,19.0,8.5,19.5,6.5,2.5,5.0,4.123105625617661,4.5,28.0,27.0,31.016124838541646
558,595,9.0,56.0,6.0,12.0,16.0,18.0,11.045361017187261,38.01315561749642,26.019223662515376,21.5,19.0,19.0,8.0,19.0,6.0,3.0,5.0,4.123105625617661,4.5,28.0,26.0,31.016124838541646
559,596,9.0,56.0,7.0,12.0,16.0,18.0,10.04987562112089,38.01315561749642,26.019223662515376,21.5,19.0,19.0,9.0,19.0,6.0,3.0,5.0,5.0,5.0,28.0,26.0,31.016124838541646
560,597,9.0,56.00892785976178,7.0,12.0,16.0,18.0,10.04987562112089,38.01315561749642,26.019223662515376,21.5,18.0,19.0,8.5,19.5,5.5,2.5,5.0,5.0,5.5,27.0,26.0,32.0
561,598,8.0,57.0087712549569,7.0,13.0,17.0,18.027756377319946,10.04987562112089,38.01315561749642,25.019992006393608,21.0,18.0,19.0,8.5,19.5,5.5,2.5,6.082762530298219,7.0,6.5,27.0,26.0,31.0
562,599,9.055385138137417,58.008620049092706,7.0,12.041594578792296,17.0,18.0,10.04987562112089,38.01315561749642,26.076809620810597,21.5,18.0,19.0,8.5,19.5,5.5,2.5,7.0,7.0,7.0,27.0,26.0,31.0
563,600,9.0,56.00892785976178,7.0,11.0,16.0,18.0,10.04987562112089,37.013511046643494,26.019223662515376,21.5,18.0,19.0,8.5,18.5,5.5,2.5,8.06225774829855,8.0,8.0,27.0,27.0,32.0
564,601,8.0,58.0,7.0,12.0,16.0,18.0,11.180339887498949,38.05259518088089,26.076809620810597,22.0,19.0,19.0,8.0,19.0,6.0,2.0,8.06225774829855,9.055385138137417,9.0,27.0,27.0,32.01562118716424
565,602,8.0,57.0,7.0,12.0,16.0,18.0,11.180339887498949,38.05259518088089,26.076809620810597,22.0,19.0,19.0,8.0,19.0,6.0,2.0,8.06225774829855,9.055385138137417,9.0,27.0,27.0,32.01562118716424
566,603,8.0,57.0087712549569,7.0,12.0,16.0,18.0,11.045361017187261,38.01315561749642,26.019223662515376,22.0,18.0,19.0,7.5,19.5,6.5,1.5,9.055385138137417,8.0,8.5,28.0,27.0,31.0
567,604,8.0,57.0087712549569,7.0,12.0,16.0,17.029386365926403,12.165525060596439,39.05124837953327,27.073972741361768,23.0,19.0,20.0,7.5,19.5,5.5,1.5,8.06225774829855,9.055385138137417,9.0,28.0,27.0,32.0
568,605,9.0,58.0,7.0,12.0,16.0312195418814,18.027756377319946,11.180339887498949,39.05124837953327,27.073972741361768,22.5,19.0,19.0,8.0,20.0,6.0,2.0,9.055385138137417,8.06225774829855,9.0,28.0,28.0,33.0
569,606,8.0,58.0,7.0,12.0,16.0,17.0,11.180339887498949,38.05259518088089,26.076809620810597,22.0,19.0,19.0,8.0,19.0,6.0,2.0,9.055385138137417,9.0,9.0,28.0,28.0,32.0
570,607,9.0,58.008620049092706,7.0,12.0,16.0,18.0,11.180339887498949,39.05124837953327,27.073972741361768,22.5,19.0,20.0,8.5,19.5,6.5,2.5,9.055385138137417,9.0,9.0,27.0,27.0,32.01562118716424
571,608,9.055385138137417,58.008620049092706,7.0,12.0,17.0,18.0,11.180339887498949,39.11521443121589,27.16615541441225,22.5,19.0,20.0,8.5,19.5,6.5,2.5,9.055385138137417,9.055385138137417,9.0,27.0,27.0,32.01562118716424
572,609,10.0,58.008620049092706,7.0,13.0,17.0,18.027756377319946,11.180339887498949,41.048751503547585,28.071337695236398,23.0,19.0,20.0,8.5,21.5,7.5,2.5,9.055385138137417,8.06225774829855,8.5,28.0,27.0,32.0
573,610,10.0,58.008620049092706,7.0,13.0,16.0,18.0,11.045361017187261,41.012193308819754,28.0178514522438,23.0,19.0,20.0,8.5,21.5,7.5,2.5,8.06225774829855,9.0,9.0,28.0,27.0,32.01562118716424
574,611,10.0,57.0350769263968,7.0,13.0,16.0,18.0,11.045361017187261,41.012193308819754,28.0178514522438,23.0,19.0,21.0,9.0,21.0,7.0,3.0,9.055385138137417,9.0,9.0,28.0,27.0,31.016124838541646
575,612,11.0,57.0087712549569,7.0,12.0,16.0312195418814,17.0,11.045361017187261,41.012193308819754,29.017236257093817,23.5,20.0,21.0,9.5,20.5,6.5,3.5,8.06225774829855,9.0,9.0,28.0,27.0,31.016124838541646
576,613,10.04987562112089,56.0357029044876,7.0,13.0,16.0,18.027756377319946,11.045361017187261,41.0,28.0,23.0,19.0,21.0,9.0,21.0,7.0,2.0,8.06225774829855,9.0,9.0,28.0,27.0,31.0
577,614,10.0,57.0350769263968,6.0,12.041594578792296,16.0312195418814,18.0,12.041594578792296,40.0,28.0178514522438,23.0,20.0,22.0,9.0,19.0,6.0,3.0,8.06225774829855,8.0,8.5,28.0,27.0,31.0
578,615,8.0,56.0357029044876,7.0,12.0,16.0,17.029386365926403,12.041594578792296,39.01281840626232,27.018512172212592,23.0,20.0,22.0,9.0,18.0,4.0,2.0,9.055385138137417,8.0,9.0,28.0,27.0,32.01562118716424
579,616,6.082762530298219,56.0357029044876,7.0,11.045361017187261,15.0,16.0312195418814,12.041594578792296,36.013886210738214,25.079872407968907,22.0,20.0,22.0,9.0,15.0,3.0,2.0,9.055385138137417,8.0,8.5,28.0,26.0,31.016124838541646
580,617,6.082762530298219,56.0357029044876,7.0,11.045361017187261,15.0,16.0312195418814,12.041594578792296,36.013886210738214,25.079872407968907,22.0,20.0,22.0,9.0,15.0,3.0,2.0,9.055385138137417,8.0,8.5,28.0,26.0,31.016124838541646
581,618,6.0,56.08029957123981,7.0,11.045361017187261,15.033296378372908,17.029386365926403,12.165525060596439,36.013886210738214,25.079872407968907,22.0,19.0,22.0,8.5,15.5,3.5,1.5,9.055385138137417,9.0,9.0,28.0,26.0,31.0
582,619,5.0,56.0357029044876,7.0,11.045361017187261,15.0,17.029386365926403,13.038404810405298,36.0,25.019992006393608,22.5,20.0,22.0,8.0,15.0,3.0,2.0,8.06225774829855,9.055385138137417,9.0,28.0,26.0,31.016124838541646
583,620,6.0,56.00892785976178,7.0,12.041594578792296,15.0,16.0,12.041594578792296,37.0,25.019992006393608,22.0,20.0,21.0,8.5,16.5,3.5,2.5,8.06225774829855,8.0,8.0,29.0,27.0,31.0
584,621,9.0,56.00892785976178,7.0,11.0,15.033296378372908,16.0,12.041594578792296,39.01281840626232,28.0178514522438,23.5,22.0,23.0,10.5,16.5,3.5,4.5,9.055385138137417,8.0,8.0,28.0,26.0,31.0
585,622,5.0,55.036351623268054,7.0,12.041594578792296,15.0,15.033296378372908,15.132745950421556,39.01281840626232,27.073972741361768,24.5,21.0,23.0,7.0,17.0,3.0,0.0,9.055385138137417,8.0,8.5,27.0,25.0,30.0
586,623,2.0,55.036351623268054,7.0,12.0,15.0,16.0312195418814,15.033296378372908,36.013886210738214,24.020824298928627,23.0,20.0,22.0,6.0,15.0,1.0,0.0,9.055385138137417,8.0,8.5,27.0,26.0,31.0
587,624,1.0,55.00909015790027,7.0,12.041594578792296,15.0,16.0312195418814,15.033296378372908,35.0,23.021728866442675,22.5,20.0,21.0,5.5,14.5,1.5,0.5,9.055385138137417,8.0,8.5,28.0,27.0,31.0
588,625,1.0,54.037024344425184,8.0,12.0,15.0,16.0,14.035668847618199,35.014282800023196,23.021728866442675,22.5,20.0,22.0,7.0,14.0,1.0,0.0,9.055385138137417,8.06225774829855,8.5,28.0,26.0,32.01562118716424
589,626,2.0,56.00892785976178,7.0,12.041594578792296,15.033296378372908,16.0,14.035668847618199,35.0,23.021728866442675,22.0,20.0,21.0,6.5,14.5,1.5,0.5,9.055385138137417,9.055385138137417,9.0,28.0,26.0,32.0
590,627,4.0,54.00925846556311,7.0,12.041594578792296,14.0,15.033296378372908,13.038404810405298,36.0,24.020824298928627,22.0,21.0,22.0,8.5,14.5,1.5,1.5,9.055385138137417,9.0,9.0,28.0,26.0,32.01562118716424
591,628,7.0,55.036351623268054,8.0,13.0,15.0,17.0,11.045361017187261,39.01281840626232,26.019223662515376,22.5,20.0,22.0,10.0,18.0,3.0,3.0,8.06225774829855,8.0,8.0,28.0,26.0,32.0
592,629,8.0,55.08175741568164,8.0,14.0,16.0312195418814,17.029386365926403,11.180339887498949,41.048751503547585,27.073972741361768,23.0,20.0,23.0,10.5,19.5,4.5,2.5,9.055385138137417,8.0,8.5,29.0,25.0,31.064449134018133
593,630,10.0,56.0357029044876,8.0,13.0,16.0312195418814,17.029386365926403,11.180339887498949,42.04759208325728,29.068883707497267,24.0,20.0,22.0,10.0,21.0,6.0,2.0,10.04987562112089,8.0,8.5,29.0,25.0,31.064449134018133
594,631,10.0,55.08175741568164,7.0,13.038404810405298,16.0312195418814,17.029386365926403,12.165525060596439,42.01190307520001,29.068883707497267,24.0,20.0,23.0,9.5,20.5,5.5,2.5,9.055385138137417,8.0,8.5,29.0,25.0,32.0624390837628
595,632,7.0,54.08326913195984,7.0,12.041594578792296,15.0,16.0312195418814,11.180339887498949,37.013511046643494,25.079872407968907,21.5,18.0,21.0,8.5,17.5,3.5,1.5,9.055385138137417,9.0,8.5,29.0,25.0,30.066592756745816
596,633,3.0,55.08175741568164,8.0,12.041594578792296,15.0,17.029386365926403,12.165525060596439,35.014282800023196,23.08679276123039,21.5,18.0,21.0,7.5,15.5,1.5,0.5,9.055385138137417,8.0,8.5,29.0,25.0,30.01666203960727
597,634,3.0,54.08326913195984,7.0,12.0,15.033296378372908,16.0312195418814,11.045361017187261,33.015148038438355,21.02379604162864,19.5,16.0,19.0,6.5,15.5,1.5,0.5,9.055385138137417,9.0,9.5,28.0,25.0,31.016124838541646
598,635,4.0,53.03772242470448,7.0,12.0,15.033296378372908,16.0312195418814,11.045361017187261,34.0147027033899,22.02271554554524,20.0,17.0,19.0,7.0,16.0,2.0,0.0,9.055385138137417,9.0,9.5,29.0,25.0,32.01562118716424
599,636,4.0,51.0098029794274,7.0,12.0,14.0,15.033296378372908,12.041594578792296,35.014282800023196,23.021728866442675,21.0,19.0,20.0,7.5,15.5,1.5,1.5,9.055385138137417,9.055385138137417,9.5,29.0,26.0,32.01562118716424
600,637,4.123105625617661,51.0098029794274,8.0,13.038404810405298,15.0,15.033296378372908,11.045361017187261,36.013886210738214,23.08679276123039,21.0,19.0,20.0,8.5,16.5,2.5,1.5,9.055385138137417,9.055385138137417,9.5,29.0,27.0,31.0
601,638,4.123105625617661,51.0098029794274,7.0,13.038404810405298,15.0,15.033296378372908,12.041594578792296,36.013886210738214,23.08679276123039,21.0,19.0,20.0,7.5,16.5,1.5,1.5,9.055385138137417,9.0,9.5,28.0,27.0,31.0
602,639,4.0,50.00999900019995,8.06225774829855,12.041594578792296,15.0,16.0,11.045361017187261,35.014282800023196,23.08679276123039,21.0,19.0,20.0,8.5,15.5,1.5,1.5,9.055385138137417,9.0,9.0,28.0,27.0,31.016124838541646
603,640,5.0,51.0098029794274,7.0,13.0,15.033296378372908,16.0312195418814,11.180339887498949,36.05551275463989,23.08679276123039,20.5,19.0,20.0,8.5,16.5,1.5,1.5,9.055385138137417,9.055385138137417,9.0,29.0,27.0,32.0
604,641,4.0,51.0098029794274,7.0,13.0,14.0,16.0312195418814,12.165525060596439,36.05551275463989,23.08679276123039,21.0,20.0,21.0,8.5,15.5,1.5,1.5,9.0,9.055385138137417,9.5,28.0,27.0,31.0
605,642,3.0,49.01020301937138,7.0,13.0,14.0,15.033296378372908,13.038404810405298,36.013886210738214,23.021728866442675,21.5,20.0,21.0,7.5,15.5,1.5,1.5,10.04987562112089,9.055385138137417,9.5,29.0,28.0,32.0
606,643,3.0,48.010415536631214,8.0,13.0,14.0,14.035668847618199,12.041594578792296,36.013886210738214,23.021728866442675,21.5,20.0,21.0,8.5,15.5,1.5,1.5,9.055385138137417,10.0,10.0,29.0,28.0,31.0
607,644,2.0,49.0,7.0,13.0,14.0,16.0312195418814,14.142135623730951,36.05551275463989,23.08679276123039,22.0,20.0,20.0,6.0,16.0,1.0,0.0,9.055385138137417,9.055385138137417,9.0,28.0,27.0,31.0
608,645,1.0,49.01020301937138,7.0,13.0,14.0,16.0,14.142135623730951,35.05709628591621,22.090722034374522,21.5,19.0,20.0,5.5,15.5,1.5,0.5,9.219544457292887,9.055385138137417,9.5,28.0,27.0,32.0
609,646,1.0,50.0,7.0,13.0,14.0,15.033296378372908,14.035668847618199,35.014282800023196,22.02271554554524,21.5,19.0,19.0,5.0,16.0,2.0,1.0,9.219544457292887,9.055385138137417,9.0,28.0,27.0,31.0
610,647,1.0,50.0,7.0,12.0,13.0,15.0,14.035668847618199,34.0147027033899,22.02271554554524,21.5,19.0,19.0,5.0,15.0,2.0,1.0,9.055385138137417,10.04987562112089,10.0,28.0,27.0,31.0
611,648,1.0,50.0,7.0,13.0,14.0,15.0,14.035668847618199,35.014282800023196,22.02271554554524,21.5,19.0,19.0,5.0,16.0,2.0,1.0,9.055385138137417,9.055385138137417,9.5,28.0,27.0,31.0
