,frame_seq,m1,m3,m4,m5,m6,m7,m8,m9,m10,m11,m12,m13,m14,m15,m16,m17,e1,e2,e3,b1,b2,b3
0,0,2.23606797749979,89.0,13.0,16.0,24.0,25.019992006393608,22.02271554554524,53.03772242470448,37.05401462729781,36.0,35.0,35.0,13.0,18.0,1.0,1.0,4.123105625617661,6.0,5.5,33.0,37.0,36.124783736376884
1,1,2.23606797749979,89.0,13.0,16.0,24.0,25.019992006393608,22.02271554554524,53.03772242470448,37.05401462729781,36.0,35.0,35.0,13.0,18.0,1.0,1.0,4.123105625617661,6.0,5.5,33.0,37.0,36.124783736376884
2,2,2.8284271247461903,91.0,12.0,17.0,24.0,25.019992006393608,22.02271554554524,53.009433122794285,36.013886210738214,35.0,34.0,34.0,12.0,19.0,1.0,1.0,5.0990195135927845,6.0,5.5,33.0,37.0,36.05551275463989
3,3,2.8284271247461903,91.0,12.0,16.0,23.021728866442675,24.0,23.0,53.03772242470448,37.05401462729781,36.0,35.0,35.0,12.0,18.0,1.0,0.0,5.0990195135927845,7.0,6.5,32.0,36.0,38.118237105091836
4,4,2.23606797749979,93.0,13.0,16.0312195418814,24.0,25.019992006393608,22.02271554554524,52.03844732503075,36.013886210738214,35.5,34.0,34.0,12.0,18.0,0.0,0.0,8.0,9.055385138137417,8.5,33.0,36.0,38.118237105091836
5,5,2.8284271247461903,91.0,13.0,15.033296378372908,23.0,25.0,21.0,51.088159097779204,36.05551275463989,35.0,34.0,34.0,13.0,17.0,1.0,1.0,9.0,10.04987562112089,9.5,32.0,36.0,38.05259518088089
6,6,2.8284271247461903,91.0,13.0,16.0,23.0,25.0,22.0,53.03772242470448,37.05401462729781,36.0,35.0,35.0,13.0,18.0,1.0,1.0,9.0,10.04987562112089,10.0,32.0,36.0,38.118237105091836
7,7,2.23606797749979,92.00543462209176,12.0,16.0,24.0,25.019992006393608,23.0,53.009433122794285,37.013511046643494,36.0,34.0,35.0,11.5,18.5,0.5,0.5,9.0,10.04987562112089,10.0,32.0,36.0,37.12142238654117
8,8,2.23606797749979,92.00543462209176,12.0,16.0,24.0,25.019992006393608,23.0,53.009433122794285,37.013511046643494,36.0,34.0,35.0,11.5,18.5,0.5,0.5,9.0,10.04987562112089,10.0,32.0,36.0,37.12142238654117
9,9,1.4142135623730951,95.0,13.0,16.0,24.0,26.019223662515376,22.0,52.009614495783374,36.013886210738214,35.5,34.0,34.0,12.0,18.0,1.0,0.0,13.038404810405298,14.142135623730951,13.5,31.0,36.0,38.2099463490856
10,10,2.23606797749979,95.00526301210897,13.0,15.0,24.0,25.0,22.02271554554524,51.0098029794274,36.013886210738214,35.5,33.0,32.0,10.5,18.5,2.5,1.5,12.0,14.142135623730951,13.5,32.0,36.0,38.118237105091836
11,11,2.23606797749979,95.00526301210897,13.0,15.0,24.0,25.0,22.02271554554524,51.0098029794274,36.013886210738214,35.5,33.0,32.0,10.5,18.5,2.5,1.5,12.0,14.142135623730951,13.5,32.0,36.0,38.118237105091836
12,12,2.8284271247461903,95.00526301210897,12.0,15.0,24.020824298928627,26.0,23.021728866442675,52.009614495783374,37.013511046643494,36.0,33.0,32.0,9.5,19.5,3.5,2.5,13.0,13.038404810405298,13.5,33.0,36.0,38.118237105091836
13,13,2.8284271247461903,95.00526301210897,12.0,15.0,24.0,26.0,23.021728866442675,52.009614495783374,37.013511046643494,36.0,32.0,31.0,8.5,20.5,4.5,2.5,13.038404810405298,14.142135623730951,14.0,33.0,36.0,41.10960958218893
14,14,2.23606797749979,97.0051545022222,13.0,16.0,24.0,25.019992006393608,23.0,53.03772242470448,37.05401462729781,36.5,32.0,31.0,8.5,21.5,4.5,3.5,12.0,13.038404810405298,13.0,32.0,35.0,38.118237105091836
15,15,2.23606797749979,97.0051545022222,13.0,16.0,24.0,25.019992006393608,23.0,53.03772242470448,37.05401462729781,36.5,32.0,31.0,8.5,21.5,4.5,3.5,12.0,13.038404810405298,13.0,32.0,35.0,38.118237105091836
16,16,2.23606797749979,96.00520819205592,13.0,16.0,23.0,26.019223662515376,23.021728866442675,53.009433122794285,37.013511046643494,36.5,33.0,32.0,9.5,20.5,3.5,2.5,13.0,14.035668847618199,14.0,33.0,36.0,38.118237105091836
17,17,2.23606797749979,98.00510190801293,12.0,16.0312195418814,24.0,26.0,22.02271554554524,52.009614495783374,36.0,35.0,30.0,29.0,7.5,22.5,5.5,3.5,13.0,14.142135623730951,13.5,33.0,36.0,39.11521443121589
18,18,3.605551275463989,98.02040603874276,13.0,15.0,25.0,27.018512172212592,22.090722034374522,53.0,38.0,36.5,31.0,29.0,8.0,23.0,6.0,4.0,12.0,13.152946437965905,13.5,31.0,35.0,39.11521443121589
19,19,2.8284271247461903,97.0051545022222,13.0,16.0,25.0,26.0,22.02271554554524,53.009433122794285,37.013511046643494,36.0,30.0,29.0,7.5,23.5,6.5,4.5,12.0,14.035668847618199,14.0,32.0,35.0,39.11521443121589
20,20,11.045361017187261,102.0196059588548,11.0,14.0,28.0178514522438,29.0,21.0,57.0087712549569,43.01162633521314,37.5,29.0,27.0,7.0,29.0,14.0,2.0,11.0,13.038404810405298,13.0,33.0,38.0,38.118237105091836
21,21,18.027756377319946,106.00471687618433,10.0,13.0,29.017236257093817,32.01562118716424,22.090722034374522,63.071388124885914,50.08991914547278,41.0,31.0,30.0,8.5,32.5,17.5,0.5,11.0,13.038404810405298,12.5,35.0,38.0,38.118237105091836
22,22,18.027756377319946,106.0,10.0,13.038404810405298,28.0178514522438,31.016124838541646,22.02271554554524,63.071388124885914,50.039984012787215,41.0,30.0,30.0,8.0,33.0,19.0,0.0,11.0,13.152946437965905,12.5,34.0,38.0,39.11521443121589
23,23,21.095023109728988,107.00467279516349,11.0,13.038404810405298,29.0,31.064449134018133,21.02379604162864,66.12110101926616,53.08483775994799,42.5,31.0,32.0,10.5,34.5,19.5,0.5,12.0,15.033296378372908,14.5,38.0,41.0,40.19950248448356
24,24,24.08318915758459,106.04244433244644,10.0,14.035668847618199,28.0178514522438,30.01666203960727,21.095023109728988,69.18092222571191,55.14526271584895,43.0,31.0,34.0,11.5,36.5,21.5,1.5,11.0,14.035668847618199,14.0,37.0,40.0,37.33630940518894
25,25,25.019992006393608,105.01904589168576,10.0,13.152946437965905,28.0,30.01666203960727,21.213203435596427,69.26037828369117,56.142675390472796,43.5,31.0,33.0,11.0,37.0,22.0,2.0,12.0,14.035668847618199,14.0,36.0,39.0,39.319206502675
26,26,25.019992006393608,107.01868995647442,10.0,12.165525060596439,28.0,30.01666203960727,22.20360331117452,69.26037828369117,57.14017850864661,44.5,31.0,33.0,10.0,37.0,23.0,1.0,13.0,14.142135623730951,13.5,36.0,39.0,39.319206502675
27,27,27.073972741361768,104.00480758118829,10.0,13.038404810405298,28.0,31.016124838541646,21.213203435596427,71.25307010929424,58.215118311311535,44.5,32.0,33.0,11.5,38.5,23.5,2.5,11.0,14.0,13.0,37.0,39.0,37.33630940518894
28,28,30.066592756745816,104.00480758118829,10.0,13.038404810405298,29.0,31.016124838541646,21.213203435596427,74.24284477308234,61.204574992397426,46.0,33.0,34.0,12.5,40.5,25.5,3.5,11.0,14.0,13.0,38.0,40.0,38.3275357934736
29,29,31.016124838541646,102.0,10.0,14.035668847618199,27.0,29.0,21.213203435596427,76.16429609731846,62.12889826803627,46.5,36.0,36.0,15.0,40.0,24.0,6.0,12.041594578792296,14.0,13.5,37.0,38.0,36.22154055254967
30,30,31.016124838541646,102.0,10.0,14.035668847618199,27.0,29.0,21.213203435596427,76.16429609731846,62.12889826803627,46.5,36.0,36.0,15.0,40.0,24.0,6.0,12.041594578792296,14.0,13.5,37.0,38.0,36.22154055254967
31,31,31.016124838541646,102.0,10.0,14.035668847618199,27.0,29.0,21.213203435596427,76.16429609731846,62.12889826803627,46.5,36.0,36.0,15.0,40.0,24.0,6.0,12.041594578792296,14.0,13.5,37.0,38.0,36.22154055254967
32,32,33.015148038438355,101.07917688624102,9.055385138137417,13.152946437965905,28.0178514522438,30.01666203960727,20.615528128088304,75.53806987208503,62.39390995922599,45.5,35.0,39.0,17.0,38.0,23.0,8.0,11.045361017187261,13.038404810405298,12.5,38.0,36.0,36.124783736376884
33,33,32.0624390837628,99.04544411531506,10.04987562112089,12.041594578792296,28.0,30.01666203960727,20.396078054371138,74.43117626371358,62.39390995922599,46.0,37.0,40.0,18.5,35.5,21.5,9.5,11.045361017187261,12.0,12.5,38.0,36.0,37.05401462729781
34,34,33.06055050963308,100.04498987955368,9.055385138137417,13.038404810405298,28.0,30.01666203960727,20.396078054371138,75.4254598925323,62.39390995922599,45.5,37.0,40.0,18.5,36.5,21.5,9.5,11.045361017187261,12.0,12.0,38.0,36.0,37.05401462729781
35,35,33.06055050963308,100.04498987955368,9.055385138137417,13.038404810405298,28.0,30.01666203960727,20.396078054371138,75.4254598925323,62.39390995922599,45.5,37.0,40.0,18.5,36.5,21.5,9.5,11.045361017187261,12.0,12.0,38.0,36.0,37.05401462729781
36,36,27.073972741361768,103.07764064044152,10.04987562112089,13.038404810405298,29.017236257093817,32.0624390837628,20.223748416156685,70.34912934784623,57.3149195236284,43.5,33.0,37.0,15.0,35.0,20.0,5.0,10.0,12.041594578792296,12.0,38.0,36.0,37.12142238654117
37,37,26.1725046566048,106.07544484940895,9.055385138137417,13.038404810405298,28.0178514522438,30.14962686336267,20.09975124224178,68.3593446428504,55.326304774492215,42.0,31.0,35.0,13.0,35.0,20.0,4.0,9.0,11.045361017187261,11.0,38.0,34.0,38.05259518088089
38,38,26.076809620810597,105.11898020814318,10.04987562112089,13.152946437965905,28.0178514522438,30.066592756745816,19.1049731745428,68.3593446428504,55.226805085936306,42.0,31.0,36.0,14.5,34.5,19.5,4.5,11.045361017187261,12.041594578792296,12.0,38.0,34.0,38.05259518088089
39,39,24.186773244895647,105.04284840006957,9.0,13.038404810405298,29.017236257093817,30.066592756745816,21.213203435596427,67.36467917239716,54.3323108288245,42.0,33.0,36.0,13.5,32.5,17.5,4.5,10.04987562112089,12.0,11.5,39.0,36.0,38.05259518088089
40,40,25.079872407968907,107.0420478129973,9.055385138137417,13.038404810405298,28.0,30.066592756745816,20.223748416156685,67.36467917239716,54.3323108288245,41.5,31.0,34.0,12.5,34.5,19.5,4.5,10.04987562112089,11.0,11.0,39.0,36.0,38.118237105091836
41,41,24.08318915758459,106.1178590059185,10.04987562112089,12.165525060596439,28.0178514522438,31.064449134018133,20.09975124224178,66.37017402418047,54.230987451824994,42.0,31.0,36.0,13.5,32.5,18.5,4.5,10.04987562112089,11.0,10.5,38.0,36.0,36.05551275463989
42,42,26.076809620810597,107.0420478129973,9.055385138137417,12.165525060596439,30.01666203960727,31.064449134018133,20.223748416156685,67.47592163134935,55.326304774492215,42.0,32.0,35.0,13.5,33.5,18.5,4.5,9.055385138137417,12.041594578792296,11.5,36.0,34.0,37.05401462729781
43,43,24.08318915758459,106.07544484940895,10.04987562112089,12.165525060596439,30.01666203960727,31.064449134018133,20.223748416156685,66.48308055437865,54.3323108288245,42.0,31.0,35.0,13.0,33.0,18.0,4.0,10.04987562112089,12.041594578792296,12.0,37.0,34.0,38.01315561749642
44,44,24.020824298928627,107.01868995647442,9.055385138137417,13.152946437965905,28.0178514522438,30.066592756745816,20.09975124224178,66.27216610312357,53.150729063673246,41.0,31.0,33.0,12.0,34.0,19.0,3.0,10.04987562112089,12.0,11.5,37.0,34.0,38.05259518088089
45,45,24.08318915758459,107.0420478129973,9.055385138137417,13.038404810405298,28.0178514522438,30.066592756745816,20.09975124224178,66.27216610312357,53.23532661682466,41.0,31.0,34.0,12.5,33.5,18.5,3.5,10.04987562112089,12.0,11.5,36.0,34.0,38.05259518088089
46,46,23.08679276123039,107.0420478129973,10.04987562112089,13.038404810405298,27.0,30.066592756745816,20.09975124224178,66.27216610312357,53.23532661682466,41.5,31.0,34.0,12.5,33.5,18.5,3.5,10.04987562112089,12.0,11.5,38.0,35.0,39.01281840626232
47,47,33.06055050963308,107.11675872616759,9.055385138137417,13.152946437965905,29.068883707497267,31.144823004794873,20.024984394500787,75.23961722390672,62.12889826803627,45.5,35.0,40.0,17.5,37.5,22.5,7.5,10.0,12.041594578792296,11.5,38.0,36.0,37.013511046643494
48,48,34.058772731852805,107.16809226630845,9.055385138137417,12.041594578792296,29.017236257093817,31.064449134018133,20.09975124224178,75.23961722390672,63.198101237299845,46.0,33.0,39.0,16.0,39.0,24.0,7.0,10.0,11.0,11.0,38.0,35.0,36.013886210738214
49,49,34.0147027033899,105.11898020814318,10.04987562112089,15.132745950421556,27.018512172212592,30.066592756745816,19.1049731745428,78.23042886243178,63.12685640834652,46.0,35.0,40.0,18.5,40.5,23.5,9.5,9.055385138137417,10.0,10.0,36.0,35.0,36.05551275463989
50,50,37.05401462729781,106.1178590059185,9.0,13.038404810405298,28.0178514522438,31.016124838541646,19.235384061671343,78.23042886243178,65.19202405202648,46.5,35.0,40.0,18.5,40.5,25.5,9.5,9.0,11.0,11.0,36.0,34.0,38.05259518088089
51,51,38.01315561749642,106.1178590059185,10.04987562112089,13.038404810405298,28.0178514522438,31.064449134018133,20.024984394500787,81.09870529176159,68.06614430096654,49.0,39.0,44.0,21.5,39.5,23.5,11.5,9.0,11.0,10.5,36.0,35.0,38.05259518088089
52,52,38.05259518088089,106.1178590059185,10.0,13.038404810405298,28.0178514522438,31.064449134018133,20.09975124224178,81.15417426109393,68.11754546370561,49.0,39.0,44.0,21.5,39.5,24.5,11.5,9.055385138137417,11.0,10.5,36.0,34.0,38.01315561749642
53,53,37.013511046643494,106.07544484940895,10.04987562112089,13.038404810405298,30.01666203960727,32.0624390837628,20.09975124224178,80.15609770940699,67.11929677819934,48.5,40.0,44.0,22.0,38.0,23.0,12.0,9.0,11.0,10.5,35.0,35.0,38.118237105091836
54,54,13.038404810405298,101.00495037373169,13.0,16.0,27.018512172212592,29.017236257093817,20.0,62.00806399170998,46.010868281309364,39.5,39.0,40.0,19.5,22.5,5.5,7.5,10.0,12.041594578792296,11.5,34.0,38.0,40.19950248448356
55,55,5.0,100.0,14.0,15.0,25.019992006393608,28.0178514522438,20.0,54.0,39.0,36.5,37.0,37.0,17.0,17.0,2.0,4.0,11.045361017187261,12.041594578792296,11.5,34.0,39.0,40.19950248448356
56,56,2.8284271247461903,100.0199980003999,15.0,16.0,26.0,28.0178514522438,19.026297590440446,52.009614495783374,36.013886210738214,35.0,35.0,37.0,17.0,16.0,1.0,3.0,12.041594578792296,13.038404810405298,12.5,35.0,40.0,41.30375285612676
57,57,2.8284271247461903,100.0199980003999,15.0,16.0,26.0,28.0178514522438,19.026297590440446,52.009614495783374,36.013886210738214,35.0,35.0,37.0,17.0,16.0,1.0,3.0,12.041594578792296,13.038404810405298,12.5,35.0,40.0,41.30375285612676
58,58,12.041594578792296,106.01886624558857,14.0,16.0312195418814,28.0,30.01666203960727,19.0,61.032778078668514,45.0111097397076,39.0,35.0,37.0,17.0,25.0,7.0,4.0,10.04987562112089,12.041594578792296,11.5,36.0,38.0,40.049968789001575
59,59,14.0,105.01904589168576,13.0,15.033296378372908,28.0,30.066592756745816,20.0,62.00806399170998,47.0,40.0,35.0,37.0,16.0,26.0,9.0,4.0,11.0,13.038404810405298,12.0,35.0,37.0,40.049968789001575
60,60,21.02379604162864,109.07336980216573,12.0,14.035668847618199,30.01666203960727,32.0624390837628,19.1049731745428,66.12110101926616,52.08646657242167,41.5,34.0,38.0,17.0,30.0,14.0,5.0,11.0,13.038404810405298,12.0,36.0,36.0,40.049968789001575
61,61,21.02379604162864,109.07336980216573,12.0,14.035668847618199,30.01666203960727,32.0624390837628,19.1049731745428,66.12110101926616,52.08646657242167,41.5,34.0,38.0,17.0,30.0,14.0,5.0,11.0,13.038404810405298,12.0,36.0,36.0,40.049968789001575
62,62,25.019992006393608,110.16351483136329,11.045361017187261,14.035668847618199,31.064449134018133,34.058772731852805,21.095023109728988,71.17583859709698,57.14017850864661,44.5,36.0,42.0,18.0,32.0,15.0,7.0,11.0,13.0,12.5,39.0,35.0,40.0
63,63,27.073972741361768,107.07474025184464,10.04987562112089,15.033296378372908,30.01666203960727,32.0624390837628,22.0,74.10802925459562,59.07622195096772,45.5,38.0,42.0,18.0,34.0,17.0,9.0,11.0,13.038404810405298,12.5,38.0,35.0,41.012193308819754
64,64,30.066592756745816,98.02040603874276,10.0,15.033296378372908,27.0,30.066592756745816,21.02379604162864,76.10519036176179,61.07372593840988,46.0,41.0,43.0,21.0,34.0,17.0,12.0,11.0,13.0,12.0,39.0,35.0,40.01249804748511
65,65,30.066592756745816,98.02040603874276,10.0,15.033296378372908,27.0,30.066592756745816,21.02379604162864,76.10519036176179,61.07372593840988,46.0,41.0,43.0,21.0,34.0,17.0,12.0,11.0,13.0,12.0,39.0,35.0,40.01249804748511
66,66,29.068883707497267,94.08506789071261,8.0,16.0312195418814,27.018512172212592,29.017236257093817,21.02379604162864,74.10802925459562,58.077534382926416,43.5,40.0,44.0,21.0,32.0,14.0,13.0,11.045361017187261,14.035668847618199,13.0,39.0,37.0,42.01190307520001
67,67,26.076809620810597,89.08984229416954,9.0,16.0312195418814,25.0,27.018512172212592,21.02379604162864,72.11102550927978,56.08029957123981,43.0,40.0,44.0,21.0,30.0,12.0,12.0,11.0,14.035668847618199,13.5,37.0,35.0,41.0
68,68,26.076809620810597,89.08984229416954,9.0,16.0312195418814,25.0,27.018512172212592,21.02379604162864,72.11102550927978,56.08029957123981,43.0,40.0,44.0,21.0,30.0,12.0,12.0,11.0,14.035668847618199,13.5,37.0,35.0,41.0
69,69,20.09975124224178,88.05112151472007,10.0,16.0312195418814,24.020824298928627,27.018512172212592,23.021728866442675,69.1158447825099,53.08483775994799,43.0,39.0,42.0,17.5,28.5,10.5,7.5,4.123105625617661,6.082762530298219,5.5,38.0,36.0,41.048751503547585
70,70,7.280109889280518,93.04837451562494,13.038404810405298,17.029386365926403,25.0,26.019223662515376,25.0,62.12889826803627,45.09988913511872,41.5,38.0,41.0,14.5,22.5,3.5,2.5,4.0,6.082762530298219,5.0,40.0,38.0,40.01249804748511
71,71,6.082762530298219,95.02105029939419,13.038404810405298,17.029386365926403,25.0,26.019223662515376,24.0,60.07495318350236,43.04648650006177,40.0,37.0,39.0,14.0,22.0,3.0,2.0,4.0,5.0990195135927845,4.5,39.0,37.0,40.01249804748511
72,72,5.385164807134504,96.04686356149273,13.0,18.027756377319946,24.020824298928627,26.076809620810597,24.020824298928627,60.13318551349163,42.1070065428546,39.5,36.0,39.0,13.5,22.5,2.5,0.5,3.1622776601683795,6.082762530298219,5.0,39.0,37.0,40.01249804748511
73,73,7.0710678118654755,99.0,15.033296378372908,18.110770276274835,26.0,28.0178514522438,24.020824298928627,64.07027391856539,46.010868281309364,42.5,38.0,38.0,14.0,26.0,7.0,0.0,8.06225774829855,9.055385138137417,8.5,39.0,36.0,41.012193308819754
74,74,21.095023109728988,98.02040603874276,13.038404810405298,18.027756377319946,27.0,30.0,23.021728866442675,75.05997601918082,57.0350769263968,46.5,41.0,43.0,19.0,33.0,13.0,6.0,9.0,10.0,9.5,39.0,38.0,42.0
75,75,24.020824298928627,94.02127418834527,10.04987562112089,18.027756377319946,26.0,29.017236257093817,23.08679276123039,75.0066663703967,57.0,45.0,43.0,41.0,19.0,33.0,14.0,9.0,10.0,11.045361017187261,11.0,37.0,38.0,42.01190307520001
76,76,23.021728866442675,96.00520819205592,11.0,17.029386365926403,26.0,29.0,23.021728866442675,74.00675644831355,57.0,45.5,42.0,41.0,18.5,32.5,13.5,8.5,11.0,12.0,11.5,36.0,37.0,42.01190307520001
77,77,20.09975124224178,96.02083107326243,9.0,17.0,27.0,30.0,23.021728866442675,69.00724599634447,52.009614495783374,42.0,40.0,38.0,16.0,30.0,12.0,8.0,12.0,12.041594578792296,12.0,38.0,40.0,42.01190307520001
78,78,20.09975124224178,97.02061636580135,10.0,17.0,28.0178514522438,30.0,22.090722034374522,69.0,52.0,42.0,39.0,37.0,16.0,31.0,12.0,8.0,13.038404810405298,13.038404810405298,13.0,37.0,40.0,42.1070065428546
79,79,20.09975124224178,97.02061636580135,10.0,17.0,28.0178514522438,30.0,22.090722034374522,69.0,52.0,42.0,39.0,37.0,16.0,31.0,12.0,8.0,13.038404810405298,13.038404810405298,13.0,37.0,40.0,42.1070065428546
80,80,19.1049731745428,98.02040603874276,10.0,17.0,28.0178514522438,30.01666203960727,23.08679276123039,69.0,52.0,42.5,39.0,37.0,15.0,31.0,12.0,7.0,13.038404810405298,14.035668847618199,13.5,37.0,40.0,41.10960958218893
81,81,15.132745950421556,98.00510190801293,11.0,18.0,28.0,30.0,23.08679276123039,67.0,49.0,41.5,39.0,38.0,15.5,28.5,8.5,5.5,13.0,15.132745950421556,14.5,37.0,39.0,43.04648650006177
82,82,15.132745950421556,97.0051545022222,10.0,18.0,28.0178514522438,30.0,23.08679276123039,66.0,48.0,40.5,39.0,38.0,15.5,27.5,8.5,6.5,13.038404810405298,14.035668847618199,14.0,37.0,39.0,42.04759208325728
83,83,17.11724276862369,97.02061636580135,11.0,18.0,28.0178514522438,30.0,23.021728866442675,69.00724599634447,51.0098029794274,42.5,39.0,37.0,15.0,31.0,11.0,5.0,13.0,15.132745950421556,15.0,37.0,40.0,42.04759208325728
84,84,18.027756377319946,100.00499987500625,11.0,18.027756377319946,29.0,32.0,23.021728866442675,70.00714249274856,52.0,43.0,38.0,37.0,14.5,32.5,13.5,4.5,13.038404810405298,14.035668847618199,14.0,37.0,40.0,43.04648650006177
85,85,25.019992006393608,104.01922899156675,10.04987562112089,17.0,29.017236257093817,33.0,23.021728866442675,75.0066663703967,58.008620049092706,45.5,37.0,35.0,13.0,39.0,20.0,4.0,13.0,15.033296378372908,14.5,37.0,39.0,42.04759208325728
86,86,25.019992006393608,106.01886624558857,10.0,16.0,30.01666203960727,33.015148038438355,23.0,74.00675644831355,58.008620049092706,45.5,37.0,35.0,13.0,38.0,20.0,4.0,14.0,15.132745950421556,15.0,37.0,40.0,41.10960958218893
87,87,22.02271554554524,108.00462953040486,11.045361017187261,17.029386365926403,30.01666203960727,33.015148038438355,23.0,73.06161783043132,56.0357029044876,45.0,35.0,34.0,11.5,38.5,20.5,2.5,13.0,15.132745950421556,15.0,37.0,40.0,40.049968789001575
88,88,20.0,114.00438588054409,10.04987562112089,16.0312195418814,32.0,34.0147027033899,23.0,69.02897942168927,53.009433122794285,43.0,34.0,33.0,10.5,35.5,17.5,1.5,12.041594578792296,14.035668847618199,13.5,36.0,38.0,42.04759208325728
89,89,19.026297590440446,114.00438588054409,11.045361017187261,16.0312195418814,31.016124838541646,33.06055050963308,23.0,69.06518659932803,53.03772242470448,43.5,34.0,33.0,10.5,35.5,17.5,1.5,12.041594578792296,14.035668847618199,14.0,37.0,40.0,41.048751503547585
90,90,19.026297590440446,114.00438588054409,11.045361017187261,16.0312195418814,31.016124838541646,33.06055050963308,23.0,69.06518659932803,53.03772242470448,43.5,34.0,33.0,10.5,35.5,17.5,1.5,12.041594578792296,14.035668847618199,14.0,37.0,40.0,41.048751503547585
91,91,19.1049731745428,115.00434774390054,11.0,16.0,31.0,33.015148038438355,23.021728866442675,69.06518659932803,53.08483775994799,43.5,34.0,33.0,10.5,35.5,17.5,0.5,7.0,7.0,7.0,36.0,38.0,43.04648650006177
92,92,18.027756377319946,115.0,11.045361017187261,15.132745950421556,32.01562118716424,33.015148038438355,22.0,66.12110101926616,51.03920062069938,42.0,32.0,32.0,10.0,34.0,18.0,1.0,5.0990195135927845,7.0,6.5,37.0,39.0,41.048751503547585
93,93,17.029386365926403,113.00442469213318,11.045361017187261,15.033296378372908,31.016124838541646,34.0147027033899,23.021728866442675,66.12110101926616,51.088159097779204,42.5,33.0,34.0,10.5,32.5,15.5,1.5,6.0,6.0,5.5,35.0,37.0,42.04759208325728
94,94,25.019992006393608,114.0,10.0,16.1245154965971,31.016124838541646,33.015148038438355,22.090722034374522,73.17103251970687,57.07889277132134,44.5,35.0,35.0,13.0,38.0,21.0,4.0,8.06225774829855,9.055385138137417,8.5,36.0,37.0,41.10960958218893
95,95,25.019992006393608,114.0,10.0,16.1245154965971,31.016124838541646,33.015148038438355,22.090722034374522,73.17103251970687,57.07889277132134,44.5,35.0,35.0,13.0,38.0,21.0,4.0,8.06225774829855,9.055385138137417,8.5,36.0,37.0,41.10960958218893
96,96,37.013511046643494,104.04326023342406,11.045361017187261,16.0312195418814,29.017236257093817,33.06055050963308,22.02271554554524,86.09297300012354,70.06425622241343,51.5,43.0,46.0,22.5,41.5,23.5,11.5,11.045361017187261,12.041594578792296,11.5,36.0,36.0,40.049968789001575
97,97,24.08318915758459,98.08159868191383,11.0,20.024984394500787,28.0,31.064449134018133,22.02271554554524,77.10382610480494,57.07889277132134,45.0,41.0,45.0,21.0,34.0,12.0,10.0,10.0,12.0,11.5,35.0,35.0,41.048751503547585
98,98,15.0,96.04686356149273,12.041594578792296,18.027756377319946,25.0,28.0178514522438,23.0,68.0294054067798,50.00999900019995,42.5,40.0,43.0,18.5,26.5,6.5,6.5,11.0,12.0,11.5,36.0,37.0,41.048751503547585
99,99,15.0,96.04686356149273,12.041594578792296,18.027756377319946,25.0,28.0178514522438,23.0,68.0294054067798,50.00999900019995,42.5,40.0,43.0,18.5,26.5,6.5,6.5,11.0,12.0,11.5,36.0,37.0,41.048751503547585
100,100,2.23606797749979,95.08417323613851,15.0,16.0312195418814,25.019992006393608,26.019223662515376,21.02379604162864,54.08326913195984,38.05259518088089,37.0,36.0,40.0,17.0,16.0,1.0,2.0,10.0,12.165525060596439,11.5,35.0,37.0,40.049968789001575
101,101,2.23606797749979,92.02173656261873,15.0,17.029386365926403,23.021728866442675,25.019992006393608,21.0,55.036351623268054,38.01315561749642,37.0,38.0,40.0,18.0,16.0,2.0,3.0,11.0,12.041594578792296,12.0,35.0,36.0,39.20459156782532
102,102,7.0710678118654755,88.02272433866155,13.038404810405298,16.0312195418814,22.0,24.020824298928627,20.0,56.08029957123981,40.049968789001575,36.5,38.0,40.0,19.0,17.0,1.0,6.0,10.0,13.038404810405298,12.5,35.0,37.0,39.11521443121589
103,103,8.06225774829855,90.00555538409837,14.035668847618199,16.0312195418814,23.0,25.0,19.026297590440446,57.0350769263968,41.012193308819754,37.0,37.0,38.0,18.5,19.5,2.5,5.5,10.0,12.041594578792296,11.5,35.0,36.0,39.11521443121589
104,104,3.605551275463989,89.02246907382428,15.0,17.029386365926403,22.02271554554524,23.021728866442675,21.02379604162864,56.0357029044876,39.01281840626232,37.5,37.0,39.0,17.0,18.0,1.0,2.0,12.0,13.038404810405298,12.5,33.0,34.0,38.118237105091836
105,105,3.1622776601683795,89.00561780022652,15.0,17.029386365926403,22.02271554554524,24.020824298928627,20.0,55.036351623268054,38.01315561749642,36.5,37.0,38.0,17.5,17.5,0.5,2.5,12.0,13.038404810405298,13.0,34.0,35.0,39.05124837953327
106,106,3.1622776601683795,89.02246907382428,15.033296378372908,17.029386365926403,23.021728866442675,25.079872407968907,21.02379604162864,56.0357029044876,39.01281840626232,37.5,37.0,39.0,17.0,18.0,0.0,2.0,11.0,13.0,12.5,34.0,35.0,41.048751503547585
107,107,6.324555320336759,87.00574693662483,15.0,18.0,21.0,23.021728866442675,20.0,59.033888572581766,41.048751503547585,38.0,38.0,39.0,18.5,20.5,1.5,3.5,12.0,12.0,12.0,34.0,36.0,38.05259518088089
108,108,11.180339887498949,87.02298546935747,13.0,16.0,20.0,24.020824298928627,19.0,59.033888572581766,43.04648650006177,37.5,38.0,40.0,20.0,20.0,2.0,7.0,12.0,13.0,13.0,35.0,37.0,39.11521443121589
109,109,11.180339887498949,86.02325267042627,13.0,17.0,21.02379604162864,24.08318915758459,19.0,60.03332407921454,43.04648650006177,37.5,38.0,40.0,20.0,21.0,3.0,7.0,11.0,13.038404810405298,12.5,34.0,37.0,40.11234224026316
110,110,7.0710678118654755,84.02380615040002,12.0,15.033296378372908,22.0,24.020824298928627,18.027756377319946,52.08646657242167,37.05401462729781,33.5,36.0,38.0,19.0,15.0,1.0,7.0,12.041594578792296,13.0,13.0,34.0,38.0,39.11521443121589
111,111,7.0710678118654755,86.00581375697809,13.0,14.0,22.02271554554524,23.021728866442675,17.029386365926403,51.03920062069938,37.05401462729781,33.5,37.0,38.0,20.5,13.5,1.5,7.5,12.041594578792296,13.0,13.0,34.0,38.0,36.124783736376884
112,112,12.041594578792296,89.00561780022652,11.045361017187261,15.033296378372908,22.0,24.020824298928627,19.026297590440446,57.0350769263968,42.01190307520001,36.0,38.0,39.0,19.5,18.5,2.5,8.5,11.045361017187261,12.0,12.5,35.0,39.0,39.05124837953327
113,113,13.152946437965905,91.02197536858887,11.0,16.0312195418814,23.021728866442675,26.019223662515376,21.095023109728988,61.00819617067857,45.0,38.5,39.0,41.0,19.0,21.0,4.0,8.0,11.045361017187261,12.041594578792296,12.0,34.0,39.0,40.11234224026316
114,114,18.110770276274835,94.0,11.0,15.0,24.0,26.019223662515376,21.02379604162864,65.00769185258002,50.00999900019995,41.0,40.0,40.0,19.0,25.0,8.0,8.0,12.0,12.0,12.0,34.0,39.0,38.05259518088089
115,115,8.06225774829855,93.0,13.038404810405298,18.0,24.0,26.019223662515376,22.02271554554524,61.00819617067857,43.01162633521314,39.0,39.0,39.0,17.0,22.0,3.0,4.0,12.0,13.0,13.0,35.0,40.0,38.05259518088089
116,116,8.246211251235321,93.00537618869137,13.038404810405298,18.0,24.020824298928627,27.018512172212592,22.02271554554524,61.0,43.0,39.0,39.0,40.0,17.5,21.5,2.5,5.5,12.0,14.0,13.5,34.0,40.0,37.21558813185679
117,117,1.0,94.02127418834527,15.0,16.0312195418814,24.020824298928627,26.019223662515376,22.0,53.03772242470448,37.013511046643494,37.0,36.0,38.0,15.0,16.0,1.0,0.0,13.0,15.033296378372908,14.0,36.0,41.0,40.11234224026316
118,118,1.4142135623730951,95.04735661763561,14.0,15.0,24.020824298928627,26.076809620810597,21.02379604162864,51.03920062069938,36.05551275463989,35.5,34.0,37.0,14.5,15.5,0.5,0.5,12.041594578792296,14.035668847618199,13.5,36.0,41.0,38.118237105091836
119,119,9.0,96.0,12.0,16.0312195418814,25.019992006393608,27.018512172212592,22.0,59.00847396772772,43.0,38.5,35.0,35.0,13.0,24.0,7.0,2.0,13.0,14.035668847618199,14.0,37.0,44.0,38.3275357934736
120,120,15.0,99.02019995940222,12.0,17.0,26.019223662515376,28.0178514522438,20.024984394500787,64.00781202322104,47.01063709417264,39.5,36.0,34.0,15.0,29.0,11.0,4.0,14.035668847618199,14.035668847618199,14.5,40.0,47.0,40.311288741492746
121,121,22.02271554554524,101.00495037373169,12.0,16.0,29.017236257093817,31.016124838541646,20.024984394500787,70.0,54.0,43.0,36.0,37.0,16.5,33.5,15.5,5.5,13.0,15.033296378372908,15.0,41.0,46.0,41.30375285612676
122,122,24.020824298928627,105.0,11.0,14.035668847618199,30.0,33.015148038438355,20.024984394500787,69.00724599634447,55.0,43.0,36.0,36.0,16.0,33.0,17.0,6.0,13.038404810405298,14.035668847618199,14.0,41.0,45.0,42.1070065428546
123,123,25.0,106.00471687618433,10.0,14.035668847618199,30.0,33.0,19.026297590440446,68.0294054067798,54.00925846556311,41.5,35.0,34.0,15.5,33.5,18.5,6.5,13.038404810405298,14.035668847618199,14.0,40.0,45.0,39.11521443121589
124,124,24.0,108.00462953040486,11.0,14.035668847618199,31.0,34.0147027033899,19.0,68.00735254367721,54.0,42.0,35.0,34.0,15.5,33.5,17.5,5.5,13.0,14.035668847618199,13.5,41.0,45.0,40.19950248448356
125,125,21.02379604162864,108.0,11.0,14.035668847618199,31.016124838541646,33.015148038438355,18.027756377319946,64.00781202322104,50.0,39.5,32.0,32.0,14.0,32.0,17.0,5.0,14.035668847618199,14.035668847618199,13.5,40.0,43.0,40.19950248448356
126,126,21.0,107.0,10.0,15.0,31.016124838541646,34.0,19.1049731745428,65.03076195155643,50.039984012787215,39.5,32.0,32.0,13.0,33.0,17.0,4.0,13.038404810405298,14.0,14.0,40.0,42.0,39.11521443121589
127,127,21.0,109.0,11.0,14.0,31.0,34.0,18.027756377319946,64.00781202322104,50.00999900019995,39.5,31.0,31.0,13.0,33.0,17.0,3.0,12.041594578792296,12.041594578792296,12.0,39.0,39.0,39.11521443121589
128,128,20.0,109.0,11.0,14.035668847618199,31.0,33.015148038438355,18.110770276274835,63.071388124885914,49.040799340956916,39.0,31.0,31.0,13.0,32.0,17.0,3.0,12.0,13.152946437965905,12.5,37.0,38.0,40.049968789001575
129,129,20.0,109.0,11.0,15.033296378372908,31.0,34.0147027033899,18.027756377319946,64.03124237432849,49.01020301937138,39.0,31.0,31.0,13.0,33.0,17.0,3.0,12.041594578792296,13.038404810405298,13.0,36.0,37.0,38.05259518088089
130,130,21.0,108.0,10.0,15.0,31.016124838541646,34.0147027033899,19.026297590440446,65.00769185258002,50.00999900019995,39.5,31.0,31.0,12.0,34.0,18.0,4.0,12.041594578792296,13.038404810405298,12.5,35.0,37.0,40.11234224026316
131,131,21.0,108.0,11.0,14.035668847618199,31.0,34.0147027033899,18.027756377319946,64.03124237432849,50.00999900019995,39.5,31.0,31.0,13.0,33.0,18.0,3.0,10.0,11.045361017187261,11.5,34.0,36.0,39.05124837953327
132,132,25.019992006393608,108.00462953040486,10.0,13.038404810405298,31.0,33.015148038438355,18.0,66.03029607687671,53.009433122794285,40.5,31.0,32.0,13.5,34.5,19.5,4.5,11.0,11.045361017187261,11.0,34.0,36.0,40.049968789001575
133,133,35.014282800023196,103.0,10.0,15.0,30.0,33.0,19.026297590440446,79.02531240052139,64.03124237432849,46.5,39.0,39.0,20.0,40.0,24.0,11.0,10.04987562112089,11.045361017187261,11.5,34.0,37.0,38.118237105091836
134,134,35.014282800023196,103.0,10.0,15.0,30.0,33.0,19.026297590440446,79.02531240052139,64.03124237432849,46.5,39.0,39.0,20.0,40.0,24.0,11.0,10.04987562112089,11.045361017187261,11.5,34.0,37.0,38.118237105091836
135,135,43.01162633521314,101.00495037373169,9.0,14.0,28.0178514522438,32.0,20.0,86.00581375697809,72.00694410957877,50.5,42.0,41.0,21.5,44.5,28.5,13.5,10.0,11.045361017187261,10.5,31.0,35.0,37.12142238654117
136,136,45.0,99.00505037623081,10.0,15.0,29.017236257093817,32.0,19.026297590440446,89.00561780022652,74.00675644831355,51.5,46.0,45.0,26.5,43.5,27.5,17.5,9.0,11.045361017187261,10.5,31.0,36.0,36.124783736376884
137,137,44.0,100.00499987500625,10.0,16.0,28.0178514522438,31.0,19.026297590440446,89.00561780022652,73.00684899377592,51.0,45.0,44.0,25.5,44.5,27.5,16.5,10.0,11.045361017187261,11.0,30.0,36.0,37.12142238654117
138,138,45.0,98.12746812182611,10.0,15.0,28.0178514522438,31.0,19.1049731745428,89.02246907382428,74.02702209328699,51.5,53.0,48.0,31.5,38.5,22.5,21.5,10.04987562112089,12.041594578792296,11.5,30.0,36.0,35.05709628591621
139,139,45.0111097397076,99.08077512817509,11.045361017187261,15.0,28.0178514522438,31.0,18.0,89.0,74.0,51.5,51.0,47.0,31.0,40.0,24.0,21.0,10.04987562112089,11.045361017187261,11.0,30.0,35.0,37.12142238654117
140,140,41.012193308819754,100.00499987500625,10.0,16.0,27.0,31.0,18.027756377319946,85.0,69.0,48.5,44.0,45.0,26.5,40.5,22.5,16.5,12.041594578792296,12.165525060596439,11.5,30.0,35.0,37.12142238654117
141,141,41.012193308819754,98.08159868191383,11.0,15.0,28.0178514522438,31.0,20.0,87.00574693662483,72.00694410957877,51.5,51.0,47.0,29.0,38.0,22.0,19.0,11.045361017187261,12.041594578792296,12.0,29.0,35.0,37.12142238654117
142,142,36.013886210738214,101.00495037373169,10.04987562112089,14.035668847618199,27.0,30.0,18.110770276274835,78.00640999302557,64.0,46.0,43.0,42.0,24.5,35.5,20.5,14.5,9.055385138137417,11.045361017187261,11.0,31.0,34.0,36.05551275463989
143,143,31.0,102.0,10.04987562112089,13.038404810405298,29.0,31.0,18.110770276274835,72.0,59.00847396772772,43.5,42.0,42.0,24.0,30.0,16.0,14.0,11.045361017187261,11.045361017187261,11.0,32.0,35.0,38.01315561749642
144,144,25.019992006393608,101.00495037373169,10.0,13.0,28.0,30.01666203960727,19.026297590440446,67.0,54.0,41.5,41.0,40.0,21.5,26.5,12.5,12.5,10.04987562112089,11.045361017187261,10.5,32.0,34.0,40.01249804748511
145,145,22.02271554554524,99.00505037623081,10.0,13.0,26.0,28.0178514522438,18.110770276274835,63.00793600809346,50.00999900019995,39.0,38.0,37.0,19.5,25.5,11.5,9.5,10.04987562112089,11.045361017187261,11.0,31.0,34.0,38.01315561749642
146,146,18.027756377319946,98.0,11.0,14.0,28.0,29.017236257093817,19.1049731745428,62.00806399170998,48.010415536631214,39.0,38.0,38.0,19.0,24.0,9.0,9.0,11.045361017187261,11.0,11.0,33.0,36.0,38.01315561749642
147,147,17.0,96.0,12.0,16.0,26.0,29.0,19.026297590440446,64.00781202322104,48.010415536631214,39.5,39.0,39.0,20.0,25.0,8.0,8.0,11.0,13.038404810405298,12.5,34.0,36.0,39.05124837953327
148,148,16.0312195418814,97.02061636580135,13.0,16.0312195418814,27.0,30.01666203960727,21.02379604162864,66.007575322837,50.0,42.0,39.0,41.0,19.0,26.0,7.0,7.0,11.045361017187261,14.142135623730951,13.5,34.0,37.0,40.049968789001575
149,149,15.033296378372908,96.00520819205592,13.0,17.0,27.0,30.066592756745816,21.0,66.007575322837,49.01020301937138,41.5,39.0,40.0,18.5,26.5,7.5,6.5,11.0,13.152946437965905,12.0,36.0,38.0,39.11521443121589
150,150,16.0312195418814,97.0051545022222,12.041594578792296,17.0,26.0,29.017236257093817,21.02379604162864,66.007575322837,49.01020301937138,41.0,39.0,40.0,18.5,26.5,7.5,7.5,11.0,13.152946437965905,12.5,35.0,37.0,39.05124837953327
151,151,16.0312195418814,97.0,12.041594578792296,17.0,27.018512172212592,29.017236257093817,23.021728866442675,68.00735254367721,51.0098029794274,43.0,40.0,40.0,17.0,28.0,9.0,5.0,11.045361017187261,13.038404810405298,12.5,35.0,38.0,41.19465984809196
152,152,18.110770276274835,96.0,13.0,17.0,25.0,29.017236257093817,23.021728866442675,71.06335201775947,54.08326913195984,45.0,42.0,42.0,19.0,29.0,10.0,7.0,12.0,14.035668847618199,13.5,36.0,39.0,40.11234224026316
153,153,18.110770276274835,96.0,13.0,17.0,25.0,29.017236257093817,23.021728866442675,71.06335201775947,54.08326913195984,45.0,42.0,42.0,19.0,29.0,10.0,7.0,12.0,14.035668847618199,13.5,36.0,39.0,40.11234224026316
154,154,3.605551275463989,97.0051545022222,14.0,17.0,25.0,28.0178514522438,25.0,59.033888572581766,42.04759208325728,40.5,38.0,39.0,13.5,20.5,2.5,0.5,13.0,14.035668847618199,13.5,36.0,38.0,39.20459156782532
155,155,2.8284271247461903,97.02061636580135,14.0,16.0,26.0,28.071337695236398,25.0,57.0350769263968,41.048751503547585,40.0,38.0,40.0,14.0,18.0,0.0,1.0,12.0,14.142135623730951,14.0,36.0,39.0,40.19950248448356
156,156,1.4142135623730951,97.0051545022222,15.0,16.0312195418814,26.0,27.018512172212592,23.0,55.036351623268054,39.01281840626232,38.5,38.0,39.0,15.5,16.5,0.5,1.5,13.0,15.033296378372908,14.0,36.0,38.0,41.10960958218893
157,157,2.8284271247461903,97.0051545022222,14.0,16.0,26.0,28.0178514522438,25.0,57.0350769263968,41.048751503547585,40.0,38.0,39.0,13.5,18.5,1.5,0.5,14.0,15.132745950421556,14.5,37.0,38.0,41.10960958218893
158,158,7.0710678118654755,100.00499987500625,14.0,17.0,28.0,30.01666203960727,24.020824298928627,62.03224967708329,45.044422518220834,41.5,37.0,38.0,13.5,24.5,5.5,0.5,14.0,15.132745950421556,14.5,36.0,38.0,41.048751503547585
159,159,7.0710678118654755,101.00495037373169,14.035668847618199,17.029386365926403,27.0,29.017236257093817,23.0,61.07372593840988,44.04543109109048,40.5,36.0,37.0,13.5,24.5,5.5,0.5,14.035668847618199,15.033296378372908,14.5,36.0,37.0,40.049968789001575
160,160,17.0,106.00471687618433,12.041594578792296,15.033296378372908,29.017236257093817,32.01562118716424,23.0,67.02984409947557,52.009614495783374,43.5,35.0,36.0,12.5,31.5,14.5,2.5,14.0,15.033296378372908,14.5,38.0,39.0,40.11234224026316
161,161,18.027756377319946,108.00462953040486,11.0,14.035668847618199,30.01666203960727,32.01562118716424,23.021728866442675,66.06814663663572,52.03844732503075,43.0,34.0,33.0,10.5,32.5,16.5,1.5,13.038404810405298,15.132745950421556,14.5,36.0,38.0,41.10960958218893
162,162,18.027756377319946,108.01851693112621,12.0,15.0,30.01666203960727,32.01562118716424,22.0,67.00746227100382,52.009614495783374,43.0,34.0,32.0,11.0,34.0,18.0,1.0,13.0,15.033296378372908,14.5,36.0,38.0,41.048751503547585
163,163,19.026297590440446,109.00458705944443,11.0,15.033296378372908,30.01666203960727,33.015148038438355,23.021728866442675,68.06614430096654,53.03772242470448,43.5,35.0,34.0,11.5,33.5,16.5,2.5,13.0,14.142135623730951,13.5,35.0,36.0,40.049968789001575
164,164,19.026297590440446,109.00458705944443,11.0,15.033296378372908,30.0,33.015148038438355,22.02271554554524,67.06713054842886,52.03844732503075,42.5,34.0,33.0,11.5,33.5,16.5,1.5,13.0,15.132745950421556,14.0,36.0,37.0,40.049968789001575
165,165,18.027756377319946,111.00450441310929,12.041594578792296,15.033296378372908,31.0,34.0,21.0,66.06814663663572,51.03920062069938,42.0,33.0,32.0,11.5,33.5,16.5,1.5,6.0,7.0,6.5,36.0,38.0,42.1070065428546
166,166,20.09975124224178,111.0,11.0,15.033296378372908,32.01562118716424,34.0147027033899,21.0,67.06713054842886,52.03844732503075,42.0,33.0,33.0,12.0,34.0,17.0,3.0,5.0,7.0,6.0,37.0,38.0,40.049968789001575
167,167,35.014282800023196,108.0,10.0,15.033296378372908,32.01562118716424,35.0,22.02271554554524,82.05485969764375,67.02984409947557,49.5,39.0,39.0,17.0,43.0,26.0,8.0,5.0,6.082762530298219,6.0,36.0,39.0,39.11521443121589
168,168,35.014282800023196,108.0,10.0,15.033296378372908,32.01562118716424,35.0,22.02271554554524,82.05485969764375,67.02984409947557,49.5,39.0,39.0,17.0,43.0,26.0,8.0,5.0,6.082762530298219,6.0,36.0,39.0,39.11521443121589
169,169,35.05709628591621,107.00467279516349,11.0,17.0,32.01562118716424,34.0147027033899,22.02271554554524,85.05292469985967,68.06614430096654,50.5,42.0,43.0,20.5,42.5,24.5,10.5,6.082762530298219,8.0,7.0,36.0,39.0,40.11234224026316
170,170,30.0,102.00490184299969,11.0,17.029386365926403,29.017236257093817,32.0,23.021728866442675,81.02468759581859,64.00781202322104,49.0,43.0,42.0,19.5,38.5,20.5,9.5,7.0710678118654755,9.0,8.5,36.0,38.0,43.04648650006177
171,171,4.123105625617661,99.0,14.0,17.0,26.0,27.018512172212592,24.0,59.00847396772772,42.01190307520001,40.0,38.0,38.0,14.0,21.0,3.0,1.0,11.0,12.041594578792296,11.5,35.0,38.0,41.10960958218893
172,172,4.123105625617661,99.0,14.0,17.0,26.0,27.018512172212592,24.0,59.00847396772772,42.01190307520001,40.0,38.0,38.0,14.0,21.0,3.0,1.0,11.0,12.041594578792296,11.5,35.0,38.0,41.10960958218893
173,173,4.123105625617661,99.0,14.0,17.0,26.0,27.018512172212592,24.0,59.00847396772772,42.01190307520001,40.0,38.0,38.0,14.0,21.0,3.0,1.0,11.0,12.041594578792296,11.5,35.0,38.0,41.10960958218893
174,174,8.06225774829855,94.00531899844816,14.0,18.0,25.019992006393608,27.0,22.02271554554524,62.0,44.0,40.0,39.0,38.0,16.5,23.5,4.5,3.5,12.041594578792296,14.142135623730951,13.0,35.0,38.0,42.04759208325728
175,175,19.1049731745428,91.00549433962765,11.0,17.0,24.0,27.0,21.02379604162864,68.00735254367721,51.0098029794274,41.5,42.0,41.0,20.5,26.5,8.5,9.5,12.041594578792296,13.038404810405298,13.0,34.0,39.0,40.19950248448356
176,176,19.026297590440446,91.00549433962765,11.0,18.027756377319946,24.0,27.0,21.02379604162864,69.00724599634447,51.0,41.5,42.0,41.0,20.5,27.5,8.5,9.5,12.0,13.038404810405298,13.0,34.0,37.0,41.048751503547585
177,177,19.1049731745428,91.00549433962765,11.0,17.0,24.0,27.0,21.02379604162864,68.00735254367721,51.0098029794274,41.5,42.0,41.0,20.5,26.5,8.5,9.5,12.041594578792296,13.038404810405298,13.0,34.0,39.0,40.19950248448356
178,178,22.090722034374522,85.0235261559999,12.0,19.0,23.0,26.0,20.0,73.02739212103907,54.037024344425184,43.0,46.0,44.0,25.0,28.0,9.0,13.0,12.041594578792296,13.038404810405298,13.0,33.0,39.0,40.311288741492746
179,179,20.024984394500787,80.00624975587844,14.0,19.0,21.02379604162864,24.0,18.027756377319946,71.0,52.0,42.0,44.0,43.0,25.5,27.5,7.5,11.5,14.0,15.033296378372908,14.5,35.0,39.0,41.10960958218893
180,180,21.02379604162864,77.05841939723393,14.0,20.0,22.0,24.020824298928627,19.0,74.00675644831355,54.00925846556311,43.5,48.0,45.0,27.5,27.5,7.5,13.5,13.0,15.132745950421556,15.0,35.0,39.0,40.11234224026316
181,181,17.029386365926403,71.02816342831905,14.0,20.0,20.0,23.021728866442675,21.0,72.00694410957877,52.009614495783374,43.5,48.0,46.0,26.0,25.0,5.0,12.0,13.0,15.132745950421556,15.0,34.0,39.0,40.19950248448356
182,182,19.026297590440446,68.26419266350405,14.0,20.024984394500787,22.02271554554524,24.020824298928627,21.02379604162864,74.00675644831355,54.0,44.5,51.0,45.0,27.0,26.0,5.0,14.0,13.0,16.1245154965971,15.5,35.0,40.0,40.19950248448356
183,183,20.024984394500787,67.26812023536856,14.0,20.0,22.02271554554524,24.020824298928627,20.024984394500787,74.0,54.0,44.0,51.0,45.0,28.0,26.0,6.0,14.0,14.0,16.0312195418814,15.5,35.0,40.0,41.19465984809196
184,184,20.024984394500787,67.26812023536856,14.0,20.0,22.02271554554524,24.020824298928627,20.024984394500787,74.0,54.0,44.0,51.0,45.0,28.0,26.0,6.0,14.0,14.0,16.0312195418814,15.5,35.0,40.0,41.19465984809196
185,185,24.020824298928627,88.02272433866155,10.04987562112089,17.029386365926403,25.0,28.0,23.194827009486403,74.0,57.0087712549569,45.0,46.0,44.0,22.0,29.0,11.0,12.0,14.0,15.132745950421556,15.0,33.0,39.0,39.319206502675
186,186,25.079872407968907,87.05170877128145,10.0,18.0,25.0,28.0,21.02379604162864,74.00675644831355,56.00892785976178,43.5,46.0,43.0,23.5,29.5,10.5,13.5,13.0,15.132745950421556,14.5,34.0,40.0,40.19950248448356
187,187,25.079872407968907,87.05170877128145,10.0,18.0,25.0,28.0,21.02379604162864,74.00675644831355,56.00892785976178,43.5,46.0,43.0,23.5,29.5,10.5,13.5,13.0,15.132745950421556,14.5,34.0,40.0,40.19950248448356
188,188,26.019223662515376,88.0056816347672,10.0,17.029386365926403,25.0,28.0,20.024984394500787,73.00684899377592,56.0,43.0,43.0,42.0,22.5,30.5,11.5,13.5,14.0,16.278820596099706,15.5,33.0,39.0,39.319206502675
189,189,26.076809620810597,86.02325267042627,10.0,17.0,26.019223662515376,29.017236257093817,21.095023109728988,74.0,57.0,44.0,45.0,43.0,23.0,30.0,12.0,14.0,14.035668847618199,15.132745950421556,15.0,34.0,39.0,41.19465984809196
190,190,26.076809620810597,82.02438661763951,10.0,17.0,24.0,28.0178514522438,21.0,74.02702209328699,57.0350769263968,44.0,46.0,44.0,24.0,29.0,11.0,15.0,14.0,15.132745950421556,14.5,34.0,39.0,40.19950248448356
191,191,27.073972741361768,84.0,10.0,17.029386365926403,24.020824298928627,28.0178514522438,21.02379604162864,75.02666192761077,58.008620049092706,44.5,45.0,45.0,24.0,30.0,11.0,14.0,14.035668847618199,15.132745950421556,14.5,33.0,38.0,41.19465984809196
192,192,14.035668847618199,78.00640999302557,14.0,19.0,22.02271554554524,25.019992006393608,23.021728866442675,70.0,51.0,44.0,46.0,45.0,22.5,24.5,3.5,8.5,14.0,15.132745950421556,15.0,35.0,40.0,39.20459156782532
193,193,7.280109889280518,77.02596964660685,14.0,20.0,20.0,23.0,24.08318915758459,65.0,45.0,41.5,45.0,43.0,20.0,21.0,0.0,6.0,14.0,16.1245154965971,16.0,36.0,41.0,38.2099463490856
194,194,10.04987562112089,78.05767098754612,13.0,19.026297590440446,21.0,23.0,24.020824298928627,66.007575322837,47.0,42.0,46.0,43.0,20.5,21.5,1.5,7.5,14.0,15.132745950421556,14.5,36.0,40.0,38.3275357934736
195,195,7.280109889280518,77.02596964660685,14.0,19.0,20.024984394500787,22.02271554554524,25.179356624028344,65.00769185258002,46.010868281309364,42.5,45.0,43.0,19.0,21.0,1.0,6.0,13.0,15.033296378372908,15.0,36.0,41.0,38.2099463490856
196,196,11.045361017187261,82.0,14.0,18.0,21.0,23.021728866442675,24.020824298928627,67.0,49.0,43.5,43.0,43.0,19.0,24.0,4.0,5.0,13.0,15.033296378372908,14.5,39.0,42.0,39.20459156782532
197,197,20.024984394500787,94.0,13.0,17.029386365926403,26.0,29.017236257093817,24.020824298928627,74.00675644831355,57.0,47.0,43.0,43.0,19.0,31.0,12.0,6.0,13.0,14.035668847618199,14.0,41.0,44.0,38.118237105091836
198,198,22.02271554554524,96.00520819205592,13.0,17.029386365926403,26.019223662515376,28.0178514522438,23.0,75.02666192761077,58.008620049092706,47.0,41.0,42.0,18.5,33.5,14.5,5.5,13.0,14.035668847618199,14.0,43.0,45.0,39.05124837953327
199,199,22.090722034374522,96.00520819205592,13.0,18.0,26.0,28.0,23.0,76.02631123499285,58.034472514187634,47.0,41.0,42.0,18.5,34.5,14.5,5.5,14.0,15.0,15.0,42.0,43.0,39.05124837953327
200,200,22.090722034374522,96.00520819205592,13.0,18.0,26.0,28.0178514522438,23.0,76.02631123499285,58.034472514187634,47.0,42.0,43.0,19.5,33.5,14.5,6.5,14.0,15.0,14.5,43.0,45.0,40.049968789001575
201,201,25.019992006393608,93.00537618869137,14.0,18.0,24.020824298928627,28.0178514522438,23.0,80.00624975587844,62.00806399170998,49.5,44.0,45.0,21.5,35.5,16.5,7.5,14.0,15.0,15.0,42.0,44.0,39.05124837953327
202,202,9.055385138137417,88.05112151472007,13.0,17.029386365926403,23.021728866442675,24.08318915758459,25.0,64.03124237432849,47.01063709417264,42.5,39.0,42.0,15.5,23.5,4.5,2.5,14.035668847618199,15.0,15.0,44.0,44.0,39.01281840626232
203,203,9.055385138137417,88.05112151472007,13.0,17.029386365926403,23.021728866442675,24.08318915758459,25.0,64.03124237432849,47.01063709417264,42.5,39.0,42.0,15.5,23.5,4.5,2.5,14.035668847618199,15.0,15.0,44.0,44.0,39.01281840626232
204,204,5.0990195135927845,85.05292469985967,13.0,17.0,21.02379604162864,23.194827009486403,24.0,59.00847396772772,42.01190307520001,39.5,37.0,40.0,14.5,20.5,2.5,1.5,14.0,15.033296378372908,15.0,43.0,44.0,42.01190307520001
205,205,5.0990195135927845,85.14693182963201,13.0,17.029386365926403,21.095023109728988,24.08318915758459,25.019992006393608,60.07495318350236,43.04648650006177,40.5,36.0,41.0,13.5,21.5,2.5,0.5,15.0,15.033296378372908,15.0,43.0,44.0,42.01190307520001
206,206,9.055385138137417,89.1403387922662,12.0,16.0312195418814,22.02271554554524,25.179356624028344,24.020824298928627,61.07372593840988,45.044422518220834,40.5,34.0,39.0,12.5,24.5,5.5,0.5,15.033296378372908,16.0312195418814,15.5,44.0,44.0,40.049968789001575
207,207,9.055385138137417,89.1403387922662,12.0,16.0312195418814,22.02271554554524,25.179356624028344,24.020824298928627,61.07372593840988,45.044422518220834,40.5,34.0,39.0,12.5,24.5,5.5,0.5,15.033296378372908,16.0312195418814,15.5,44.0,44.0,40.049968789001575
208,208,16.0312195418814,99.12618221237011,10.04987562112089,15.033296378372908,26.019223662515376,28.071337695236398,21.02379604162864,62.12889826803627,47.095647357266465,39.0,28.0,33.0,9.5,31.5,14.5,0.5,15.033296378372908,15.0,15.0,44.0,45.0,38.2099463490856
209,209,15.033296378372908,100.07996802557443,12.0,15.033296378372908,26.019223662515376,29.154759474226502,20.09975124224178,62.12889826803627,47.095647357266465,39.5,28.0,32.0,10.0,32.0,14.0,1.0,15.033296378372908,15.0,15.0,42.0,44.0,38.2099463490856
210,210,17.0,102.07840124139877,11.045361017187261,15.033296378372908,26.076809620810597,29.068883707497267,21.02379604162864,64.07027391856539,49.040799340956916,40.5,29.0,33.0,10.0,33.0,15.0,1.0,15.033296378372908,15.033296378372908,15.0,42.0,44.0,38.118237105091836
211,211,19.026297590440446,102.04410811016969,10.04987562112089,14.035668847618199,27.0,29.017236257093817,22.02271554554524,65.03076195155643,51.0098029794274,41.5,31.0,34.0,10.5,32.5,16.5,1.5,14.035668847618199,15.033296378372908,15.0,40.0,43.0,37.33630940518894
212,212,20.0,97.082439194738,9.055385138137417,14.035668847618199,25.019992006393608,28.0178514522438,22.0,65.03076195155643,51.0098029794274,41.0,32.0,36.0,12.0,31.0,15.0,4.0,14.035668847618199,14.0,14.0,40.0,44.0,38.2099463490856
213,213,22.02271554554524,97.082439194738,8.0,14.035668847618199,25.019992006393608,28.071337695236398,21.02379604162864,65.00769185258002,51.0,40.0,32.0,36.0,13.0,31.0,14.0,6.0,12.0,14.0,14.0,39.0,44.0,38.2099463490856
214,214,22.02271554554524,97.082439194738,8.0,14.035668847618199,25.019992006393608,28.071337695236398,21.02379604162864,65.00769185258002,51.0,40.0,32.0,36.0,13.0,31.0,14.0,6.0,12.0,14.0,14.0,39.0,44.0,38.2099463490856
215,215,22.02271554554524,93.13431161500041,8.0,14.035668847618199,25.019992006393608,28.071337695236398,22.0,66.03029607687671,52.009614495783374,41.0,34.0,39.0,14.5,29.5,13.5,6.5,13.0,15.033296378372908,14.5,40.0,46.0,40.19950248448356
216,216,20.024984394500787,93.08598175880189,9.0,15.033296378372908,26.019223662515376,28.071337695236398,21.0,65.03076195155643,50.00999900019995,40.0,33.0,37.0,14.0,30.0,13.0,6.0,13.0,14.0,14.0,39.0,44.0,40.19950248448356
217,217,20.024984394500787,93.08598175880189,9.0,15.033296378372908,26.019223662515376,28.071337695236398,21.0,65.03076195155643,50.00999900019995,40.0,33.0,37.0,14.0,30.0,13.0,6.0,13.0,14.0,14.0,39.0,44.0,40.19950248448356
218,218,20.0,94.08506789071261,9.0,15.033296378372908,24.020824298928627,27.018512172212592,20.024984394500787,64.03124237432849,49.01020301937138,39.0,32.0,36.0,14.0,30.0,13.0,5.0,14.0,14.035668847618199,14.5,38.0,44.0,39.11521443121589
219,219,21.0,96.04686356149273,9.0,15.033296378372908,27.018512172212592,29.068883707497267,20.024984394500787,65.03076195155643,50.00999900019995,39.5,32.0,35.0,13.5,31.5,14.5,4.5,12.0,13.038404810405298,13.5,38.0,43.0,40.11234224026316
220,220,22.02271554554524,96.08329719571451,8.0,14.035668847618199,26.019223662515376,28.071337695236398,21.0,65.03076195155643,51.0098029794274,40.0,32.0,36.0,13.0,31.0,15.0,5.0,13.038404810405298,14.0,14.5,38.0,42.0,39.11521443121589
221,221,22.02271554554524,96.08329719571451,8.0,14.035668847618199,26.019223662515376,28.071337695236398,21.0,65.03076195155643,51.0098029794274,40.0,32.0,36.0,13.0,31.0,15.0,5.0,13.038404810405298,14.0,14.5,38.0,42.0,39.11521443121589
222,222,21.02379604162864,96.08329719571451,8.0,15.033296378372908,27.018512172212592,29.068883707497267,21.0,65.03076195155643,50.00999900019995,39.5,32.0,36.0,13.0,31.0,14.0,5.0,14.035668847618199,15.033296378372908,15.0,36.0,41.0,38.2099463490856
223,223,19.026297590440446,93.04837451562494,9.055385138137417,16.0312195418814,26.0,28.0178514522438,20.024984394500787,64.03124237432849,48.010415536631214,38.5,33.0,36.0,14.5,29.5,11.5,6.5,12.0,13.038404810405298,13.0,35.0,37.0,40.01249804748511
224,224,17.029386365926403,93.08598175880189,10.0,18.027756377319946,26.019223662515376,29.017236257093817,19.0,64.03124237432849,46.010868281309364,37.5,33.0,37.0,16.0,29.0,9.0,6.0,12.0,13.038404810405298,13.0,35.0,38.0,39.05124837953327
225,225,22.02271554554524,92.04890004774636,9.055385138137417,15.033296378372908,25.019992006393608,27.018512172212592,20.024984394500787,66.03029607687671,51.0098029794274,40.0,35.0,38.0,16.5,29.5,12.5,7.5,12.0,13.0,13.0,33.0,37.0,39.05124837953327
226,226,22.02271554554524,91.08786966440702,9.0,15.033296378372908,24.020824298928627,26.076809620810597,20.0,66.03029607687671,51.0098029794274,40.0,34.0,38.0,16.0,30.0,13.0,7.0,12.0,13.0,13.0,34.0,38.0,40.01249804748511
227,227,26.0,92.04890004774636,10.04987562112089,15.033296378372908,25.019992006393608,28.0178514522438,20.0,71.02816342831905,56.00892785976178,43.0,39.0,42.0,20.5,30.5,13.5,10.5,12.0,13.038404810405298,13.0,34.0,37.0,40.049968789001575
228,228,28.0178514522438,92.0869154657707,11.0,15.033296378372908,26.076809620810597,29.068883707497267,21.02379604162864,75.05997601918082,60.03332407921454,46.0,40.0,44.0,21.0,33.0,16.0,10.0,12.0,14.035668847618199,14.0,34.0,37.0,41.19465984809196
229,229,30.01666203960727,96.08329719571451,11.0,16.0312195418814,25.019992006393608,29.154759474226502,21.0,78.02563681252464,62.00806399170998,47.0,42.0,46.0,23.0,34.0,17.0,11.0,12.041594578792296,14.035668847618199,13.5,33.0,36.0,40.049968789001575
230,230,30.01666203960727,96.08329719571451,11.0,16.0312195418814,25.019992006393608,29.154759474226502,21.0,78.02563681252464,62.00806399170998,47.0,42.0,46.0,23.0,34.0,17.0,11.0,12.041594578792296,14.035668847618199,13.5,33.0,36.0,40.049968789001575
231,231,5.0990195135927845,96.00520819205592,15.0,14.0,24.0,26.076809620810597,22.0,56.00892785976178,42.01190307520001,39.5,42.0,43.0,20.5,13.5,1.5,5.5,11.045361017187261,12.041594578792296,12.0,29.0,36.0,37.12142238654117
232,232,2.0,95.0,16.0,14.0,24.0,25.019992006393608,21.095023109728988,51.0,37.0,37.0,42.0,42.0,21.0,9.0,5.0,5.0,11.180339887498949,12.0,12.0,30.0,37.0,39.11521443121589
233,233,2.0,95.0,16.0,14.0,24.0,25.019992006393608,21.095023109728988,51.0,37.0,37.0,42.0,42.0,21.0,9.0,5.0,5.0,11.180339887498949,12.0,12.0,30.0,37.0,39.11521443121589
234,234,1.4142135623730951,96.00520819205592,15.0,14.035668847618199,24.020824298928627,26.0,21.095023109728988,51.03920062069938,37.013511046643494,36.5,42.0,41.0,20.5,9.5,4.5,5.5,10.198039027185569,12.041594578792296,11.5,29.0,37.0,38.2099463490856
235,235,5.0990195135927845,96.04686356149273,16.0,15.0,24.020824298928627,26.0,20.09975124224178,56.00892785976178,41.012193308819754,38.5,44.0,41.0,22.5,13.5,1.5,7.5,10.04987562112089,11.045361017187261,11.0,29.0,37.0,37.21558813185679
236,236,8.0,97.12878049270464,15.0,16.0312195418814,25.019992006393608,27.0,19.1049731745428,58.077534382926416,42.04759208325728,38.0,45.0,40.0,23.5,15.5,0.5,8.5,11.180339887498949,12.041594578792296,11.5,29.0,38.0,38.2099463490856
237,237,9.0,98.18350166906862,15.033296378372908,18.027756377319946,26.076809620810597,27.018512172212592,18.027756377319946,60.07495318350236,42.04759208325728,37.5,45.0,39.0,24.0,18.0,1.0,10.0,10.198039027185569,11.045361017187261,11.0,28.0,36.0,36.22154055254967
238,238,32.0,104.23531071570709,12.0,15.0,29.068883707497267,32.01562118716424,19.1049731745428,78.02563681252464,63.0317380372777,47.0,48.0,41.0,25.5,33.5,19.5,15.5,10.04987562112089,11.045361017187261,10.5,27.0,39.0,38.3275357934736
239,239,24.020824298928627,103.39245620450265,12.041594578792296,19.0,28.071337695236398,30.066592756745816,20.024984394500787,75.05997601918082,56.08029957123981,44.0,49.0,40.0,24.5,30.5,11.5,13.5,9.055385138137417,10.04987562112089,10.5,25.0,38.0,37.48332962798263
240,240,30.0,104.30723848324239,12.041594578792296,15.033296378372908,29.154759474226502,32.01562118716424,21.02379604162864,78.05767098754612,63.0317380372777,48.0,48.0,40.0,23.0,34.0,19.0,13.0,11.045361017187261,12.165525060596439,11.5,27.0,41.0,38.63935817272331
241,241,30.0,104.30723848324239,12.041594578792296,15.033296378372908,29.154759474226502,32.01562118716424,21.02379604162864,78.05767098754612,63.0317380372777,48.0,48.0,40.0,23.0,34.0,19.0,13.0,11.045361017187261,12.165525060596439,11.5,27.0,41.0,38.63935817272331
242,242,23.0,106.47065323364932,11.045361017187261,15.033296378372908,28.160255680657446,32.0624390837628,19.1049731745428,68.11754546370561,53.08483775994799,41.5,43.0,33.0,19.0,30.0,16.0,10.0,10.04987562112089,11.180339887498949,11.5,28.0,44.0,39.6232255123179
243,243,22.02271554554524,108.55873986004075,12.041594578792296,15.033296378372908,29.274562336608895,32.14031735997639,18.027756377319946,67.11929677819934,52.08646657242167,41.0,40.0,29.0,16.5,32.5,17.5,7.5,11.045361017187261,12.165525060596439,12.0,28.0,43.0,38.47076812334269
244,244,20.0,107.37783756436893,11.045361017187261,14.035668847618199,29.154759474226502,32.0624390837628,19.1049731745428,64.1248781675256,50.08991914547278,40.0,39.0,30.0,15.5,29.5,15.5,6.5,12.0,14.317821063276353,13.0,28.0,44.0,38.63935817272331
245,245,19.026297590440446,106.47065323364932,11.045361017187261,15.033296378372908,29.154759474226502,32.0624390837628,19.026297590440446,64.1248781675256,49.09175083453431,39.5,38.0,28.0,14.0,31.0,16.0,5.0,11.045361017187261,12.165525060596439,12.0,29.0,44.0,37.8549864614954
246,246,17.029386365926403,107.29864864013899,11.0,14.0,29.068883707497267,31.064449134018133,19.1049731745428,61.07372593840988,47.095647357266465,38.5,35.0,27.0,12.0,30.0,15.0,3.0,11.045361017187261,13.152946437965905,13.0,30.0,44.0,39.45883931389772
247,247,17.0,106.16967551989597,11.045361017187261,14.035668847618199,29.068883707497267,31.016124838541646,19.0,61.032778078668514,47.01063709417264,38.5,34.0,28.0,12.0,30.0,15.0,3.0,13.0,14.142135623730951,13.5,29.0,41.0,38.63935817272331
248,248,17.0,106.16967551989597,11.045361017187261,14.035668847618199,29.068883707497267,31.016124838541646,19.0,61.032778078668514,47.01063709417264,38.5,34.0,28.0,12.0,30.0,15.0,3.0,13.0,14.142135623730951,13.5,29.0,41.0,38.63935817272331
249,249,20.0,104.17293314484334,11.0,15.0,29.068883707497267,31.016124838541646,19.026297590440446,65.00769185258002,50.00999900019995,40.0,35.0,29.0,13.0,33.0,18.0,4.0,12.0,14.142135623730951,13.5,30.0,40.0,37.48332962798263
250,250,22.0,104.0768946500615,11.045361017187261,15.0,29.068883707497267,32.01562118716424,20.024984394500787,68.0294054067798,53.03772242470448,42.0,35.0,31.0,13.0,35.0,19.0,4.0,13.0,14.035668847618199,13.5,31.0,41.0,38.3275357934736
251,251,22.0,104.0768946500615,11.045361017187261,15.0,29.068883707497267,32.01562118716424,20.024984394500787,68.0294054067798,53.03772242470448,42.0,35.0,31.0,13.0,35.0,19.0,4.0,13.0,14.035668847618199,13.5,31.0,41.0,38.3275357934736
252,252,21.02379604162864,104.12012293500234,11.045361017187261,16.0,29.017236257093817,32.01562118716424,20.0,68.0294054067798,52.03844732503075,41.5,36.0,31.0,13.5,34.5,17.5,4.5,12.0,14.142135623730951,13.5,32.0,41.0,39.319206502675
253,253,19.0,102.12247548899312,10.04987562112089,15.0,28.0178514522438,30.0,20.0,64.00781202322104,49.01020301937138,39.5,34.0,29.0,11.5,32.5,16.5,2.5,12.0,13.152946437965905,13.5,31.0,41.0,39.20459156782532
254,254,19.026297590440446,100.07996802557443,10.0,15.0,28.071337695236398,30.01666203960727,21.02379604162864,65.03076195155643,50.039984012787215,40.5,36.0,32.0,13.0,31.0,16.0,5.0,12.0,15.297058540778355,14.5,32.0,41.0,39.319206502675
255,255,19.026297590440446,101.1236866416568,10.0,15.0,26.019223662515376,28.0178514522438,20.024984394500787,64.03124237432849,49.040799340956916,39.5,35.0,30.0,12.5,31.5,15.5,3.5,13.0,13.038404810405298,13.5,32.0,41.0,40.19950248448356
256,256,19.0,99.08077512817509,9.0,14.035668847618199,27.018512172212592,29.0,21.095023109728988,63.071388124885914,49.040799340956916,39.5,35.0,31.0,12.0,30.0,15.0,4.0,12.041594578792296,13.152946437965905,13.0,31.0,40.0,38.3275357934736
257,257,20.0,90.0222194794152,9.0,15.0,25.0,27.0,21.095023109728988,65.03076195155643,50.039984012787215,40.0,39.0,37.0,17.0,27.0,10.0,9.0,12.041594578792296,13.152946437965905,13.0,31.0,40.0,40.19950248448356
258,258,18.0,89.05054744357274,9.0,15.0,24.0,26.0,21.095023109728988,63.0317380372777,48.041648597857254,39.0,39.0,36.0,16.5,25.5,9.5,8.5,13.0,13.038404810405298,13.0,31.0,40.0,41.30375285612676
259,259,20.024984394500787,81.00617260431454,10.0,16.0,23.0,25.0,21.095023109728988,67.00746227100382,51.0098029794274,41.0,42.0,41.0,20.5,25.5,8.5,10.5,12.041594578792296,13.152946437965905,13.0,31.0,39.0,40.11234224026316
260,260,19.026297590440446,80.02499609497022,11.0,17.0,23.0,25.019992006393608,21.095023109728988,68.00735254367721,51.0098029794274,41.5,43.0,41.0,21.0,26.0,7.0,11.0,12.041594578792296,14.142135623730951,14.0,30.0,39.0,40.11234224026316
261,261,8.06225774829855,78.02563681252464,13.0,18.0,21.0,23.021728866442675,24.186773244895647,63.0317380372777,45.044422518220834,41.0,43.0,41.0,18.0,21.0,1.0,6.0,13.038404810405298,14.035668847618199,14.0,31.0,39.0,40.311288741492746
262,262,6.324555320336759,77.0,12.041594578792296,17.0,22.0,23.021728866442675,24.186773244895647,59.033888572581766,42.04759208325728,39.0,40.0,40.0,16.0,19.0,0.0,5.0,13.0,14.142135623730951,14.0,32.0,39.0,38.118237105091836
263,263,4.123105625617661,81.0,14.0,17.0,20.0,22.02271554554524,23.08679276123039,58.008620049092706,41.012193308819754,39.0,38.0,38.0,15.0,20.0,1.0,2.0,13.038404810405298,14.035668847618199,14.0,33.0,40.0,39.20459156782532
264,264,3.605551275463989,77.0,15.033296378372908,18.0,21.02379604162864,23.021728866442675,22.02271554554524,58.0,40.0,38.5,40.0,40.0,18.0,18.0,2.0,3.0,12.041594578792296,13.152946437965905,13.5,32.0,40.0,40.19950248448356
265,265,9.055385138137417,81.0,13.0,18.0,21.0,24.0,22.02271554554524,62.0,44.0,39.5,40.0,40.0,18.0,22.0,2.0,5.0,13.0,14.142135623730951,14.0,32.0,41.0,40.311288741492746
266,266,13.152946437965905,81.00617260431454,12.0,18.0,22.0,25.0,21.02379604162864,64.00781202322104,46.010868281309364,39.5,39.0,40.0,18.5,24.5,4.5,7.5,13.038404810405298,13.038404810405298,13.0,32.0,40.0,39.20459156782532
267,267,13.038404810405298,82.00609733428362,12.0,18.027756377319946,23.0,25.019992006393608,21.02379604162864,64.00781202322104,46.0,39.5,38.0,39.0,17.5,25.5,6.5,6.5,12.041594578792296,13.152946437965905,13.0,32.0,39.0,39.20459156782532
268,268,13.152946437965905,82.0,13.0,18.0,22.0,24.020824298928627,19.0,63.0317380372777,45.044422518220834,38.5,38.0,38.0,19.0,25.0,6.0,7.0,13.038404810405298,14.035668847618199,13.5,31.0,39.0,38.3275357934736
269,269,14.142135623730951,80.00624975587844,12.0,18.0,23.0,25.019992006393608,21.02379604162864,65.00769185258002,47.01063709417264,40.0,39.0,40.0,18.5,25.5,5.5,7.5,13.0,14.035668847618199,14.0,33.0,40.0,40.19950248448356
270,270,12.165525060596439,81.00617260431454,12.041594578792296,19.026297590440446,22.02271554554524,25.019992006393608,21.02379604162864,64.00781202322104,45.0,39.0,38.0,39.0,17.5,25.5,4.5,5.5,13.0,14.142135623730951,14.0,33.0,41.0,38.2099463490856
271,271,9.055385138137417,76.0,13.0,19.0,21.0,24.0,22.090722034374522,63.00793600809346,44.01136216933077,39.5,41.0,41.0,19.0,22.0,2.0,7.0,13.0,13.152946437965905,13.5,32.0,39.0,38.3275357934736
272,272,8.06225774829855,77.00649323271382,12.0,20.0,21.0,24.0,22.02271554554524,62.0,42.0,38.0,39.0,38.0,16.5,23.5,2.5,5.5,13.038404810405298,14.142135623730951,14.0,31.0,40.0,39.319206502675
273,273,7.0710678118654755,77.0,13.0,19.0,21.0,23.0,23.08679276123039,62.00806399170998,43.01162633521314,39.5,38.0,38.0,15.0,24.0,3.0,3.0,13.0,14.035668847618199,14.0,32.0,41.0,37.33630940518894
274,274,6.082762530298219,77.00649323271382,13.0,19.0,20.0,23.021728866442675,24.08318915758459,62.00806399170998,43.01162633521314,40.0,40.0,39.0,15.5,22.5,1.5,3.5,13.0,14.035668847618199,14.0,32.0,40.0,38.2099463490856
275,275,5.0990195135927845,75.0066663703967,14.0,20.024984394500787,21.0,23.0,24.08318915758459,63.0,43.01162633521314,40.5,41.0,40.0,16.5,22.5,0.5,3.5,9.0,10.04987562112089,9.5,33.0,41.0,40.311288741492746
276,276,7.0710678118654755,77.02596964660685,12.0,19.0,22.0,24.0,23.08679276123039,61.00819617067857,42.01190307520001,38.5,39.0,37.0,15.0,23.0,3.0,4.0,4.123105625617661,5.0,4.5,32.0,40.0,39.20459156782532
277,277,7.0,80.00624975587844,13.0,19.026297590440446,22.0,26.0,22.090722034374522,61.00819617067857,42.04759208325728,38.5,38.0,37.0,15.5,23.5,2.5,3.5,5.0990195135927845,5.0,4.5,33.0,40.0,39.20459156782532
278,278,11.045361017187261,88.02272433866155,12.041594578792296,17.0,25.0,27.0,21.095023109728988,61.032778078668514,44.04543109109048,38.5,36.0,34.0,14.0,26.0,7.0,3.0,5.0990195135927845,5.0990195135927845,5.0,31.0,39.0,40.19950248448356
279,279,14.0,91.0494371207203,12.0,17.029386365926403,25.019992006393608,28.0,19.1049731745428,62.00806399170998,45.044422518220834,38.0,35.0,32.0,14.5,28.5,10.5,3.5,7.0710678118654755,8.06225774829855,7.5,32.0,40.0,39.319206502675
280,280,18.027756377319946,96.13012014972206,10.0,15.033296378372908,26.076809620810597,29.017236257093817,21.095023109728988,64.1248781675256,49.09175083453431,40.0,37.0,32.0,13.5,29.5,13.5,5.5,10.0,10.198039027185569,9.5,32.0,40.0,39.319206502675
281,281,18.0,96.13012014972206,10.04987562112089,16.0,27.018512172212592,30.0,21.095023109728988,65.06919393998976,49.09175083453431,40.0,37.0,32.0,13.5,30.5,14.5,4.5,9.0,10.04987562112089,10.5,32.0,40.0,39.20459156782532
282,282,21.02379604162864,97.18538984847466,9.0,16.0,26.076809620810597,30.01666203960727,22.20360331117452,68.11754546370561,52.15361924162119,41.5,39.0,33.0,14.0,32.0,15.0,6.0,9.0,11.045361017187261,11.0,31.0,39.0,42.190046219457976
283,283,23.0,95.25754563287887,8.06225774829855,15.033296378372908,26.019223662515376,29.017236257093817,22.20360331117452,68.18357573492314,53.150729063673246,41.5,41.0,34.0,15.5,30.5,14.5,8.5,11.045361017187261,11.180339887498949,11.0,31.0,40.0,40.311288741492746
284,284,24.0,84.2140130857092,8.06225774829855,15.033296378372908,27.018512172212592,28.0178514522438,21.095023109728988,68.11754546370561,53.08483775994799,41.0,43.0,37.0,19.0,28.0,12.0,12.0,11.045361017187261,12.165525060596439,11.5,31.0,39.0,40.311288741492746
285,285,26.0,78.05767098754612,8.0,16.0,25.0,27.0,21.02379604162864,71.00704190430693,55.00909015790027,42.0,44.0,41.0,21.5,28.5,11.5,13.5,12.0,12.165525060596439,12.0,30.0,38.0,40.311288741492746
286,286,27.0,77.05841939723393,9.0,17.029386365926403,24.020824298928627,29.0,19.0,72.00694410957877,55.0,41.5,43.0,40.0,22.5,30.5,12.5,14.5,12.0,13.152946437965905,13.0,32.0,39.0,41.19465984809196
287,287,24.0,76.10519036176179,10.04987562112089,19.026297590440446,24.020824298928627,27.0,19.1049731745428,72.0,53.009433122794285,41.0,44.0,40.0,23.0,30.0,10.0,14.0,12.0,13.341664064126334,13.0,31.0,39.0,41.30375285612676
288,288,27.0,75.1065909225016,9.055385138137417,19.0,22.02271554554524,25.0,18.110770276274835,73.00684899377592,54.00925846556311,40.5,44.0,40.0,24.0,31.0,11.0,15.0,13.038404810405298,14.142135623730951,14.0,32.0,40.0,42.42640687119285
289,289,29.017236257093817,72.06247289678588,9.055385138137417,19.0,24.0,27.0,19.1049731745428,76.02631123499285,57.0350769263968,42.5,45.0,42.0,24.5,32.5,12.5,15.5,13.0,13.152946437965905,13.0,32.0,39.0,40.311288741492746
290,290,30.01666203960727,78.10249675906654,8.06225774829855,17.0,23.0,27.0,20.0,75.0,58.0,43.0,45.0,41.0,23.0,32.0,13.0,15.0,12.041594578792296,13.152946437965905,12.5,31.0,38.0,40.311288741492746
291,291,30.0,84.02380615040002,8.0,16.0,25.0,28.0,19.1049731745428,73.02739212103907,57.0350769263968,42.0,41.0,39.0,21.0,33.0,15.0,14.0,12.0,13.038404810405298,13.0,30.0,37.0,39.319206502675
292,292,30.0,90.08884503644167,6.0,14.0,26.076809620810597,28.0178514522438,20.09975124224178,70.02856560004639,56.0357029044876,41.0,38.0,34.0,16.0,34.0,19.0,11.0,11.0,13.038404810405298,13.0,32.0,40.0,38.3275357934736
293,293,28.0178514522438,93.13431161500041,7.0,15.0,26.019223662515376,29.0,22.02271554554524,72.02777242147643,57.0350769263968,43.0,39.0,34.0,14.5,35.5,19.5,8.5,12.0,13.152946437965905,13.0,31.0,38.0,39.20459156782532
294,294,28.0178514522438,93.13431161500041,7.0,15.0,26.019223662515376,29.0,22.02271554554524,72.02777242147643,57.0350769263968,43.0,39.0,34.0,14.5,35.5,19.5,8.5,12.0,13.152946437965905,13.0,31.0,38.0,39.20459156782532
295,295,29.0,97.082439194738,7.0,14.0,25.019992006393608,29.0,22.090722034374522,72.02777242147643,58.034472514187634,43.5,38.0,34.0,14.0,36.0,20.0,8.0,10.0,12.041594578792296,12.0,31.0,38.0,39.319206502675
296,296,29.0,98.08159868191383,8.0,13.0,26.019223662515376,29.0,21.095023109728988,71.02816342831905,58.034472514187634,43.5,37.0,33.0,14.0,36.0,21.0,7.0,12.041594578792296,14.035668847618199,14.0,32.0,39.0,38.2099463490856
297,297,29.017236257093817,98.12746812182611,7.0,13.0,27.018512172212592,30.0,22.02271554554524,71.02816342831905,58.034472514187634,43.5,39.0,34.0,14.5,34.5,20.5,8.5,12.0,14.142135623730951,14.0,31.0,39.0,38.3275357934736
298,298,31.016124838541646,100.17983829094555,8.06225774829855,13.0,27.073972741361768,30.0,21.0,73.02739212103907,60.03332407921454,44.5,39.0,33.0,15.0,37.0,23.0,9.0,10.0,13.038404810405298,13.0,31.0,39.0,38.47076812334269
299,299,33.0,100.07996802557443,7.0,14.035668847618199,28.071337695236398,30.0,22.02271554554524,76.02631123499285,62.00806399170998,45.5,41.0,37.0,17.0,37.0,23.0,11.0,10.04987562112089,13.152946437965905,12.5,32.0,40.0,37.33630940518894
300,300,35.0,102.17631819555841,8.0,13.0,29.068883707497267,31.0,21.02379604162864,77.00649323271382,64.00781202322104,46.5,44.0,38.0,20.0,36.0,22.0,13.0,11.045361017187261,12.165525060596439,11.5,30.0,39.0,38.47076812334269
301,301,34.0,104.17293314484334,8.06225774829855,14.035668847618199,29.068883707497267,32.01562118716424,22.02271554554524,78.05767098754612,64.03124237432849,47.0,44.0,38.0,19.0,37.0,22.0,12.0,11.0,12.041594578792296,12.0,31.0,40.0,39.319206502675
302,302,35.0,103.12128781197411,9.0,13.0,29.068883707497267,31.0,20.09975124224178,77.02596964660685,64.03124237432849,46.5,44.0,39.0,21.5,35.5,21.5,14.5,11.0,12.165525060596439,12.0,28.0,40.0,39.45883931389772
303,303,34.0,106.23088063270491,10.0,14.035668847618199,30.14962686336267,32.0624390837628,19.026297590440446,77.02596964660685,63.00793600809346,46.0,46.0,39.0,23.5,34.5,20.5,15.5,10.198039027185569,12.041594578792296,12.0,29.0,40.0,37.48332962798263
304,304,34.0,107.22872749408155,10.0,13.038404810405298,29.068883707497267,31.016124838541646,20.024984394500787,77.02596964660685,64.00781202322104,47.0,47.0,40.0,23.5,33.5,20.5,14.5,10.04987562112089,11.045361017187261,11.0,27.0,39.0,38.47076812334269
305,305,33.015148038438355,106.1178590059185,10.04987562112089,13.038404810405298,29.017236257093817,31.0,21.02379604162864,77.02596964660685,64.00781202322104,47.5,48.0,43.0,24.5,31.5,17.5,15.5,10.198039027185569,12.165525060596439,11.5,26.0,38.0,36.49657518178932
306,306,33.015148038438355,106.07544484940895,10.0,13.038404810405298,29.068883707497267,32.0,21.095023109728988,77.02596964660685,64.00781202322104,47.5,48.0,44.0,25.0,31.0,18.0,16.0,10.04987562112089,12.041594578792296,11.5,29.0,39.0,36.345563690772494
307,307,31.0,107.16809226630845,11.0,15.0,31.064449134018133,33.015148038438355,20.024984394500787,77.00649323271382,62.00806399170998,46.5,49.0,43.0,26.0,31.0,16.0,16.0,10.04987562112089,11.045361017187261,10.5,28.0,39.0,36.49657518178932
308,308,32.01562118716424,107.11675872616759,11.0,15.0,30.01666203960727,33.0,20.09975124224178,78.00640999302557,63.00793600809346,47.0,48.0,43.0,25.5,32.5,17.5,15.5,9.055385138137417,11.045361017187261,10.5,28.0,38.0,36.345563690772494
309,309,31.0,106.16967551989597,10.04987562112089,14.0,30.01666203960727,32.01562118716424,21.02379604162864,76.02631123499285,62.03224967708329,46.5,47.0,41.0,23.0,32.0,18.0,14.0,7.0710678118654755,8.06225774829855,7.5,26.0,36.0,34.23448553724738
310,310,28.0,107.16809226630845,10.0,15.0,31.064449134018133,32.01562118716424,22.090722034374522,75.02666192761077,60.03332407921454,46.0,46.0,40.0,21.0,32.0,17.0,13.0,7.0710678118654755,9.055385138137417,8.0,26.0,35.0,30.265491900843113
311,311,23.0,104.12012293500234,10.0,14.035668847618199,29.068883707497267,32.01562118716424,21.02379604162864,68.0294054067798,54.00925846556311,42.5,43.0,38.0,19.5,27.5,12.5,10.5,7.0710678118654755,8.06225774829855,7.5,27.0,34.0,31.25699921617557
312,312,23.021728866442675,106.1178590059185,10.0,14.0,29.017236257093817,32.0,21.02379604162864,68.0294054067798,54.037024344425184,42.5,41.0,36.0,17.5,29.5,13.5,8.5,7.0,9.055385138137417,8.5,29.0,34.0,29.154759474226502
313,313,24.0,103.07764064044152,9.055385138137417,14.0,29.017236257093817,32.0,21.02379604162864,68.0294054067798,54.037024344425184,42.0,41.0,37.0,18.0,29.0,14.0,10.0,7.0710678118654755,8.246211251235321,8.0,27.0,35.0,29.274562336608895
314,314,25.0,104.12012293500234,10.0,15.0,29.068883707497267,32.0,21.095023109728988,71.02816342831905,56.0357029044876,43.5,42.0,37.0,18.5,31.5,15.5,10.5,8.06225774829855,10.198039027185569,9.5,28.0,34.0,28.284271247461902
315,315,24.0,104.0768946500615,10.0,15.0,30.01666203960727,32.0,21.02379604162864,70.00714249274856,55.00909015790027,43.0,42.0,38.0,19.0,30.0,14.0,10.0,6.082762530298219,9.055385138137417,8.5,27.0,34.0,29.274562336608895
316,316,27.0,99.08077512817509,10.0,16.0,29.017236257093817,32.0,19.026297590440446,72.00694410957877,56.00892785976178,42.5,43.0,39.0,22.0,31.0,14.0,13.0,7.0710678118654755,10.198039027185569,9.0,30.0,36.0,30.265491900843113
317,317,27.018512172212592,98.02040603874276,10.0,17.0,29.0,32.0,18.027756377319946,72.0,55.0,41.5,42.0,40.0,23.0,31.0,12.0,14.0,8.0,11.180339887498949,10.5,31.0,36.0,29.274562336608895
318,318,27.018512172212592,92.04890004774636,11.045361017187261,17.0,28.0178514522438,31.016124838541646,17.0,72.0,55.0,41.5,44.0,41.0,25.5,29.5,11.5,15.5,8.06225774829855,10.198039027185569,9.0,30.0,36.0,29.274562336608895
319,319,27.018512172212592,91.0494371207203,11.0,18.0,28.0,30.0,18.0,74.00675644831355,56.00892785976178,42.5,45.0,42.0,25.5,30.5,11.5,15.5,8.0,10.04987562112089,9.5,31.0,35.0,29.274562336608895
320,320,27.018512172212592,91.02197536858887,11.0,17.029386365926403,26.0,30.0,17.0,72.0,55.00909015790027,41.5,42.0,40.0,24.0,31.0,13.0,13.0,8.06225774829855,10.04987562112089,9.5,31.0,36.0,27.294688127912362
321,321,26.019223662515376,95.02105029939419,10.0,16.0312195418814,29.0,32.01562118716424,20.024984394500787,72.00694410957877,56.0,43.0,43.0,41.0,22.0,30.0,12.0,13.0,8.06225774829855,9.219544457292887,9.0,31.0,36.0,28.160255680657446
322,322,26.019223662515376,95.02105029939419,10.0,16.0312195418814,29.0,32.01562118716424,20.024984394500787,72.00694410957877,56.0,43.0,43.0,41.0,22.0,30.0,12.0,13.0,8.06225774829855,9.219544457292887,9.0,31.0,36.0,28.160255680657446
323,323,22.02271554554524,103.01941564578979,10.0,15.0,29.017236257093817,31.016124838541646,22.090722034374522,69.00724599634447,54.00925846556311,43.0,41.0,39.0,18.0,29.0,13.0,9.0,9.0,11.045361017187261,10.5,35.0,38.0,30.14962686336267
324,324,21.0,106.01886624558857,11.0,14.0,30.0,32.01562118716424,22.02271554554524,68.00735254367721,54.00925846556311,43.5,40.0,38.0,17.0,29.0,13.0,7.0,10.04987562112089,12.041594578792296,11.5,34.0,37.0,30.14962686336267
325,325,21.02379604162864,106.01886624558857,10.0,15.0,29.0,32.0,21.02379604162864,67.0,52.0,41.5,39.0,37.0,17.0,29.0,13.0,7.0,9.0,11.045361017187261,10.5,33.0,37.0,30.066592756745816
326,326,12.0,96.00520819205592,11.0,17.029386365926403,28.0178514522438,29.017236257093817,20.024984394500787,60.0,43.01162633521314,37.0,41.0,40.0,20.5,19.5,1.5,9.5,9.0,10.04987562112089,10.0,32.0,35.0,32.14031735997639
327,327,13.038404810405298,96.0,10.0,15.033296378372908,26.019223662515376,28.0178514522438,21.02379604162864,59.00847396772772,44.0,37.5,40.0,40.0,19.0,19.0,2.0,9.0,10.04987562112089,11.045361017187261,10.5,31.0,33.0,33.06055050963308
328,328,12.165525060596439,96.0,11.0,15.0,25.0,27.018512172212592,20.024984394500787,58.008620049092706,43.01162633521314,37.0,39.0,39.0,19.0,19.0,2.0,9.0,9.055385138137417,11.045361017187261,10.5,32.0,34.0,33.06055050963308
329,329,9.219544457292887,95.00526301210897,11.0,14.035668847618199,25.019992006393608,26.0,20.024984394500787,54.037024344425184,40.01249804748511,35.5,39.0,40.0,19.5,14.5,0.5,8.5,10.0,12.165525060596439,11.5,33.0,35.0,34.058772731852805
330,330,8.06225774829855,95.00526301210897,12.041594578792296,14.035668847618199,25.0,26.019223662515376,19.1049731745428,53.009433122794285,39.0,35.0,40.0,39.0,20.5,13.5,1.5,9.5,11.045361017187261,12.041594578792296,12.0,33.0,35.0,34.058772731852805
331,331,13.038404810405298,94.00531899844816,11.045361017187261,15.033296378372908,24.0,25.019992006393608,19.1049731745428,58.008620049092706,43.0,36.5,41.0,40.0,21.5,17.5,1.5,10.5,11.045361017187261,12.041594578792296,11.5,33.0,34.0,34.058772731852805
332,332,18.027756377319946,93.02150289046077,11.0,17.029386365926403,26.0,27.0,20.024984394500787,66.007575322837,49.0,40.0,43.0,41.0,22.0,24.0,6.0,12.0,11.0,12.041594578792296,12.0,34.0,36.0,34.0147027033899
333,333,18.110770276274835,91.00549433962765,11.0,18.0,25.0,27.0,18.110770276274835,65.0,47.0,38.0,42.0,41.0,23.5,23.5,4.5,12.5,12.041594578792296,12.041594578792296,12.0,35.0,37.0,34.058772731852805
334,334,12.041594578792296,91.00549433962765,13.038404810405298,18.0,25.0,27.0,19.1049731745428,62.0,44.0,38.0,41.0,40.0,21.5,21.5,2.5,8.5,11.045361017187261,11.045361017187261,11.0,32.0,35.0,34.058772731852805
335,335,12.041594578792296,91.0494371207203,12.0,18.027756377319946,26.0,27.0,19.1049731745428,61.0,43.01162633521314,37.0,41.0,38.0,20.5,21.5,3.5,8.5,11.045361017187261,11.045361017187261,11.0,33.0,36.0,34.058772731852805
336,336,12.041594578792296,91.0494371207203,12.041594578792296,17.0,27.0,28.0,20.09975124224178,61.0,44.0,38.0,41.0,38.0,19.5,21.5,3.5,8.5,10.04987562112089,11.180339887498949,11.0,34.0,36.0,35.05709628591621
337,337,18.110770276274835,91.02197536858887,11.0,17.0,27.0,28.0178514522438,20.024984394500787,66.007575322837,49.01020301937138,40.0,42.0,40.0,21.0,25.0,7.0,10.0,11.045361017187261,13.152946437965905,13.0,34.0,38.0,34.058772731852805
338,338,24.020824298928627,92.02173656261873,12.0,16.0312195418814,26.019223662515376,28.0178514522438,21.02379604162864,73.00684899377592,57.0,45.0,45.0,43.0,23.0,29.0,11.0,12.0,3.1622776601683795,5.0,4.0,35.0,37.0,36.05551275463989
339,339,25.0,92.00543462209176,12.041594578792296,16.0,26.019223662515376,29.0,21.02379604162864,74.0,58.0,45.5,45.0,44.0,23.5,29.5,12.5,12.5,3.1622776601683795,4.0,3.5,35.0,37.0,35.05709628591621
340,340,25.019992006393608,92.0,11.045361017187261,16.0,27.0,29.0,21.095023109728988,73.0,57.0,44.5,45.0,45.0,24.0,28.0,11.0,13.0,4.123105625617661,5.0990195135927845,4.5,33.0,36.0,36.05551275463989
341,341,25.019992006393608,91.0,11.0,16.0312195418814,28.0,29.0,21.095023109728988,73.0,57.0087712549569,44.5,45.0,45.0,24.0,28.0,11.0,13.0,4.123105625617661,5.0,4.5,34.0,36.0,36.05551275463989
342,342,25.019992006393608,87.0,10.0,16.0,25.0,28.0,18.0,69.00724599634447,53.009433122794285,40.5,42.0,42.0,24.0,27.0,10.0,14.0,7.0710678118654755,8.0,7.5,33.0,36.0,36.013886210738214
343,343,25.019992006393608,86.0,10.0,16.0312195418814,26.0,29.017236257093817,17.029386365926403,68.00735254367721,52.0,39.5,42.0,42.0,25.0,26.0,9.0,15.0,8.06225774829855,9.055385138137417,9.0,35.0,37.0,37.12142238654117
344,344,24.08318915758459,80.0,12.0,17.0,24.0,26.0,17.029386365926403,70.00714249274856,53.009433122794285,41.0,43.0,43.0,26.0,27.0,9.0,14.0,10.04987562112089,11.045361017187261,10.5,35.0,38.0,36.05551275463989
345,345,18.027756377319946,74.02702209328699,13.038404810405298,20.024984394500787,21.0,24.020824298928627,18.027756377319946,69.02897942168927,49.01020301937138,40.0,45.0,43.0,26.0,25.0,4.0,13.0,11.0,12.041594578792296,12.0,34.0,35.0,35.05709628591621
346,346,18.110770276274835,74.00675644831355,14.035668847618199,20.024984394500787,21.0,24.020824298928627,17.0,69.1158447825099,49.09175083453431,40.0,41.0,42.0,24.5,27.5,5.5,10.5,10.0,13.038404810405298,12.5,33.0,36.0,34.058772731852805
347,347,12.041594578792296,75.02666192761077,15.0,21.0,22.0,25.0,18.0,66.007575322837,45.0111097397076,39.0,45.0,43.0,26.0,22.0,0.0,11.0,12.0,14.035668847618199,13.5,33.0,36.0,36.124783736376884
348,348,9.219544457292887,79.02531240052139,15.0,21.02379604162864,23.021728866442675,25.079872407968907,19.026297590440446,64.03124237432849,43.01162633521314,38.5,41.0,43.0,23.0,22.0,0.0,8.0,11.045361017187261,13.038404810405298,13.0,33.0,36.0,35.12833614050059
349,349,12.165525060596439,79.00632886041473,14.0,21.0,23.021728866442675,26.019223662515376,20.024984394500787,67.00746227100382,46.010868281309364,40.0,42.0,43.0,22.5,24.5,1.5,8.5,12.0,13.038404810405298,12.5,33.0,36.0,34.23448553724738
350,350,19.026297590440446,91.0,11.045361017187261,16.0,25.0,27.0,21.095023109728988,67.0,51.0,41.5,40.0,40.0,19.0,27.0,10.0,8.0,12.041594578792296,14.142135623730951,14.0,32.0,37.0,36.124783736376884
351,351,19.026297590440446,95.00526301210897,12.041594578792296,16.0,25.0,27.0,20.223748416156685,67.00746227100382,51.0098029794274,41.5,39.0,38.0,18.5,28.5,11.5,6.5,12.0,14.035668847618199,13.5,33.0,37.0,37.21558813185679
352,352,19.026297590440446,96.00520819205592,12.0,16.0,24.0,26.019223662515376,20.09975124224178,67.00746227100382,51.0098029794274,41.5,39.0,38.0,18.5,28.5,11.5,6.5,12.041594578792296,14.035668847618199,14.0,32.0,36.0,36.124783736376884
353,353,19.0,96.00520819205592,12.041594578792296,15.033296378372908,25.0,27.018512172212592,21.095023109728988,67.0,52.009614495783374,42.5,39.0,38.0,17.5,28.5,12.5,6.5,12.041594578792296,14.035668847618199,13.5,33.0,36.0,37.12142238654117
354,354,20.0,96.00520819205592,12.0,15.0,25.0,27.0,21.02379604162864,68.00735254367721,53.009433122794285,43.0,40.0,39.0,18.5,28.5,12.5,7.5,12.0,14.035668847618199,13.5,31.0,35.0,37.21558813185679
355,355,24.0,95.00526301210897,11.0,16.0312195418814,26.0,29.017236257093817,23.021728866442675,74.0,58.008620049092706,46.0,41.0,42.0,18.5,32.5,15.5,8.5,12.0,14.035668847618199,14.0,33.0,37.0,37.12142238654117
356,356,24.0,95.00526301210897,11.0,16.0312195418814,26.0,29.017236257093817,23.021728866442675,74.0,58.008620049092706,46.0,41.0,42.0,18.5,32.5,15.5,8.5,12.0,14.035668847618199,14.0,33.0,37.0,37.12142238654117
357,357,27.018512172212592,94.0,11.0,15.033296378372908,27.0,30.01666203960727,23.021728866442675,76.00657866263946,61.0,47.5,43.0,43.0,20.0,33.0,16.0,10.0,12.0,15.033296378372908,14.5,34.0,37.0,34.132096331752024
358,358,26.019223662515376,94.0,12.0,15.033296378372908,27.0,29.017236257093817,23.021728866442675,76.00657866263946,61.0,48.0,43.0,43.0,20.0,33.0,16.0,9.0,12.0,14.035668847618199,13.5,34.0,37.0,37.05401462729781
359,359,28.0178514522438,94.00531899844816,11.0,16.0,27.0,30.0,22.02271554554524,77.0,61.0,47.0,44.0,45.0,22.5,32.5,15.5,11.5,12.041594578792296,14.035668847618199,14.0,33.0,37.0,35.22782990761707
360,360,28.0178514522438,94.00531899844816,11.0,16.0,27.0,30.0,22.02271554554524,77.0,61.0,47.0,44.0,45.0,22.5,32.5,15.5,11.5,12.041594578792296,14.035668847618199,14.0,33.0,37.0,35.22782990761707
361,361,27.018512172212592,89.02246907382428,11.0,16.0312195418814,24.0,27.018512172212592,21.0,75.02666192761077,59.00847396772772,45.5,45.0,47.0,25.0,29.0,12.0,14.0,12.0,14.035668847618199,14.0,34.0,38.0,34.132096331752024
362,362,23.021728866442675,85.05292469985967,11.0,17.029386365926403,24.020824298928627,26.076809620810597,19.0,70.02856560004639,53.009433122794285,41.5,44.0,47.0,26.5,24.5,6.5,14.5,13.038404810405298,15.0,15.0,33.0,38.0,37.05401462729781
363,363,22.02271554554524,85.0235261559999,12.0,16.0,23.021728866442675,25.079872407968907,19.0,69.00724599634447,53.009433122794285,42.0,44.0,46.0,26.0,24.0,6.0,14.0,13.0,14.035668847618199,14.0,33.0,36.0,37.05401462729781
364,364,22.090722034374522,83.00602387778854,11.0,17.0,22.02271554554524,24.020824298928627,19.0,69.02897942168927,52.03844732503075,41.0,44.0,45.0,25.5,24.5,5.5,13.5,13.038404810405298,14.0,14.0,33.0,37.0,37.05401462729781
365,365,22.090722034374522,83.00602387778854,11.0,17.0,22.02271554554524,24.020824298928627,19.0,69.02897942168927,52.03844732503075,41.0,44.0,45.0,25.5,24.5,5.5,13.5,13.038404810405298,14.0,14.0,33.0,37.0,37.05401462729781
366,366,14.142135623730951,77.10382610480494,14.0,19.026297590440446,21.02379604162864,24.08318915758459,20.0,67.06713054842886,48.041648597857254,41.0,42.0,46.0,24.0,23.0,2.0,9.0,14.035668847618199,15.033296378372908,15.0,35.0,37.0,37.12142238654117
367,367,13.152946437965905,75.1065909225016,15.0,19.026297590440446,20.024984394500787,22.090722034374522,20.0,67.06713054842886,48.041648597857254,41.5,42.0,46.0,24.0,23.0,2.0,9.0,13.0,15.0,15.0,35.0,37.0,36.05551275463989
368,368,12.041594578792296,72.02777242147643,14.0,19.026297590440446,19.026297590440446,22.02271554554524,21.02379604162864,66.06814663663572,47.042533945356304,41.0,43.0,45.0,23.0,22.0,2.0,9.0,14.0,15.033296378372908,15.0,35.0,37.0,38.05259518088089
369,369,10.198039027185569,73.02739212103907,14.0,20.0,20.0,22.090722034374522,22.02271554554524,66.007575322837,46.010868281309364,41.0,42.0,44.0,21.0,23.0,1.0,7.0,13.0,14.035668847618199,13.5,34.0,36.0,35.12833614050059
370,370,9.219544457292887,71.06335201775947,14.0,20.024984394500787,20.09975124224178,22.090722034374522,22.0,65.06919393998976,45.044422518220834,40.5,42.0,45.0,21.5,21.5,0.5,6.5,14.035668847618199,15.033296378372908,15.0,35.0,37.0,36.05551275463989
371,371,7.0710678118654755,72.02777242147643,15.033296378372908,21.02379604162864,21.02379604162864,23.08679276123039,21.0,64.07027391856539,43.04648650006177,39.5,42.0,44.0,22.0,21.0,1.0,7.0,13.038404810405298,15.132745950421556,14.5,35.0,37.0,36.05551275463989
372,372,7.280109889280518,72.06247289678588,15.0,20.0,20.024984394500787,23.08679276123039,21.0,63.0317380372777,43.04648650006177,39.5,41.0,44.0,21.5,20.5,1.5,6.5,13.0,15.033296378372908,15.0,36.0,37.0,35.12833614050059
373,373,12.041594578792296,76.05918747922567,13.038404810405298,17.029386365926403,21.02379604162864,23.021728866442675,19.0,61.07372593840988,44.04543109109048,38.0,38.0,41.0,20.5,21.5,1.5,7.5,13.0,14.035668847618199,13.5,36.0,36.0,35.12833614050059
374,374,7.280109889280518,80.09993757800315,13.038404810405298,17.029386365926403,22.02271554554524,23.08679276123039,19.0,56.142675390472796,39.11521443121589,35.5,36.0,40.0,19.0,18.0,1.0,6.0,13.0,13.0,13.0,36.0,35.0,37.05401462729781
375,375,7.280109889280518,80.09993757800315,13.038404810405298,17.029386365926403,22.02271554554524,23.08679276123039,19.0,56.142675390472796,39.11521443121589,35.5,36.0,40.0,19.0,18.0,1.0,6.0,13.0,13.0,13.0,36.0,35.0,37.05401462729781
376,376,6.324555320336759,84.09518416651456,12.0,17.029386365926403,22.02271554554524,23.08679276123039,19.026297590440446,54.147945482723536,37.12142238654117,34.0,35.0,39.0,18.0,17.0,2.0,6.0,12.0,13.038404810405298,13.5,36.0,35.0,35.05709628591621
377,377,9.219544457292887,84.09518416651456,12.0,16.0312195418814,22.02271554554524,25.019992006393608,20.0,57.07889277132134,41.048751503547585,36.5,38.0,42.0,20.0,17.0,0.0,8.0,12.041594578792296,14.0,13.5,35.0,34.0,34.0147027033899
378,378,15.132745950421556,82.09750300709517,13.0,17.029386365926403,22.02271554554524,24.08318915758459,20.0,65.06919393998976,48.041648597857254,40.5,41.0,45.0,23.0,22.0,3.0,10.0,13.0,14.035668847618199,14.0,36.0,34.0,36.013886210738214
379,379,16.1245154965971,83.09632964216891,12.0,17.11724276862369,22.090722034374522,24.186773244895647,20.0,65.12296062065974,48.041648597857254,40.0,40.0,44.0,22.0,23.0,4.0,9.0,12.0,14.0,14.0,36.0,34.0,36.013886210738214
380,380,17.11724276862369,89.1403387922662,12.041594578792296,16.1245154965971,24.020824298928627,26.1725046566048,21.0,66.18912297349165,50.08991914547278,41.5,39.0,44.0,20.5,24.5,6.5,8.5,13.0,14.0,14.0,38.0,36.0,37.013511046643494
381,381,17.029386365926403,96.13012014972206,15.0,22.02271554554524,26.0,29.017236257093817,20.024984394500787,74.06078584514209,52.03844732503075,43.5,40.0,45.0,22.5,31.5,8.5,7.5,13.0,14.0,14.0,37.0,37.0,36.013886210738214
382,382,29.017236257093817,98.04590761474952,13.0,19.026297590440446,25.0,28.071337695236398,21.02379604162864,82.05485969764375,63.0317380372777,48.5,42.0,45.0,22.5,38.5,18.5,9.5,13.0,14.035668847618199,13.5,36.0,38.0,35.05709628591621
383,383,29.017236257093817,98.04590761474952,13.0,19.026297590440446,25.0,28.071337695236398,21.02379604162864,82.05485969764375,63.0317380372777,48.5,42.0,45.0,22.5,38.5,18.5,9.5,13.0,14.035668847618199,13.5,36.0,38.0,35.05709628591621
384,384,31.0,96.00520819205592,10.0,15.0,26.0,29.017236257093817,21.02379604162864,77.00649323271382,62.00806399170998,46.5,42.0,41.0,20.5,35.5,19.5,10.5,12.041594578792296,13.0,13.0,35.0,39.0,38.05259518088089
385,385,13.038404810405298,86.02325267042627,12.041594578792296,16.0,23.021728866442675,25.0,21.095023109728988,62.03224967708329,46.04345773288535,39.5,40.0,38.0,18.0,23.0,6.0,7.0,12.041594578792296,13.038404810405298,13.0,32.0,39.0,36.22154055254967
386,386,13.038404810405298,87.05170877128145,12.0,16.0,24.020824298928627,25.0,21.213203435596427,62.03224967708329,46.04345773288535,39.5,41.0,38.0,18.5,22.5,5.5,7.5,12.041594578792296,12.041594578792296,12.0,33.0,39.0,36.22154055254967
387,387,8.0,85.05292469985967,13.0,17.0,23.0,26.0,21.095023109728988,59.033888572581766,42.04759208325728,38.0,40.0,37.0,17.5,20.5,2.5,4.5,13.0,13.152946437965905,13.0,32.0,38.0,37.21558813185679
388,388,7.0710678118654755,84.0535543567314,14.0,17.0,22.02271554554524,25.0,20.223748416156685,58.034472514187634,41.048751503547585,37.5,39.0,36.0,17.5,20.5,3.5,4.5,12.041594578792296,13.152946437965905,13.0,32.0,38.0,36.124783736376884
389,389,7.0710678118654755,82.00609733428362,13.0,18.027756377319946,24.0,25.019992006393608,22.02271554554524,60.00833275470999,42.0,38.5,39.0,40.0,17.5,20.5,0.5,5.5,12.0,13.038404810405298,13.0,34.0,39.0,37.12142238654117
390,390,9.0,80.00624975587844,14.035668847618199,18.027756377319946,23.0,26.019223662515376,21.095023109728988,62.0,44.01136216933077,39.5,39.0,40.0,18.5,22.5,2.5,5.5,12.0,13.152946437965905,12.5,33.0,37.0,35.05709628591621
391,391,15.033296378372908,81.00617260431454,12.0,17.029386365926403,24.0,25.0,20.024984394500787,64.00781202322104,47.0,39.5,40.0,41.0,20.5,23.5,5.5,8.5,12.041594578792296,14.035668847618199,13.5,34.0,38.0,35.05709628591621
392,392,17.029386365926403,81.0,12.0,18.0,23.021728866442675,26.0,19.0,66.007575322837,48.010415536631214,39.5,41.0,41.0,22.0,25.0,6.0,11.0,13.0,14.035668847618199,14.0,32.0,37.0,35.12833614050059
393,393,17.029386365926403,81.0,12.0,18.0,23.021728866442675,26.0,19.0,66.007575322837,48.010415536631214,39.5,41.0,41.0,22.0,25.0,6.0,11.0,13.0,14.035668847618199,14.0,32.0,37.0,35.12833614050059
394,394,12.165525060596439,82.05485969764375,13.0,19.026297590440446,24.020824298928627,26.019223662515376,18.110770276274835,62.00806399170998,43.0,37.0,39.0,42.0,22.5,21.5,0.5,9.5,12.041594578792296,13.152946437965905,13.0,33.0,36.0,34.132096331752024
395,395,19.026297590440446,81.00617260431454,12.041594578792296,18.027756377319946,23.0,26.019223662515376,18.027756377319946,67.02984409947557,49.01020301937138,39.5,40.0,41.0,22.5,26.5,7.5,10.5,12.041594578792296,13.038404810405298,13.0,32.0,36.0,33.06055050963308
396,396,18.027756377319946,78.0,13.038404810405298,20.0,23.0,26.019223662515376,18.027756377319946,69.00724599634447,49.01020301937138,40.0,42.0,42.0,24.0,27.0,5.0,11.0,13.038404810405298,15.033296378372908,14.5,33.0,37.0,35.12833614050059
397,397,16.0312195418814,79.02531240052139,13.0,20.024984394500787,24.0,26.019223662515376,20.0,69.02897942168927,49.01020301937138,41.0,42.0,44.0,23.0,26.0,4.0,11.0,13.038404810405298,14.035668847618199,14.0,33.0,38.0,35.05709628591621
398,398,17.029386365926403,80.0,13.0,21.0,22.02271554554524,25.0,20.0,71.00704190430693,50.00999900019995,41.5,43.0,43.0,23.0,28.0,5.0,10.0,14.0,14.035668847618199,14.0,33.0,37.0,35.05709628591621
399,399,17.029386365926403,80.0,13.0,21.0,22.02271554554524,25.0,20.0,71.00704190430693,50.00999900019995,41.5,43.0,43.0,23.0,28.0,5.0,10.0,14.0,14.035668847618199,14.0,33.0,37.0,35.05709628591621
400,400,11.045361017187261,85.0235261559999,17.0,25.019992006393608,23.0,26.076809620810597,20.024984394500787,73.00684899377592,48.0,42.5,43.0,45.0,24.0,29.0,3.0,8.0,14.0,15.033296378372908,15.0,36.0,40.0,36.05551275463989
401,401,15.033296378372908,87.05170877128145,15.0,22.02271554554524,22.0,25.079872407968907,22.0,74.02702209328699,52.009614495783374,44.5,43.0,46.0,22.5,29.5,5.5,7.5,15.033296378372908,16.0312195418814,16.0,37.0,41.0,36.124783736376884
402,402,15.033296378372908,87.05170877128145,15.0,22.02271554554524,22.0,25.079872407968907,22.0,74.02702209328699,52.009614495783374,44.5,43.0,46.0,22.5,29.5,5.5,7.5,15.033296378372908,16.0312195418814,16.0,37.0,41.0,36.124783736376884
403,403,14.035668847618199,87.05170877128145,15.0,23.021728866442675,23.021728866442675,25.179356624028344,22.0,74.02702209328699,51.0098029794274,44.0,44.0,47.0,23.5,28.5,3.5,8.5,16.0,16.0312195418814,16.0,38.0,41.0,37.12142238654117
404,404,3.1622776601683795,88.02272433866155,15.0,15.033296378372908,21.0,23.021728866442675,25.019992006393608,58.008620049092706,43.0,41.5,41.0,43.0,17.0,16.0,1.0,3.0,14.0,15.033296378372908,15.0,39.0,41.0,37.12142238654117
405,405,2.23606797749979,89.02246907382428,14.0,15.0,21.0,23.021728866442675,25.0,56.00892785976178,41.012193308819754,40.0,41.0,43.0,17.0,14.0,3.0,3.0,14.0,15.033296378372908,15.0,39.0,41.0,38.118237105091836
406,406,2.23606797749979,89.02246907382428,15.0,15.0,22.0,23.08679276123039,23.0,54.037024344425184,39.05124837953327,38.5,39.0,41.0,17.0,14.0,2.0,3.0,15.0,15.033296378372908,15.0,39.0,42.0,39.11521443121589
407,407,3.605551275463989,93.02150289046077,14.0,15.0,23.0,23.021728866442675,24.020824298928627,56.00892785976178,41.012193308819754,39.5,40.0,42.0,17.0,15.0,1.0,3.0,15.0,15.0,15.0,39.0,42.0,39.05124837953327
408,408,7.0710678118654755,92.00543462209176,15.033296378372908,17.0,23.0,25.019992006393608,21.02379604162864,60.00833275470999,43.01162633521314,39.5,39.0,40.0,18.5,20.5,2.5,4.5,14.035668847618199,15.0,15.0,39.0,42.0,37.12142238654117
409,409,8.06225774829855,95.00526301210897,13.0,18.027756377319946,24.0,26.0,21.095023109728988,60.0,42.01190307520001,38.0,38.0,39.0,17.5,21.5,2.5,4.5,14.0,15.033296378372908,15.0,38.0,42.0,39.05124837953327
410,410,6.082762530298219,96.0,13.0,19.0,25.019992006393608,27.0,21.095023109728988,59.00847396772772,40.01249804748511,37.0,38.0,38.0,17.0,21.0,2.0,5.0,14.0,14.035668847618199,14.0,38.0,42.0,39.05124837953327
411,411,16.0312195418814,97.0,12.0,15.0,25.0,27.018512172212592,19.026297590440446,62.0,47.0,39.0,36.0,36.0,17.0,26.0,10.0,5.0,13.0,14.035668847618199,14.0,41.0,43.0,36.05551275463989
412,412,15.033296378372908,99.0,12.0,14.035668847618199,26.0,29.017236257093817,19.0,60.03332407921454,46.010868281309364,38.5,35.0,35.0,16.0,25.0,10.0,5.0,13.0,14.035668847618199,14.0,39.0,42.0,36.22154055254967
413,413,16.0312195418814,100.00499987500625,12.0,15.0,26.019223662515376,29.0,19.0,62.00806399170998,47.01063709417264,39.0,36.0,35.0,16.5,26.5,10.5,5.5,14.0,14.0,14.0,39.0,42.0,37.12142238654117
414,414,16.0312195418814,101.0,12.0,15.033296378372908,26.0,28.0178514522438,18.0,61.032778078668514,46.010868281309364,38.0,34.0,34.0,16.0,27.0,11.0,4.0,13.0,14.035668847618199,14.0,40.0,42.0,37.12142238654117
415,415,9.055385138137417,94.02127418834527,13.0,18.027756377319946,24.0,27.018512172212592,20.024984394500787,60.00833275470999,42.0,37.5,37.0,39.0,18.0,22.0,3.0,5.0,14.0,14.142135623730951,14.0,39.0,41.0,35.05709628591621
416,416,3.605551275463989,93.02150289046077,14.0,16.0,24.020824298928627,26.076809620810597,21.02379604162864,54.00925846556311,38.01315561749642,36.5,35.0,37.0,15.0,18.0,0.0,1.0,12.0,13.038404810405298,13.0,40.0,40.0,36.124783736376884
417,417,2.23606797749979,93.04837451562494,15.0,15.033296378372908,24.020824298928627,25.019992006393608,20.0,51.088159097779204,36.05551275463989,35.5,34.0,37.0,15.5,15.5,1.5,0.5,12.0,14.035668847618199,13.5,41.0,42.0,36.124783736376884
418,418,2.23606797749979,93.04837451562494,15.0,15.033296378372908,24.020824298928627,25.019992006393608,20.0,51.088159097779204,36.05551275463989,35.5,34.0,37.0,15.5,15.5,1.5,0.5,12.0,14.035668847618199,13.5,41.0,42.0,36.124783736376884
419,419,22.02271554554524,96.02083107326243,12.0,15.033296378372908,26.019223662515376,29.068883707497267,21.0,70.02856560004639,55.00909015790027,44.0,38.0,40.0,18.0,31.0,14.0,7.0,13.0,15.033296378372908,15.0,42.0,43.0,37.05401462729781
420,420,23.021728866442675,96.02083107326243,12.0,16.0312195418814,27.018512172212592,29.068883707497267,20.024984394500787,71.00704190430693,55.0,43.5,38.0,40.0,19.0,32.0,14.0,7.0,14.0,16.1245154965971,15.5,40.0,41.0,37.05401462729781
421,421,26.0,95.00526301210897,12.0,15.033296378372908,27.0,29.068883707497267,20.0,73.00684899377592,58.0,45.0,40.0,41.0,20.5,32.5,16.5,8.5,13.0,15.033296378372908,15.0,40.0,42.0,37.12142238654117
422,422,26.019223662515376,96.00520819205592,12.0,15.033296378372908,28.0178514522438,30.01666203960727,20.024984394500787,73.00684899377592,58.0,45.0,41.0,42.0,21.5,31.5,14.5,9.5,13.0,15.033296378372908,14.5,40.0,41.0,38.118237105091836
423,423,23.0,93.02150289046077,12.0,16.0312195418814,26.019223662515376,29.068883707497267,20.0,71.00704190430693,55.0,43.5,38.0,40.0,19.0,32.0,14.0,7.0,14.035668847618199,15.033296378372908,14.5,39.0,40.0,38.118237105091836
424,424,7.0,94.00531899844816,14.0,20.024984394500787,25.0,28.0,21.0,62.00806399170998,42.0,38.5,37.0,38.0,16.5,24.5,3.5,3.5,13.0,15.033296378372908,14.5,40.0,42.0,37.21558813185679
425,425,3.1622776601683795,94.00531899844816,15.0,17.029386365926403,24.020824298928627,25.019992006393608,20.024984394500787,55.00909015790027,38.0,36.5,35.0,36.0,15.5,19.5,1.5,0.5,14.0,15.033296378372908,14.5,39.0,41.0,37.12142238654117
426,426,1.4142135623730951,95.00526301210897,15.0,17.029386365926403,24.020824298928627,25.019992006393608,21.02379604162864,54.08326913195984,37.05401462729781,36.5,34.0,35.0,13.5,19.5,1.5,1.5,13.0,15.033296378372908,15.0,40.0,41.0,36.124783736376884
427,427,3.0,95.00526301210897,14.0,18.027756377319946,25.0,27.0,20.024984394500787,55.036351623268054,37.013511046643494,35.5,35.0,36.0,15.5,19.5,0.5,2.5,13.0,14.035668847618199,13.5,40.0,40.0,36.05551275463989
428,428,14.142135623730951,94.02127418834527,12.0,16.0312195418814,25.019992006393608,28.0178514522438,19.026297590440446,61.1310068623117,45.09988913511872,38.0,35.0,37.0,17.0,25.0,8.0,5.0,14.0,14.035668847618199,14.0,38.0,40.0,34.23448553724738
429,429,11.045361017187261,94.00531899844816,13.0,16.0312195418814,25.0,27.018512172212592,19.0,59.033888572581766,43.01162633521314,37.5,36.0,37.0,17.5,22.5,5.5,5.5,13.0,15.033296378372908,15.0,39.0,40.0,35.22782990761707
430,430,15.033296378372908,93.04837451562494,13.038404810405298,16.1245154965971,25.019992006393608,27.073972741361768,19.026297590440446,63.198101237299845,47.095647357266465,39.5,36.0,39.0,18.5,25.5,8.5,5.5,13.0,14.035668847618199,14.0,39.0,39.0,37.12142238654117
431,431,10.04987562112089,93.02150289046077,13.038404810405298,19.026297590440446,25.0,26.019223662515376,20.0,62.07253821135398,43.04648650006177,38.0,38.0,40.0,19.0,23.0,3.0,6.0,14.035668847618199,14.0,14.0,39.0,38.0,35.05709628591621
432,432,15.132745950421556,93.04837451562494,13.038404810405298,15.033296378372908,26.019223662515376,28.071337695236398,18.027756377319946,61.204574992397426,46.17358552246078,38.5,36.0,39.0,19.5,23.5,6.5,6.5,12.0,13.0,13.0,39.0,38.0,34.0147027033899
433,433,12.165525060596439,93.08598175880189,13.038404810405298,16.1245154965971,25.019992006393608,27.073972741361768,19.026297590440446,60.29925372672534,44.181444068749045,38.0,36.0,40.0,19.0,22.0,5.0,6.0,13.0,14.035668847618199,14.0,38.0,38.0,33.015148038438355
434,434,9.219544457292887,92.0869154657707,13.038404810405298,17.029386365926403,25.019992006393608,27.073972741361768,20.0,59.135437767890075,42.1070065428546,37.5,36.0,40.0,18.0,21.0,2.0,5.0,12.041594578792296,13.0,12.5,39.0,36.0,31.016124838541646
435,435,10.198039027185569,93.13431161500041,13.0,16.1245154965971,25.0,27.018512172212592,18.110770276274835,57.3149195236284,41.19465984809196,36.0,33.0,38.0,17.5,21.5,4.5,5.5,11.0,12.0,12.0,39.0,36.0,30.0
436,436,11.180339887498949,93.13431161500041,13.038404810405298,15.033296378372908,24.08318915758459,27.073972741361768,18.027756377319946,57.21887800367987,42.190046219457976,36.5,32.0,37.0,16.5,22.5,6.5,3.5,11.0,12.0,11.5,40.0,37.0,31.0
437,437,10.04987562112089,91.19758768739445,13.038404810405298,17.11724276862369,25.079872407968907,26.1725046566048,18.110770276274835,58.309518948453004,41.19465984809196,36.0,32.0,38.0,17.0,23.0,4.0,4.0,12.041594578792296,12.0,11.5,39.0,34.0,32.0
438,438,16.1245154965971,90.35485598461214,11.180339887498949,16.1245154965971,25.179356624028344,26.1725046566048,19.1049731745428,62.51399843235114,46.389654018972806,38.0,33.0,41.0,18.0,25.0,7.0,6.0,11.045361017187261,12.0,11.5,41.0,34.0,32.01562118716424
439,439,18.24828759089466,86.70063436907483,11.045361017187261,15.132745950421556,23.194827009486403,26.30589287593181,18.110770276274835,62.51399843235114,47.38143096192854,38.0,33.0,44.0,20.5,23.5,5.5,8.5,12.041594578792296,11.045361017187261,11.0,42.0,33.0,32.0624390837628
440,440,11.180339887498949,86.70063436907483,11.045361017187261,16.1245154965971,21.213203435596427,23.194827009486403,18.027756377319946,56.32051136131489,40.19950248448356,34.5,31.0,42.0,18.5,19.5,1.5,6.5,12.041594578792296,11.045361017187261,11.5,43.0,32.0,33.06055050963308
441,441,6.324555320336759,84.71717653463199,12.041594578792296,15.132745950421556,21.213203435596427,23.345235059857504,20.09975124224178,53.46026561849464,38.3275357934736,35.0,32.0,43.0,17.5,15.5,1.5,4.5,13.038404810405298,13.038404810405298,12.5,45.0,31.0,35.05709628591621
442,442,8.246211251235321,83.72574275573791,13.038404810405298,15.132745950421556,21.213203435596427,23.345235059857504,19.235384061671343,55.57877292636101,40.44749683231337,36.0,33.0,44.0,19.5,16.5,0.5,5.5,12.041594578792296,12.041594578792296,12.0,45.0,33.0,35.05709628591621
443,443,12.165525060596439,84.5931439302264,11.045361017187261,16.1245154965971,22.20360331117452,24.331050121192877,19.1049731745428,58.42088667591412,42.2965719651132,36.0,34.0,44.0,20.0,19.0,1.0,7.0,12.041594578792296,13.0,12.5,44.0,33.0,35.05709628591621
444,444,18.110770276274835,84.48076704197234,11.0,16.1245154965971,22.20360331117452,24.331050121192877,19.235384061671343,64.38167441127949,48.25971404805462,39.0,35.0,44.0,20.5,24.5,5.5,8.5,13.038404810405298,13.038404810405298,13.0,42.0,32.0,35.05709628591621
445,445,18.110770276274835,82.60750571225353,12.041594578792296,16.1245154965971,22.20360331117452,24.186773244895647,19.1049731745428,65.37583651472461,49.25444142409901,40.0,36.0,46.0,22.0,24.0,5.0,10.0,12.041594578792296,13.038404810405298,13.0,42.0,32.0,38.01315561749642
446,446,18.110770276274835,83.60023923410746,10.04987562112089,16.1245154965971,23.194827009486403,24.331050121192877,20.09975124224178,64.38167441127949,48.25971404805462,39.0,35.0,45.0,20.0,24.0,6.0,9.0,13.038404810405298,13.038404810405298,13.0,43.0,33.0,37.013511046643494
447,447,16.278820596099706,82.38931969618392,11.045361017187261,16.1245154965971,22.20360331117452,24.186773244895647,20.024984394500787,63.387695966961914,47.265209192385896,39.0,35.0,43.0,19.0,24.0,5.0,7.0,12.041594578792296,13.038404810405298,13.0,42.0,33.0,39.0
448,448,16.278820596099706,83.60023923410746,11.045361017187261,16.1245154965971,21.213203435596427,24.186773244895647,19.026297590440446,62.39390995922599,46.2709412050371,38.0,34.0,44.0,20.0,23.0,5.0,7.0,14.035668847618199,14.035668847618199,14.0,42.0,33.0,39.0
449,449,14.142135623730951,82.38931969618392,11.045361017187261,16.1245154965971,22.20360331117452,24.331050121192877,19.1049731745428,60.40695324215582,44.28317965096906,37.0,34.0,42.0,19.0,22.0,4.0,7.0,12.041594578792296,13.038404810405298,13.0,39.0,33.0,38.01315561749642
450,450,14.317821063276353,82.49242389456137,11.045361017187261,16.1245154965971,22.20360331117452,23.345235059857504,18.027756377319946,59.413803110051795,43.289721643826724,36.0,32.0,41.0,18.5,22.5,4.5,6.5,13.038404810405298,14.0,13.5,41.0,35.0,37.05401462729781
451,451,8.06225774829855,82.60750571225353,13.038404810405298,19.1049731745428,21.213203435596427,24.186773244895647,18.110770276274835,58.309518948453004,39.20459156782532,35.0,32.0,42.0,19.0,21.0,0.0,5.0,12.041594578792296,13.0,13.0,41.0,35.0,39.01281840626232
452,452,7.280109889280518,81.49846624323675,14.035668847618199,18.110770276274835,21.213203435596427,23.345235059857504,21.02379604162864,60.29925372672534,42.190046219457976,38.5,34.0,43.0,17.5,21.5,0.5,3.5,12.041594578792296,14.035668847618199,14.0,39.0,34.0,37.05401462729781
453,453,7.280109889280518,78.40918313565064,14.035668847618199,20.024984394500787,21.095023109728988,23.345235059857504,22.090722034374522,63.28506932918696,43.289721643826724,39.5,36.0,44.0,18.0,23.0,1.0,3.0,12.041594578792296,13.038404810405298,13.0,40.0,35.0,36.05551275463989
454,454,6.324555320336759,80.30566605165541,15.033296378372908,20.09975124224178,21.095023109728988,24.08318915758459,21.02379604162864,62.289646009589745,42.190046219457976,39.0,35.0,42.0,17.5,23.5,1.5,2.5,12.041594578792296,14.0,14.0,41.0,36.0,38.05259518088089
455,455,10.04987562112089,83.21658488546619,15.033296378372908,18.110770276274835,22.090722034374522,24.08318915758459,19.026297590440446,62.20128616033595,44.10215414239989,39.0,35.0,41.0,19.0,24.0,4.0,4.0,13.0,13.0,13.5,40.0,37.0,38.05259518088089
456,456,15.132745950421556,83.21658488546619,12.0,16.0312195418814,23.08679276123039,24.186773244895647,19.1049731745428,62.20128616033595,46.17358552246078,38.5,35.0,41.0,19.0,24.0,5.0,6.0,12.041594578792296,14.035668847618199,13.5,39.0,35.0,37.013511046643494
457,457,15.132745950421556,83.21658488546619,12.0,16.0312195418814,23.08679276123039,24.186773244895647,19.1049731745428,62.20128616033595,46.17358552246078,38.5,35.0,41.0,19.0,24.0,5.0,6.0,12.041594578792296,14.035668847618199,13.5,39.0,35.0,37.013511046643494
458,458,16.1245154965971,81.09870529176159,11.0,16.0312195418814,22.02271554554524,25.079872407968907,19.1049731745428,62.20128616033595,46.17358552246078,38.0,35.0,39.0,18.0,25.0,7.0,7.0,4.0,5.385164807134504,4.5,38.0,36.0,38.01315561749642
459,459,16.0312195418814,82.15229759416349,12.041594578792296,17.11724276862369,23.021728866442675,24.08318915758459,18.110770276274835,63.28506932918696,46.17358552246078,38.0,35.0,40.0,19.5,25.5,6.5,7.5,4.0,5.385164807134504,4.5,39.0,36.0,38.01315561749642
460,460,12.165525060596439,84.1486779456457,12.0,18.027756377319946,24.020824298928627,26.076809620810597,19.026297590440446,61.1310068623117,43.104524124504614,37.0,34.0,39.0,17.5,24.5,4.5,5.5,3.0,5.0990195135927845,4.5,39.0,36.0,40.0
461,461,16.1245154965971,88.20430828479978,12.041594578792296,16.1245154965971,24.08318915758459,27.16615541441225,19.0,63.198101237299845,47.095647357266465,39.0,33.0,39.0,17.0,27.0,9.0,4.0,5.0,6.082762530298219,5.5,38.0,36.0,41.012193308819754
462,462,17.11724276862369,92.13576938409967,12.041594578792296,15.132745950421556,25.019992006393608,28.071337695236398,20.024984394500787,64.28063471995279,49.16299421312742,40.5,34.0,39.0,16.5,27.5,10.5,4.5,6.082762530298219,7.0710678118654755,7.0,38.0,35.0,40.01249804748511
463,463,17.11724276862369,92.13576938409967,11.045361017187261,15.132745950421556,26.019223662515376,28.071337695236398,21.02379604162864,64.28063471995279,49.16299421312742,40.5,34.0,39.0,15.5,27.5,10.5,4.5,6.082762530298219,7.0710678118654755,6.5,38.0,36.0,40.01249804748511
464,464,16.0312195418814,93.08598175880189,12.041594578792296,16.1245154965971,26.019223662515376,28.0178514522438,20.0,64.1248781675256,48.041648597857254,40.0,34.0,38.0,16.0,28.0,10.0,4.0,7.0,8.06225774829855,8.0,36.0,34.0,37.013511046643494
465,465,24.020824298928627,97.082439194738,12.041594578792296,16.0312195418814,27.073972741361768,30.066592756745816,21.02379604162864,73.10950690573696,57.07889277132134,45.0,37.0,41.0,18.0,34.0,16.0,6.0,11.0,12.0,11.5,37.0,36.0,38.118237105091836
466,466,27.018512172212592,95.25754563287887,12.041594578792296,17.11724276862369,27.073972741361768,30.066592756745816,22.02271554554524,78.16009211867653,61.07372593840988,47.5,37.0,44.0,18.5,37.5,18.5,5.5,10.04987562112089,11.0,11.5,38.0,37.0,38.05259518088089
467,467,30.066592756745816,98.2496819333274,12.041594578792296,16.0312195418814,28.071337695236398,30.14962686336267,21.0,79.1012010022604,63.071388124885914,48.0,37.0,44.0,19.5,38.5,20.5,6.5,10.04987562112089,11.0,11.5,38.0,36.0,36.05551275463989
468,468,26.019223662515376,95.13148795220224,12.0,15.033296378372908,26.019223662515376,30.14962686336267,22.090722034374522,75.1065909225016,60.07495318350236,47.0,38.0,43.0,18.5,34.5,17.5,6.5,11.045361017187261,12.0,12.0,37.0,35.0,38.05259518088089
469,469,22.02271554554524,95.1892851112981,12.041594578792296,16.0312195418814,27.073972741361768,29.154759474226502,22.02271554554524,72.11102550927978,56.08029957123981,45.0,36.0,42.0,17.0,33.0,15.0,5.0,11.0,12.0,12.5,36.0,35.0,39.05124837953327
470,470,20.024984394500787,95.13148795220224,11.045361017187261,16.0312195418814,26.019223662515376,28.071337695236398,22.0,69.06518659932803,53.03772242470448,43.0,35.0,40.0,15.5,31.5,13.5,4.5,12.041594578792296,12.0,12.5,38.0,36.0,39.0
471,471,18.027756377319946,95.13148795220224,12.041594578792296,15.033296378372908,26.019223662515376,28.071337695236398,21.0,66.06814663663572,51.03920062069938,42.0,34.0,39.0,15.5,29.5,12.5,3.5,12.041594578792296,13.0,13.0,38.0,35.0,39.01281840626232
472,472,19.026297590440446,94.08506789071261,11.0,15.132745950421556,27.018512172212592,29.068883707497267,21.02379604162864,66.12110101926616,51.03920062069938,41.5,34.0,38.0,15.0,30.0,13.0,4.0,12.041594578792296,13.0,12.5,37.0,35.0,38.01315561749642
473,473,22.02271554554524,94.08506789071261,11.045361017187261,16.0312195418814,25.019992006393608,28.071337695236398,22.02271554554524,71.11258679024411,55.08175741568164,44.0,36.0,40.0,16.0,33.0,16.0,5.0,12.041594578792296,13.038404810405298,13.0,38.0,36.0,37.013511046643494
474,474,25.079872407968907,93.13431161500041,11.0,16.0312195418814,26.076809620810597,29.068883707497267,22.02271554554524,74.10802925459562,58.077534382926416,45.5,38.0,43.0,18.5,33.5,15.5,6.5,11.0,13.0,13.0,37.0,35.0,40.01249804748511
475,475,28.0178514522438,91.08786966440702,12.0,17.11724276862369,26.019223662515376,29.068883707497267,22.0,79.05694150420949,62.00806399170998,48.0,42.0,46.0,22.0,35.0,16.0,10.0,11.045361017187261,13.0,13.0,35.0,35.0,39.05124837953327
476,476,21.02379604162864,89.20201791439474,16.0,24.0,25.079872407968907,28.160255680657446,21.0,82.00609733428362,58.008620049092706,47.5,45.0,51.0,27.0,34.0,8.0,10.0,12.0,14.0,14.0,35.0,36.0,36.05551275463989
477,477,23.021728866442675,88.14193099768123,16.0,22.02271554554524,25.019992006393608,28.071337695236398,22.0,83.02409288875127,61.00819617067857,49.5,48.0,53.0,28.5,32.5,8.5,12.5,12.041594578792296,13.038404810405298,13.0,34.0,36.0,38.05259518088089
478,478,16.1245154965971,88.09086218218096,16.0,21.0,25.079872407968907,27.073972741361768,23.0,76.02631123499285,55.036351623268054,47.0,46.0,50.0,25.0,28.0,5.0,8.0,13.0,13.0,13.0,34.0,36.0,38.118237105091836
479,479,12.041594578792296,89.02246907382428,14.0,17.0,24.0,25.019992006393608,26.0,69.00724599634447,52.009614495783374,46.0,45.0,47.0,20.0,23.0,4.0,6.0,13.038404810405298,14.035668847618199,13.5,34.0,37.0,39.20459156782532
480,480,1.4142135623730951,91.0,14.0,13.0,23.0,24.08318915758459,27.073972741361768,55.00909015790027,42.01190307520001,41.5,44.0,44.0,17.0,11.0,3.0,4.0,13.038404810405298,14.035668847618199,14.0,32.0,36.0,37.21558813185679
481,481,1.4142135623730951,92.0,15.0,14.0,23.0,24.020824298928627,25.019992006393608,53.0,39.0,39.5,43.0,43.0,18.0,10.0,5.0,4.0,12.0,14.035668847618199,14.0,33.0,39.0,36.22154055254967
482,482,2.0,91.0,15.033296378372908,15.0,23.021728866442675,24.0,24.020824298928627,54.0,39.0,39.0,42.0,42.0,18.0,12.0,4.0,3.0,13.0,14.035668847618199,14.0,33.0,39.0,38.2099463490856
483,483,10.04987562112089,86.02325267042627,15.0,19.026297590440446,22.02271554554524,24.0,20.024984394500787,64.00781202322104,45.0,40.0,46.0,44.0,25.0,19.0,0.0,11.0,12.041594578792296,14.035668847618199,13.5,34.0,39.0,38.2099463490856
484,484,22.02271554554524,83.05419917138447,13.0,16.0312195418814,21.0,25.0,17.029386365926403,68.00735254367721,52.0,41.0,46.0,43.0,27.5,23.5,6.5,14.5,13.038404810405298,15.033296378372908,14.5,33.0,40.0,37.21558813185679
485,485,22.090722034374522,83.05419917138447,13.038404810405298,16.0,22.02271554554524,24.0,17.0,68.00735254367721,52.009614495783374,41.0,46.0,43.0,27.5,23.5,6.5,15.5,12.041594578792296,12.041594578792296,12.5,32.0,39.0,39.20459156782532
486,486,22.090722034374522,80.05623023850174,14.035668847618199,17.0,21.02379604162864,24.0,16.0312195418814,69.0,52.0,41.0,46.0,43.0,28.5,24.5,6.5,15.5,13.038404810405298,14.035668847618199,14.0,31.0,39.0,39.20459156782532
487,487,15.033296378372908,74.10802925459562,14.035668847618199,20.0,20.0,23.0,18.110770276274835,67.02984409947557,47.042533945356304,39.5,49.0,45.0,29.0,20.0,1.0,15.0,13.038404810405298,13.038404810405298,13.0,31.0,38.0,40.19950248448356
488,488,20.024984394500787,76.02631123499285,13.038404810405298,18.0,20.0,23.0,18.110770276274835,69.02897942168927,51.03920062069938,41.0,47.0,45.0,28.0,23.0,4.0,15.0,13.152946437965905,14.035668847618199,14.0,31.0,39.0,39.20459156782532
489,489,22.0,82.02438661763951,15.0,22.0,24.0,28.0,19.1049731745428,78.02563681252464,56.0357029044876,45.0,50.0,48.0,30.0,29.0,6.0,15.0,14.035668847618199,15.132745950421556,15.0,32.0,39.0,38.3275357934736
490,490,25.019992006393608,85.0235261559999,15.0,21.0,24.0,28.0178514522438,18.24828759089466,79.02531240052139,58.034472514187634,45.5,51.0,49.0,32.0,29.0,7.0,17.0,14.035668847618199,16.1245154965971,15.5,32.0,39.0,37.21558813185679
491,491,25.019992006393608,85.0235261559999,15.0,21.0,24.0,28.0178514522438,18.24828759089466,79.02531240052139,58.034472514187634,45.5,51.0,49.0,32.0,29.0,7.0,17.0,14.035668847618199,16.1245154965971,15.5,32.0,39.0,37.21558813185679
492,492,12.041594578792296,84.0535543567314,12.0,14.0,22.02271554554524,24.0,17.11724276862369,55.00909015790027,41.012193308819754,35.0,43.0,40.0,24.5,13.5,0.5,12.5,13.038404810405298,14.035668847618199,14.0,32.0,40.0,37.21558813185679
493,493,11.045361017187261,86.05230967266364,12.0,13.0,23.021728866442675,24.0,18.110770276274835,54.00925846556311,41.012193308819754,35.5,43.0,40.0,23.5,12.5,0.5,12.5,13.038404810405298,13.038404810405298,13.0,31.0,40.0,37.21558813185679
494,494,7.0710678118654755,84.0535543567314,12.0,15.033296378372908,21.0,22.0,17.0,51.0,36.013886210738214,32.5,41.0,38.0,22.5,11.5,3.5,10.5,11.045361017187261,13.038404810405298,12.5,29.0,39.0,37.48332962798263
495,495,7.0710678118654755,82.05485969764375,13.0,15.0,22.0,24.0,16.0312195418814,51.0,36.0,32.5,40.0,37.0,22.5,12.5,2.5,9.5,13.038404810405298,13.038404810405298,13.5,31.0,41.0,36.49657518178932
496,496,7.0710678118654755,85.00588214941364,14.0,15.0,22.02271554554524,24.0,16.0,52.009614495783374,37.013511046643494,33.5,39.0,38.0,22.5,13.5,2.5,9.5,13.152946437965905,15.033296378372908,14.5,29.0,41.0,35.6931365951495
497,497,11.045361017187261,81.02468759581859,14.035668847618199,16.0,21.0,23.0,15.0,56.0,40.0,34.5,40.0,38.0,24.0,17.0,0.0,11.0,12.165525060596439,14.035668847618199,14.0,31.0,43.0,36.6742416417845
498,498,14.035668847618199,79.0,12.0,16.0,22.0,24.020824298928627,16.0312195418814,58.0,42.0,35.0,40.0,40.0,24.0,18.0,1.0,12.0,13.152946437965905,14.035668847618199,13.5,30.0,42.0,36.49657518178932
499,499,16.1245154965971,82.0,13.038404810405298,17.0,21.02379604162864,23.08679276123039,16.0312195418814,62.0,45.0,37.0,40.0,40.0,24.0,22.0,4.0,11.0,10.04987562112089,11.045361017187261,11.5,31.0,42.0,36.6742416417845
500,500,16.1245154965971,82.0,13.038404810405298,17.0,21.02379604162864,23.08679276123039,16.0312195418814,62.0,45.0,37.0,40.0,40.0,24.0,22.0,4.0,11.0,10.04987562112089,11.045361017187261,11.5,31.0,42.0,36.6742416417845
501,501,16.0312195418814,83.00602387778854,14.0,18.027756377319946,22.02271554554524,25.0,15.033296378372908,63.00793600809346,45.044422518220834,37.0,40.0,41.0,25.5,22.5,3.5,11.5,12.041594578792296,13.0,13.0,35.0,44.0,35.35533905932738
502,502,16.0312195418814,83.00602387778854,14.0,18.027756377319946,22.02271554554524,25.0,15.033296378372908,63.00793600809346,45.044422518220834,37.0,40.0,41.0,25.5,22.5,3.5,11.5,12.041594578792296,13.0,13.0,35.0,44.0,35.35533905932738
503,503,17.11724276862369,85.05292469985967,12.0,17.029386365926403,24.020824298928627,26.019223662515376,17.0,63.071388124885914,46.04345773288535,37.5,39.0,42.0,23.5,22.5,3.5,11.5,12.041594578792296,14.0,13.5,34.0,40.0,36.345563690772494
504,504,21.095023109728988,86.00581375697809,12.0,17.0,24.020824298928627,27.018512172212592,17.0,67.02984409947557,50.039984012787215,39.5,41.0,42.0,24.5,25.5,7.5,12.5,12.0,13.038404810405298,13.0,34.0,39.0,37.21558813185679
505,505,19.026297590440446,87.02298546935747,11.0,18.027756377319946,24.0,26.019223662515376,18.0,66.03029607687671,48.010415536631214,38.5,41.0,43.0,24.0,24.0,5.0,13.0,13.038404810405298,14.035668847618199,13.5,33.0,38.0,37.12142238654117
506,506,20.09975124224178,89.05054744357274,11.045361017187261,15.033296378372908,25.019992006393608,27.018512172212592,19.0,65.12296062065974,50.08991914547278,40.0,40.0,43.0,22.5,23.5,6.5,11.5,13.0,13.038404810405298,13.0,34.0,38.0,38.118237105091836
507,507,20.024984394500787,88.05112151472007,11.045361017187261,15.033296378372908,25.019992006393608,28.071337695236398,19.0,65.06919393998976,50.039984012787215,40.0,39.0,42.0,21.5,24.5,7.5,10.5,13.0,14.0,13.5,35.0,38.0,38.118237105091836
508,508,16.278820596099706,86.09297300012354,12.0,16.0312195418814,23.021728866442675,26.076809620810597,18.0,62.12889826803627,46.09772228646444,38.0,36.0,40.0,20.0,24.0,6.0,8.0,12.0,14.0,13.5,34.0,38.0,39.11521443121589
509,509,12.165525060596439,85.09406559801923,13.038404810405298,17.029386365926403,23.021728866442675,26.076809620810597,19.0,61.1310068623117,44.10215414239989,38.0,37.0,41.0,20.0,22.0,3.0,7.0,12.0,14.0,13.5,34.0,38.0,38.118237105091836
510,510,7.280109889280518,79.1580697086532,15.0,18.027756377319946,20.024984394500787,23.08679276123039,21.0,61.07372593840988,43.04648650006177,39.5,39.0,44.0,20.5,19.5,0.5,5.5,12.0,14.0,14.0,34.0,38.0,39.11521443121589
511,511,7.280109889280518,79.1580697086532,15.0,18.027756377319946,20.024984394500787,23.08679276123039,21.0,61.07372593840988,43.04648650006177,39.5,39.0,44.0,20.5,19.5,0.5,5.5,12.0,14.0,14.0,34.0,38.0,39.11521443121589
512,512,6.082762530298219,79.02531240052139,16.0,19.0,21.02379604162864,22.090722034374522,21.02379604162864,62.03224967708329,43.04648650006177,40.0,41.0,43.0,21.0,20.0,0.0,5.0,13.0,14.0,13.5,34.0,39.0,39.11521443121589
513,513,6.082762530298219,78.02563681252464,15.0,20.024984394500787,21.02379604162864,23.021728866442675,22.02271554554524,63.071388124885914,43.04648650006177,40.0,42.0,44.0,21.0,20.0,1.0,6.0,13.0,14.0,14.0,34.0,39.0,39.20459156782532
514,514,8.06225774829855,78.05767098754612,15.0,19.026297590440446,21.0,23.021728866442675,21.0,63.0317380372777,44.01136216933077,40.0,41.0,44.0,21.5,20.5,0.5,6.5,13.038404810405298,14.035668847618199,13.5,34.0,39.0,38.2099463490856
515,515,12.041594578792296,85.0,15.033296378372908,19.026297590440446,22.0,25.019992006393608,20.0,66.06814663663572,47.042533945356304,41.0,44.0,44.0,24.0,22.0,1.0,9.0,12.041594578792296,13.038404810405298,13.0,33.0,39.0,38.2099463490856
516,516,10.04987562112089,83.00602387778854,16.0,22.02271554554524,23.0,26.019223662515376,21.02379604162864,69.00724599634447,47.0,42.0,47.0,48.0,26.5,21.5,1.5,10.5,12.041594578792296,13.038404810405298,13.5,32.0,39.0,39.11521443121589
517,517,15.033296378372908,86.00581375697809,15.0,20.024984394500787,23.021728866442675,26.019223662515376,21.02379604162864,71.00704190430693,51.0,43.5,47.0,48.0,26.5,23.5,2.5,11.5,12.041594578792296,14.0,14.0,31.0,39.0,40.19950248448356
518,518,15.033296378372908,86.00581375697809,15.0,20.024984394500787,23.021728866442675,26.019223662515376,21.02379604162864,71.00704190430693,51.0,43.5,47.0,48.0,26.5,23.5,2.5,11.5,12.041594578792296,14.0,14.0,31.0,39.0,40.19950248448356
519,519,6.082762530298219,92.0,15.0,17.0,23.0,25.019992006393608,25.019992006393608,63.0,46.0,43.0,46.0,46.0,21.0,17.0,1.0,6.0,13.0,15.132745950421556,14.5,33.0,39.0,40.311288741492746
520,520,1.4142135623730951,95.00526301210897,15.0,15.0,23.0,25.0,24.020824298928627,55.0,40.0,39.5,44.0,43.0,19.5,11.5,3.5,4.5,13.038404810405298,15.033296378372908,14.5,33.0,39.0,40.19950248448356
521,521,1.4142135623730951,95.00526301210897,15.0,15.0,23.0,25.0,24.020824298928627,55.0,40.0,39.5,44.0,43.0,19.5,11.5,3.5,4.5,13.038404810405298,15.033296378372908,14.5,33.0,39.0,40.19950248448356
522,522,1.4142135623730951,95.00526301210897,15.0,15.0,23.0,25.0,24.020824298928627,55.0,40.0,39.5,44.0,43.0,19.5,11.5,3.5,4.5,13.038404810405298,15.033296378372908,14.5,33.0,39.0,40.19950248448356
