,video_id,frame_seq,time_seconds,m1,m3,m4,m5,m6,m7,m8,m9,m10,m11,m12,m13,m14,m15,m16,m17,e1,e2,e3,b1,b2,b3,label_measures
0,216,0,0.0,26.88466789833059,166.68282571878532,20.99339861404061,38.70991436636377,44.92783499107725,47.59532662763793,39.04997871155998,125.57492289652087,86.91368443005722,72.73841514868786,62.347212984589646,74.22287260070198,29.689149040280768,56.40938317653365,17.81348942416855,5.937829808056108,23.93615718903944,23.93615718903947,25.235776684238655,86.09853221681442,62.34721298458976,77.70393915073844,"{'others': ['m1', 'm3', 'm12', 'e1', 'e2']}"
1,216,1,0.0333666666666666,24.13238583608732,168.2890388063703,23.94603257746769,39.37011048665225,42.01232293395165,47.98551317580334,36.41450742788016,123.63262643306052,84.2907999898553,71.83809773240296,62.85833551585267,77.82460587676997,34.42242183010978,52.38194626321047,10.476389252642091,10.476389252642091,24.683005407845226,24.132385836087177,23.946032577467577,86.80436809332025,62.85833551585256,78.34095614262313,"{'others': ['m1', 'm3', 'm12', 'e1', 'e2']}"
2,216,2,0.0667333333333332,21.023533249105444,164.19904374523858,23.785412679909317,42.047066498211066,41.73052197239348,47.66364657073447,33.24112476572667,119.85257979692352,77.81547801552416,66.89647316224489,62.43670828476195,77.30259120970527,37.16470731235836,49.057413652313016,7.432941462471604,10.406118047460382,23.970515959384663,23.97051595938469,23.785412679909317,86.22212096467126,62.43670828476195,74.86267353964041,"{'others': ['m1', 'm3', 'm12', 'e1', 'e2']}"
3,216,3,0.1000999999999998,21.0369034863096,155.1605335486489,23.800539376538268,38.7901333871623,38.79013338716228,41.75706113547365,33.2622649669376,116.6363031688911,77.86496595776934,66.93901699651406,62.47641586341308,74.37668555168227,35.70080906480746,47.60107875307665,5.950134844134595,11.90026968826919,24.533034449034872,24.533034449034982,23.800539376538268,86.27695523995146,62.47641586341308,74.91028360076085,"{'others': ['m1', 'm3', 'm12', 'e1', 'e2']}"
4,216,4,0.1334666666666664,17.97375682810043,154.1070303640942,26.593806785512243,38.5267575910236,38.52675759102349,44.323011309187,29.69605005405762,112.63433695301728,74.10769789142488,65.00708325347432,62.05221583286186,73.8716855153117,38.41327646796208,44.32301130918711,2.9548674206124588,11.819469682449837,23.822902757027844,23.638939364899784,23.638939364899898,85.69115519776165,65.00708325347432,77.33628132562963,"{'others': ['m1', 'm3', 'm12', 'e1', 'e2']}"
5,216,5,0.166833333333333,20.69480327406302,153.98845413676077,23.835262577975488,38.54674607984784,38.54674607984771,41.49505794590763,32.65451047738499,115.64023823954338,77.09349215969554,66.519010523774,65.04081028991232,73.9100116930822,36.9550058465411,45.82420724971098,4.434600701584941,13.303802104754824,15.074743674915853,17.983081989623248,17.738402806339764,85.73561356397533,67.99721075763568,74.14614651735943,"{'others': ['m1', 'm3', 'm12', 'e1', 'e2']}"
6,216,6,0.2001999999999996,23.50877165152861,151.87914936662168,20.618556701030933,37.90675528010354,38.01874003007383,40.82265953241927,34.990851027787926,116.7818742969591,78.94511224361504,67.06579780326012,67.06579780326012,75.81351056020708,36.44880315394562,45.1965159108928,4.373856378473533,13.121569135420373,9.220898876287752,9.220898876287752,7.28976063078926,84.56122331715414,69.98170205557585,73.13050660193069,"{'others': ['m1', 'm3', 'm12', 'e1', 'e2']}"
7,216,7,0.2335666666666662,26.404636030650863,151.73912983896147,20.411329766209636,34.990851027787926,35.11213683696177,40.92666647686437,35.11213683696165,116.7818742969591,81.85333295372864,68.52374992941793,67.06579780326012,72.89760630789146,34.99085102778781,46.654468037050606,11.66361700926268,11.663617009262566,4.123711340206119,8.247422680412399,5.83180850463134,87.47712756946976,72.89760630789146,73.13050660193069,"{'others': ['m1', 'm3', 'm12', 'e1', 'e2']}"
8,216,8,0.2669333333333328,14.588827339926866,149.0632664384432,23.523777251983045,40.95278988365851,38.043007313415096,40.9527898836584,35.13454884148013,114.12902194024504,73.17718565345096,65.64972302967101,64.1908402956783,72.94413669963444,33.55430288183186,45.225364753773306,1.4588827339925956,7.294413669963433,5.835530935970724,6.5243219288168826,7.294413669963546,84.61519857157589,70.02637123164902,73.00246868552534,"{'others': ['m1', 'm3', 'm12', 'e1', 'e2']}"
9,216,9,0.3002999999999994,5.876636676103317,149.96941914329835,23.6894797879247,38.198138394671446,38.310983953354615,38.310983953354615,44.17261042993859,111.81063823043829,73.69264901233072,70.51964011323969,67.58132177518803,73.45795845129135,26.44486504246493,41.136456732723104,0.0,2.9383183380516584,12.11499686947622,9.291778438883838,8.814955014154975,85.21123180349798,70.51964011323969,73.51670133029202,"{'others': ['m1', 'm3', 'm12', 'e1', 'e2']}"
10,216,10,0.333666666666666,8.75539302982645,146.03990907939533,23.347714746203906,32.23549228726619,37.94003646258125,40.85850080585692,43.87413944217402,108.14082046497728,75.93617649876111,71.50237641024955,67.12467989533639,72.96160858188739,26.26617908947935,37.94003646258148,2.9184643432755597,2.9184643432754456,14.881306636086473,14.881306636086473,14.592321716377455,87.55393029826485,75.88007292516284,73.1947133565563,"{'others': ['m1', 'm3', 'm12', 'e1', 'e2']}"
11,216,11,0.3670333333333326,4.157653749630291,150.05040927672965,23.519241281514155,32.338956762082034,35.401146039098656,41.1586722426498,47.130265055304285,105.999788000636,73.73244630907635,72.0276764246372,64.67791352416407,70.55772384454258,20.5793361213249,38.21876708246055,2.939905160189255,2.939905160189255,17.639430961135645,17.8827449510297,17.639430961135645,85.25724964548897,73.49762900473183,76.49404990954778,"{'others': ['m1', 'm3', 'm12', 'e1', 'e2']}"
12,216,12,0.4003999999999992,4.15664345238301,147.0770592491505,23.513526177237168,32.33109849370112,38.3223591023601,41.14867081016519,50.05261526218716,108.9088178638372,76.64471820472018,74.94936468994365,67.60138775955704,73.4797693038663,20.574335405082596,38.20948003801038,2.939190772154575,2.939190772154575,20.783217261914828,20.574335405082596,19.10474001900525,85.23653239248483,76.41896007602088,76.4754620874932,"{'others': ['m1', 'm3', 'm12', 'e1', 'e2']}"
13,216,13,0.4337666666666658,2.919008260275973,148.89803625199954,23.533796963757645,32.10909086303593,38.059211342395386,37.94710738358776,46.7041321644158,105.12483133378448,73.03356333870221,71.51570237676185,67.13718998634783,70.05619824662381,21.89256195206997,36.48760325344995,4.378512390414016,1.4595041301380434,20.433057821931925,20.433057821931925,20.433057821931925,84.6512395480039,75.89421476717587,75.95032879685112,"{'others': ['m1', 'm3', 'm12', 'e1', 'e2']}"
14,216,14,0.4671333333333324,2.9404611556045666,149.99234421605027,23.706755735344142,32.47845502066855,35.28553386725525,38.225995022859934,49.98783964527832,108.95589067077412,76.50851647861467,74.98175946791753,70.5710677345105,73.51152889011519,22.053458667034533,36.75576444505759,4.410691733406907,1.47023057780234,20.792200229436418,20.583228089232197,20.583228089232197,85.27337351253345,79.39245120132432,76.45199004571964,"{'others': ['m1', 'm3', 'm12', 'e1', 'e2']}"
15,216,15,0.5004999999999991,17.63073285138399,142.02525668472208,20.28932238353184,34.78169551462577,34.78169551462588,40.57864476706345,43.47711939328224,115.97521032226568,81.20903151549682,72.46186565547055,72.46186565547055,72.46186565547055,28.98474626218831,43.47711939328224,8.69542387865647,8.69542387865647,20.49531063296469,23.18779700975051,21.73855969664112,81.15728953412702,81.15728953412702,75.36034028168933,"{'others': ['m1', 'm3', 'm12', 'e1', 'e2']}"
16,216,16,0.5338666666666656,28.98246366919136,142.04364284286194,17.38947820151475,31.88071003611037,34.7789564030295,40.57544913686775,40.57544913686775,118.82810104368424,86.94739100757386,72.45615917297812,75.35440553989736,72.45615917297823,33.329833219570105,44.92281868724638,13.042108651136004,15.940355018055357,20.493696595978008,20.287724568433877,20.287724568433877,78.25265190681648,81.1508982737356,72.45615917297823,"{'others': ['m1', 'm3', 'm12', 'e1', 'e2']}"
17,216,17,0.5672333333333321,28.9847462621882,147.85061962429154,20.28932238353184,31.88322088840698,37.680170140844666,43.57362810114109,37.680170140844666,118.83745967497168,86.9542387865647,72.46186565547055,75.36034028168945,72.46186565547055,36.23093282773539,44.92635670639163,13.043135817984648,15.941610444203548,20.49531063296469,23.368249513479373,21.73855969664112,78.25881490790812,81.15728953412702,75.36034028168933,"{'others': ['m1', 'm3', 'm12', 'e1', 'e2']}"
18,216,18,0.6005999999999987,25.89325055320535,146.8412010785648,17.26216703547027,31.647306231695552,37.401361910185415,40.27838974943052,37.511853618882505,112.24096464222816,80.6081386239375,67.61015422225853,74.80272382037106,69.04866814188108,34.52433407094054,40.27838974943063,8.631083517735078,17.26216703547027,23.01622271396036,26.052595137507247,24.45473663358291,77.67975165961616,86.31083517735124,77.73301169443668,"{'others': ['m1', 'm3', 'm12', 'e1', 'e2']}"
19,216,19,0.6339666666666652,25.7083839566136,145.7928184883966,19.995409744032717,31.421358169194377,39.99081948806565,42.94241726986442,34.396659653496535,111.43961275753696,80.03263141929405,67.12744699782434,71.41217765725992,65.69920344467914,34.277845275484765,42.84730659435593,8.569461318871163,14.282435531452052,20.198414032298828,22.85189685032321,22.85189685032321,74.2686647635503,82.83812608242147,77.33645405175753,"{'others': ['m1', 'm3', 'm12', 'e1', 'e2']}"
20,216,20,0.6673333333333318,25.861975211245564,145.7668029706597,19.99184172921389,31.41575128876468,37.12770606854019,39.98368345842778,34.27172867865238,111.41972728407984,80.0183502608405,67.11546866236085,71.39943474719246,65.68747996741706,34.27172867865238,42.83966084831548,8.567932169663095,14.279886949438492,22.847819119101587,22.847819119101587,24.275807814045493,74.25541213708016,85.67932169663095,74.47477867744107,"{'others': ['m1', 'm3', 'm12', 'e1', 'e2']}"
21,216,21,0.7006999999999983,22.847819119101587,145.68284397187068,19.99184172921389,34.27172867865238,37.127706068539965,42.83966084831536,34.39052185522507,111.4197272840798,77.16425987224473,65.68747996741706,68.54345735730476,65.68747996741706,32.84373998370859,44.26764954325927,9.995920864606887,12.8518982544947,23.025625840587576,25.703796508989285,24.275807814045493,77.11138952696786,88.53529908651865,77.32265400376495,"{'others': ['m1', 'm3', 'm12', 'e1', 'e2']}"
22,216,22,0.7340666666666649,23.02973530560458,145.7088445051478,19.995409744032827,34.277845275484765,39.99081948806565,42.84730659435604,34.277845275484765,111.43961275753696,77.17803165107539,65.69920344467914,68.55569055096953,65.69920344467914,32.84960172233957,44.27555014750112,9.997704872016357,12.854191978306744,23.02973530560469,22.85189685032321,24.28014040346841,77.12515186984069,88.55110029500224,71.64033216077145,"{'others': ['m1', 'm3', 'm12', 'e1', 'e2']}"
23,216,23,0.7674333333333314,22.847819119101587,145.7668029706597,22.847819119101587,37.12770606854008,39.98368345842778,42.83966084831536,31.545301328233798,114.27478973654316,77.16425987224473,65.68747996741706,71.39943474719246,65.68747996741706,37.12770606854008,45.69563823820317,8.567932169663095,14.279886949438492,22.847819119101587,22.847819119101587,24.27580781404538,77.11138952696786,85.67932169663095,77.32265400376518,"{'others': ['m1', 'm3', 'm12', 'e1', 'e2']}"
24,216,24,0.800799999999998,25.70838395661349,145.7088445051478,19.995409744032827,34.277845275484765,37.13433238177527,42.94241726986442,31.421358169194377,111.40299714532546,77.12515186984069,64.27095989153395,68.55569055096953,65.69920344467914,35.70608882862996,44.27555014750112,9.997704872016357,15.710679084597132,20.198414032298828,23.02973530560469,22.85189685032321,77.12515186984069,85.69461318871186,77.17803165107539,"{'others': ['m1', 'm3', 'm12', 'e1', 'e2']}"
25,216,25,0.8341666666666645,34.28221627884034,148.66610883431224,17.141108139420226,34.28221627884034,37.13906763541036,42.85277034855039,34.40104580768907,120.02176229247374,85.75314166755615,68.56443255768079,71.4212839142507,65.70758120111066,34.28221627884034,51.42332441826056,17.141108139420226,17.141108139420112,23.03267198524384,22.85481085256015,22.85481085256015,74.27813527082083,85.7055406971009,77.18787315168944,"{'others': ['m1', 'm3', 'm12', 'e1', 'e2']}"
26,216,26,0.867533333333331,34.40367830574594,145.7385764535276,19.99948981544071,34.28483968361252,37.14190965724697,42.85604960451565,34.28483968361252,122.88722611951911,88.61523897469277,71.42674934085949,68.56967936722515,65.7126093935907,32.856304696795405,55.71286448587034,21.428024802257823,12.856814881354694,19.99948981544071,25.871868977867404,24.28509477589216,74.28381931449383,82.85502923539707,77.35223458634029,"{'others': ['m1', 'm3', 'm12', 'e1', 'e2']}"
27,216,27,0.9008999999999976,37.141909657246856,145.7385764535276,20.202535526813435,34.28483968361263,37.14190965724697,40.1008880244053,34.28483968361252,125.74354135274302,91.47086998109955,72.8552843276766,71.42674934085949,68.56967936722515,35.71337467042986,55.71286448587034,21.42802480225771,15.713884854989146,22.85655978907505,25.871868977867404,25.713629762709388,77.14088928812816,85.71209920903141,74.50326977579813,"{'others': ['m1', 'm3', 'm12', 'e1', 'e2']}"
28,216,28,0.934266666666664,39.995918991980375,148.58373772696288,19.997959495990244,31.42536492227032,39.99591899198049,42.85277034855039,34.28221627884034,125.70145968908128,94.27609476681096,74.27813527082083,71.4212839142507,68.56443255768068,35.71064195712529,55.70860145311565,21.42638517427531,15.712682461135046,23.03267198524387,22.85481085256015,22.85481085256015,74.27813527082083,82.84868934053088,77.18787315168944,"{'others': ['m1', 'm3', 'm12', 'e1', 'e2']}"
29,216,29,0.9676333333333308,37.24878447011555,154.2964233146854,19.997959495990244,31.42536492227032,37.13906763541036,42.85277034855039,34.28221627884034,122.87782304403684,91.46387081998236,72.84970959253576,68.56443255768068,65.70758120111066,32.853790600555385,55.708601453115534,21.4263851742752,12.85583110456514,23.03267198524387,22.85481085256015,22.85481085256015,74.27813527082083,79.99183798396086,77.18787315168944,"{'others': ['m1', 'm3', 'm12', 'e1', 'e2']}"
30,216,30,1.0009999999999972,34.28221627884034,151.4400709278631,19.997959495990244,31.42536492227032,39.99591899198049,45.798811295695664,34.28221627884034,119.98775697594124,88.56239205367092,71.4212839142507,68.56443255768068,65.70758120111066,32.853790600555385,52.85175009654552,18.569533817705175,12.85583110456514,20.200989670726493,23.03267198524384,22.85481085256015,74.27813527082083,79.99183798396086,77.18787315168944,"{'others': ['m1', 'm3', 'm12', 'e1', 'e2']}"
