,video_id,frame_seq,time_seconds,m1,m3,m4,m5,m6,m7,m8,m9,m10,m11,m12,m13,m14,m15,m16,m17,e1,e2,e3,b1,b2,b3
0,232,0,0.0,16.086715907017606,126.13462536045276,16.086715907017606,25.939049993206044,29.134281629169198,35.39077499543873,54.7893801078994,112.79070969529921,86.92782590893621,78.82490794438627,80.43357953508803,93.30295226070211,32.17343181403521,25.73874545122817,3.217343181403521,16.086715907017606,12.869372725614085,16.405295663901246,14.478044316315845,54.6948340838598,32.1734318140351,48.68723699950055
1,232,1,0.0333666666666666,9.819914658493076,131.9511384051102,16.690645488490688,29.6410364187653,32.89630697595901,36.15483418700813,59.01034303646205,114.98575433152456,85.35734834737704,80.1959697110268,81.83262215410889,98.19914658493065,31.096396418561312,24.549786646232747,8.183262215410878,14.729871987739557,16.36652443082187,16.690645488490713,16.36652443082187,52.37287817862966,29.459743975479114,42.67867417368835
2,232,2,0.0667333333333332,26.643548615796135,135.242256479284,16.981996787912724,20.258297399292797,33.963993575825405,37.235491166712755,60.04042543410649,123.63080275541373,103.45839509064207,89.92197657831173,83.2610894243627,106.57419446318431,34.96965755823226,28.308770404283337,4.995665365461832,14.986996096385269,13.321774307897954,13.731770648025861,13.321774307898067,53.2870972315921,29.973992192770538,43.423671554807626
3,232,3,0.1000999999999998,40.323322778701026,139.76489988780907,17.13411747512484,20.439766407950323,33.77036487968845,37.56903783826711,60.4849841680516,137.9351713783534,117.65768560083805,97.44803004852758,90.72747625207751,114.24941453965312,42.00346122781377,35.282907431363355,11.760969143787747,25.20207673668824,13.441107592900266,13.854776582705048,13.44110759290038,50.40415347337631,26.88221518580076,40.46309208090806
4,232,4,0.1334666666666664,47.571705905475326,147.6602897590967,16.946718543287716,23.96627920163708,41.23314582664841,41.23314582664794,57.71844354165115,146.09604765606684,122.2045253173604,98.29096755106866,91.5122801337535,115.23768609435626,45.756140066876696,42.36679635821929,15.252046688959012,25.42007781493146,13.557374834630195,13.557374834630082,13.557374834630082,50.840155629863034,27.114749669260277,40.81310282783418
5,232,5,0.166833333333333,43.295766500668606,144.17397539769686,20.25829739929287,23.549792376378527,40.103851321469506,40.516594798585935,56.715410442216886,143.55718550899905,120.08085086821286,98.24808552074796,96.58286373226076,113.23508161713323,48.291431866130324,38.30010113520677,11.656552519410752,28.308770404283337,13.321774307897954,13.731770648025753,13.321774307898067,53.287097231592156,29.973992192770652,40.10385132146996
6,232,6,0.2001999999999996,34.490449084738245,144.48649883439015,15.922292865031496,25.175355512873775,40.713964582934565,44.160494882942864,53.08451516688058,128.36962902177928,103.23548793847289,85.87200982877732,81.188082019935,96.80117471607639,35.910113201125114,39.03273174035337,10.929164887298953,20.297020504983834,15.61309269614128,12.87488606575005,12.490474156913024,49.96189662765232,31.22618539228273,28.27651351220004
7,232,7,0.2335666666666662,15.61737618886059,137.99964651775156,15.926661187624031,25.182262437346882,34.49991162943755,37.99871628126893,53.09907904212605,109.49997215725229,84.39165373135076,76.52514332541705,74.96340570653092,87.45730665761948,28.111277139949152,28.11127713994904,3.1234752377721406,12.493900951088449,12.493900951088449,12.878418324335689,12.493900951088563,49.975603804353966,34.35822761549332,34.49991162943799
8,232,8,0.2669333333333328,13.952101353684885,139.11005236864273,16.91940811193126,27.28172582940852,34.00758942157861,41.16669667923178,57.62542756417312,115.4989735105325,88.2408368463257,81.21315893726978,81.21315893726978,91.36480380442845,28.762993790283076,28.762993790283076,1.6919408111931489,11.843585678351815,16.91940811193126,17.254478424235476,16.919408111931148,54.142105958179854,40.60657946863489,37.376194158681315
9,232,9,0.3002999999999994,14.077588798342868,136.9562439265012,17.071583991052762,24.14286561133826,34.31345915311954,41.11381864761156,54.62906877136902,109.47132435529413,85.42617899852367,78.52928635884291,78.52928635884291,88.77223675347454,29.021692784789707,25.6073759865792,5.121475197315817,11.950108793736945,17.071583991052876,17.409667979663368,17.071583991052762,54.62906877136891,37.557484780316145,37.71236166328275
10,232,10,0.333666666666666,10.984286546646649,143.09115030050498,17.711629864046742,24.31475477154413,38.36646349944031,38.835317518150134,55.576582334958175,107.90349468667986,83.6538340690545,78.154568908535,79.8913371065023,93.7854826902419,31.26182756341393,20.841218375609287,6.9470727918698,10.420609187804644,17.711629864046742,17.71162986404672,17.367681979674444,55.576582334958175,38.20890035528373,35.423259728093505
11,232,11,0.3670333333333326,10.698944274322344,150.46298447768854,18.184708543203882,24.96420330675221,39.391234004219434,43.38609156373109,57.061036129719355,110.61326375099436,85.66582019917539,80.24208205741775,78.45892467836404,92.72418371079391,28.53051806485962,24.96420330675221,7.132629516214934,10.698944274322344,14.265259032429753,18.184708543203993,17.83157379053739,57.061036129719355,39.22946233918208,36.3694170864077
12,232,12,0.4003999999999992,10.609088514374434,149.1993115892589,14.580797512097572,28.290902704998416,39.06040423485364,42.58344758020626,56.58180540999672,109.68427126165821,81.41318643267282,76.03180101968314,77.79998243874559,91.9454337912448,28.290902704998416,24.754539866873642,7.072725676249547,14.145451352499208,17.68181419062398,18.031983118742673,17.68181419062398,56.58180540999683,35.36362838124808,36.06396623748541
13,232,13,0.4337666666666658,10.604530722617369,149.1352137742956,17.674217871028873,24.995118617545913,42.56515322003476,39.52075260876194,56.55749718729237,109.63714958228303,84.83624578093861,79.53398041962987,81.30140220673286,95.44077650355598,31.813592167852107,21.20906144523451,7.069687148411617,14.139374296823235,14.574533426486283,18.024236362373305,15.906796083925883,56.55749718729237,35.348435742057745,35.52473826088622
14,232,14,0.4671333333333324,6.949955884209089,143.15053430461973,20.84986765262738,21.13746561984633,34.92309610428919,38.85143449429028,55.59964707367283,104.30723848324229,83.3994706105093,79.9244926684047,76.44951472630021,90.34942649471839,27.79982353683647,20.849867652627267,0.0,6.949955884209089,17.374889710522666,17.718980336095616,17.374889710522666,59.07462501577743,38.22475736315005,42.274931239692904
15,232,15,0.5004999999999991,3.4718350612004087,139.5660421684416,17.702954725036218,21.118348221645284,31.43880361525836,35.40590945007252,59.12322065595092,100.743058216513,79.8522064076086,78.1162888770084,76.3803713464082,90.26771159120972,24.302845428402634,17.359175306001816,6.9436701224008175,6.9436701224008175,21.118348221645284,21.118348221645213,20.831010367202225,59.02119604040638,38.190185673204155,35.40590945007295
16,232,16,0.5338666666666656,3.4420145122090844,141.79261702265248,17.550899163824074,20.93695690360844,34.59181773379507,38.48289214420204,61.95626121976477,96.62195172412754,75.80250650602092,77.44532652470593,75.72431926860145,89.49237731743801,20.65208707325496,13.768058048836565,10.32604353662748,3.442014512209198,17.210072561045763,17.550899163823985,17.210072561045763,51.63021768313729,34.420145122091526,41.447343290342225
17,232,17,0.5672333333333321,0.0,139.4872521268774,17.692960771515036,21.106426155874093,34.87181303171958,38.79438282485482,58.987876456237245,97.40403528987771,76.41607199008703,76.33725188454241,72.86737679888131,86.74687714152537,20.819250513966153,17.349375428305052,6.939750171322089,3.4698750856609877,13.879500342644064,14.30666148587949,13.879500342644064,58.98787645623736,41.63850102793219,38.32602300566963
18,232,18,0.6005999999999987,4.867743605051101,141.29039838327833,17.210072561045763,24.338718025256,34.59181773379507,38.01829291374806,55.07223219534649,100.05551957492587,75.8025065060209,74.00331201249685,75.72431926860145,82.60834829301973,24.094101585464045,20.65208707325496,6.8840290244182825,6.8840290244182825,17.210072561045877,17.550899163824074,17.210072561045763,55.07223219534637,34.420145122091526,38.48289214420251
19,232,19,0.6339666666666652,10.156370535983001,132.20631614508198,16.927284226638335,20.59293004670073,34.023420216215584,37.850558205223386,50.78185267991489,98.23660111906831,77.86550744253623,72.78732217454467,74.48005059720856,81.2509642878639,27.083654762621336,20.312741071966002,3.385456845327667,10.156370535983001,17.262510516752112,17.262510516752023,15.234555803974558,57.552766370570225,37.24002529860422,37.39359306475209
20,232,20,0.6673333333333318,6.825401930692806,136.67856714831805,17.0635048267319,24.13143994758299,34.29722023381009,37.69451420595426,51.1905144801957,99.02715018626805,75.07942123762041,71.666720272274,75.07942123762041,81.9048231683131,27.301607722770996,20.476205792078304,6.825401930692692,10.238102896039095,17.0635048267319,17.401428816358088,17.0635048267319,54.603215445542105,34.1270096534638,38.15515672696833
21,232,21,0.7006999999999983,6.4482588021915035,129.12628188558946,12.896517604383234,22.568905807670717,35.46542341205395,35.611673201231014,51.58607041753294,93.49975263177839,70.93084682410768,67.70671742301192,74.15497622520354,80.60323502739516,25.793035208766355,16.1206470054791,6.448258802191617,12.89651760438312,12.896517604383234,13.29342607137736,12.896517604383234,51.58607041753288,32.241294010958086,32.879797461071384
22,232,22,0.7340666666666649,10.807653447773008,133.4646746884434,14.091456070263797,20.506080634040586,34.34725997479732,37.74951060842166,54.78958009797136,99.17163107749555,78.68090474504912,73.48012227197898,78.60664243048916,85.44200264183598,27.341440845387524,17.088400528367174,6.835360211346824,10.25304031702035,17.42681755004667,17.42681755004667,18.797240581203823,58.10056179644846,37.59448116240776,41.15431823252324
23,232,23,0.7674333333333314,22.943883910609202,121.67280083335562,13.110790806062369,19.937456764423747,32.77697701515626,32.94045422386586,55.81718054981809,111.44172185153047,91.83404730642502,80.3035936871322,85.22014023940562,95.05323334395246,34.4158258659138,21.305035059851434,1.6388488507577677,21.305035059851434,16.388488507578018,19.937456764423633,18.0273373583359,49.16546552273405,29.499279313640386,36.645774351418225
24,232,24,0.800799999999998,45.77724650990638,121.37975024193224,16.672790945182822,26.361997169304637,36.11615814819185,39.37364595755171,55.6827441132465,143.9084982330158,117.712919596902,94.82429634194887,98.09409966408498,107.90350963049355,47.41214817097443,40.87254152670209,14.714114949612735,31.06313156029364,16.349016610680792,16.672790945182935,16.349016610680792,49.04704983204249,32.6980332213617,39.373645957552164
25,232,25,0.8341666666666645,45.86313835667522,128.431829092294,16.379692270241208,26.41146018409951,36.18392289504931,39.44752272872415,58.96689217286814,147.453625255693,121.20972279978457,98.2781536214469,98.2781536214469,111.38190743763994,45.863138356675336,42.587199902626935,16.379692270241094,29.483446086434128,19.65563072428938,16.704074102520952,18.017661497265408,49.13907681072345,32.7593845404823,36.18392289504931
26,232,26,0.867533333333331,32.76927682076166,135.34941110787403,16.70911819553869,23.171377854539656,32.93271562427344,36.19484927574607,59.07565391856472,131.1180624808223,108.13861350851334,91.75397509813251,91.75397509813251,108.13861350851334,40.961596025952076,31.130812979723487,8.192319205190415,24.576957615571246,19.66156609245695,19.661566092457065,19.66156609245695,49.153915231142435,32.76927682076166,39.45943461158268
27,232,27,0.9008999999999976,10.44489674405633,142.6407353489209,16.514831818247444,19.817798181897047,33.194401135423085,36.48245591413448,62.7563609093404,109.04792346187051,89.24123690067259,84.22564227306202,85.87712545488682,99.08899090948489,29.726697272845513,16.514831818247444,6.605932727299091,13.211865454598069,19.817798181897047,16.514831818247444,16.514831818247558,49.54449545474239,36.33263000014438,39.77298185845498
28,232,28,0.934266666666664,3.2782480478601883,138.03721200035065,16.71585076643682,16.391240239301055,29.685798651721374,33.431701532873106,62.37292293386887,98.34744143580645,81.95620119650539,80.3170771725753,85.23444924436558,95.06919338794626,27.86510840681194,8.19562011965047,8.195620119650584,8.195620119650584,19.669488287161244,19.669488287161244,19.669488287161244,45.895472670043034,32.782480478602224,42.74312511692229
29,232,29,0.9676333333333308,4.749468497425265,148.37813917098157,20.150288289368177,20.15028828936829,37.09453479274528,37.09453479274574,60.54408136891556,104.32626760014672,84.22777654685743,82.28034384825344,80.60115315747282,94.03467868371831,26.867051052490865,16.791906907806947,6.716762763122688,6.716762763122688,20.150288289368177,20.15028828936829,20.150288289368177,50.37572072342061,36.942195197175124,37.5478453177047
30,232,30,1.0009999999999972,16.388488507577904,141.28359964781242,16.388488507578018,19.93745676442382,36.20335441844444,39.46870687348989,65.55395403031207,118.04263205558107,98.33093104546799,90.13668679167904,88.49783794092127,98.33093104546799,27.860430462882505,24.582732761367083,1.6388488507578813,11.471941955304487,19.666186209093553,19.666186209093553,18.02733735833567,49.16546552273394,39.332372418187106,42.61007011970287
31,232,31,1.0343666666666638,19.993752928162507,143.44346925128593,16.99142272177549,20.269541858577753,33.32292154693732,40.53908371715552,59.98125878448741,116.8204869199017,96.6939087304086,86.63959602203727,86.63959602203738,93.30418033142485,29.990629392243704,26.65833723754986,3.3322921546937323,13.329168618775043,16.661460773468775,19.993752928162507,19.993752928162507,49.9843823204061,43.319798011018634,43.31979801101852
32,232,32,1.0677333333333303,9.677419354838776,138.85963387116726,16.129032258064512,25.806451612903174,35.63019682963634,38.84385347997496,54.83870967741939,106.45161290322585,80.64516129032268,75.80645161290329,80.64516129032268,87.09677419354841,29.0322580645161,22.580645161290363,6.451612903225737,9.677419354838662,19.354838709677438,19.354838709677438,19.354838709677438,48.38709677419354,45.16129032258061,45.27635112134888
33,232,33,1.1010999999999969,6.504065040650403,146.6663061304671,16.260162601626007,26.01626016260161,35.77235772357744,39.15965716680419,55.284552845528424,104.06504065040644,78.04878048780483,74.79674796747963,78.04878048780483,87.80487804878044,27.642276422764212,21.13821138211381,8.130081300813004,11.382113821138205,19.781341561945457,19.51219512195121,17.886178861788608,45.52845528455282,42.27642276422762,48.78048780487825
34,232,34,1.1344666666666634,10.366730566239053,137.8424366641606,16.391240239301055,26.43008072470554,36.0607285264623,36.0607285264623,52.45196876576347,104.90393753152682,78.74622036595603,73.76058107685492,78.6779531486452,85.23444924436558,29.504232430741922,22.947736335021432,3.2782480478601883,13.112992191440867,16.391240239301055,16.39124023930117,16.39124023930117,45.89547267004298,45.89547267004298,52.45196876576347
35,232,35,1.16783333333333,9.755775146607789,146.37275523995783,16.259625244346353,26.015400390954028,35.7711755375617,39.023100586431156,52.030800781908056,104.06160156381623,78.0462011728622,73.16831359955825,81.29812622173142,84.55005127060065,30.89328796425798,21.13751281765019,4.877887573303838,14.633662719911626,16.25962524434624,19.511550293215578,17.885587768780965,42.27502563530038,42.27502563530038,48.77887573303906
36,232,36,1.2011999999999965,9.755775146607789,146.37275523995828,16.25962524434624,26.015400390954028,39.023100586431156,39.023100586431156,55.282725830777395,107.31352661268545,81.29812622173142,76.42023864842747,84.55005127060065,87.80197631946999,30.89328796425798,21.137512817650077,4.877887573303951,14.63366271991174,19.511550293215578,19.511550293215578,17.885587768780965,42.27502563530038,42.27502563530038,52.030800781908056
37,232,37,1.234566666666663,16.126934718260145,141.95367291329967,19.352321661912015,25.803095549216096,35.4792563801725,38.83880193518764,51.706886201203375,112.93461058453417,87.1451563971576,79.02198011947439,83.86006053495237,87.08544747860446,33.866562908346054,27.4157890210422,1.6126934718259918,14.51424124643404,19.35232166191213,19.35232166191213,19.35232166191213,41.93003026747624,45.155417211128224,51.60619109843219
