,video_id,frame_seq,time_seconds,m1,m3,m4,m5,m6,m7,m8,m9,m10,m11,m12,m13,m14,m15,m16,m17,e1,e2,e3,b1,b2,b3
0,255,0,0.0,30.258424159982404,158.91281667022253,16.43681403236974,30.25842415998229,46.57097309171445,46.57097309171445,30.258424159982404,106.87440683705795,76.90055955607559,61.638052621386805,49.310442097109444,52.04991110250444,20.54601754046223,56.159114610596816,20.54601754046223,4.109203508092492,24.806946917841696,24.806946917841696,24.655221048554722,76.7051321510591,71.22619414026917,84.92353916724414
1,255,1,0.0333666666666666,27.208366226366707,155.08768749029014,16.325019735820092,32.65003947163996,46.25422258482354,48.97505920746016,30.419878219432633,106.25206675071499,73.66385655496404,59.85840569800678,51.69589583009679,51.69589583009679,21.766692981093456,54.4167324527333,19.045856358456604,8.162509867910103,24.638223515924118,24.487529603730025,24.487529603730025,76.18342543382676,70.74175218855339,87.10927462249913
2,255,2,0.0667333333333332,27.386983731872874,156.1298290933568,16.43219023912377,32.86438047824754,43.819173970996644,49.296570717371196,30.619578661574295,106.94959040796059,74.14744510248447,60.2513642101203,49.296570717371196,52.03526909055847,20.540237798904627,56.14331665033956,20.54023779890474,6.846745932968133,27.52357801429843,24.799968546401306,24.648285358685598,73.9448560760568,68.46745932968224,84.94381063788781
3,255,3,0.1000999999999998,30.12568210506015,156.1298290933568,16.43219023912377,32.86438047824754,46.55787234418381,49.3725870627829,30.619578661574295,109.68478436864035,76.87892687913492,61.620713396713995,52.03526909055847,54.77396746374575,23.278936172091903,56.14331665033956,20.54023779890474,6.846745932968133,27.52357801429843,24.799968546401306,24.648285358685598,71.20615770286952,65.72876095649497,84.94381063788781
4,255,4,0.1334666666666664,30.463442005943435,154.47432845480873,16.548182694186607,33.0963653883731,44.128487184497544,46.88651763352868,30.83571784023892,110.63106128060178,77.66684261975396,62.05568510319961,52.402578531590734,55.16060898062176,23.443258816764228,56.53962420513744,20.685228367733203,6.8950761225776205,27.717862972026694,28.126502157385197,28.95931971482645,74.46682212383945,68.95076122577728,85.54341671564751
5,255,5,0.166833333333333,22.08009217948185,150.65330572595445,19.170888612311046,32.86438047824754,41.080475597809254,46.557872344184034,30.24991224903703,104.21458051743306,71.41651608642863,60.251364210120414,52.03526909055847,54.77396746374575,23.278936172091903,50.665919903965005,15.062841052530189,6.846745932968133,30.24991224903703,32.97829548351936,31.495031291653845,73.94485607605685,68.46745932968224,82.20658349638492
6,255,6,0.2001999999999996,19.174034807141197,147.9393431037991,16.43488697754958,32.86977395509928,41.087217443874124,43.826365273465626,33.32317156557504,101.49642374401833,68.69747807272233,58.89167833621946,54.78295659183209,57.522104421423705,23.282756551528564,45.19593918826149,9.587017403570599,6.847869573978983,30.254876657284168,30.254876657284225,28.761052210711853,73.95699139897329,71.21784356938167,82.22007467737484
7,255,7,0.2335666666666662,11.371650860024872,151.69167469670992,19.306213143217633,33.0963653883731,44.21459163161124,46.886517633528456,33.21108450319688,96.68853901117166,63.674077405943976,57.9186394296529,57.9186394296529,57.9186394296529,24.822274041279798,38.612426286435266,2.7580304490310255,8.274091347093304,30.463442005943513,30.463442005943513,31.71735016385759,74.46682212383945,71.70879167480837,82.78686788351261
8,255,8,0.2669333333333328,11.371650860024872,148.93364424767879,19.306213143217633,33.0963653883731,41.370456735466405,46.886517633528456,33.552888545575776,96.88502069929991,63.97203915217222,57.9186394296529,57.9186394296529,57.9186394296529,24.822274041279798,38.612426286435266,2.7580304490310255,8.274091347093304,30.463442005943513,30.835717840238978,31.71735016385759,74.46682212383945,71.70879167480837,82.78686788351261
9,255,9,0.3002999999999994,16.548182694186607,148.95917937761314,19.306213143217633,30.338334939341962,41.370456735466405,46.96756612553984,33.552888545575705,99.44220203272562,69.17105175899292,60.676669878683924,60.676669878683924,63.43470032771506,28.959319714826506,37.233411061919696,4.137045673546595,9.653106571608873,30.463442005943456,30.463442005943513,31.71735016385759,74.46682212383945,71.70879167480837,82.74091347093281
10,255,10,0.333666666666666,19.303001443823973,148.90886828092744,19.303001443823973,33.090859617983824,41.455391671023655,44.12114615731184,33.547306829938435,104.93275710254161,71.90867053726127,62.04536178371973,66.18171923596776,66.18171923596776,33.09085961798394,38.60600288764783,5.515143269664009,16.545429808991912,33.20555964862435,30.45837423747459,31.712073800567907,77.21200577529572,71.69686250563177,82.77309581275924
11,255,11,0.3670333333333326,24.636738871258217,145.1088401733011,19.161908010978664,30.111569731537884,41.06123145209699,43.79864688223665,30.235741679913023,104.05779873564026,73.9608921196348,61.591847178145485,62.96055489321543,65.69797032335521,34.217692876747606,39.69252373702716,4.106123145209722,17.79320029590872,30.23574167991308,27.51068459624219,27.37415430139805,76.64763204391448,68.4353857534951,82.16807382851275
12,255,12,0.4003999999999992,19.026059766179742,146.79762564183645,16.308051228154113,32.61610245630811,40.770128070385,46.286017539925986,33.06600098426655,100.7131281251239,68.16730733745422,58.43718356755221,62.51419637459071,65.23220491261634,31.257098187295355,36.69311526334661,1.3590042690127575,14.949046959141242,16.533000492133237,19.0260597661798,17.667055497166928,76.10423906471908,67.95021345064202,81.5855437066837
13,255,13,0.4337666666666658,21.88497868085676,150.48409566987152,16.413734010642543,30.091845686177976,43.76995736171352,46.58596969579653,33.280282074072666,101.36579001982074,71.33630282702497,60.183691372356066,62.91931370746306,65.65493604257017,31.45965685373153,36.93090152394575,1.3678111675535547,15.045922843088988,16.640141037036276,16.413734010642543,17.78154517819604,76.5974253829985,68.39055837767722,82.11425110091069
14,255,14,0.4671333333333324,13.773276038684344,145.96273864432786,18.908131654286763,29.835305754586326,40.51742497347186,43.30291566809568,29.835305754586326,91.8792109853032,62.36115957208292,55.37381413041135,59.425556627758624,64.82787995755484,32.41393997877742,29.712778313879312,2.701161664898109,16.206969989388767,10.804646659592493,13.505808324490602,13.505808324490658,75.63252661714739,67.52904162245301,83.77956740756319
15,255,15,0.5004999999999991,13.687077150698997,147.84577749404116,16.424492580838887,30.111569731537884,41.06123145209699,41.15237747202276,32.962846803473745,93.1123720318776,63.020035827495064,56.11701631786593,62.96055489321543,65.69797032335521,31.480277446607715,28.742862016468052,4.106123145209608,15.055784865768828,11.286652959661984,13.687077150698997,13.687077150698997,79.38504747405426,71.17280118363487,82.30475494404553
16,255,16,0.5338666666666656,27.71325194639252,146.1512966460955,16.545429808991912,30.45837423747459,41.363574522479894,44.12114615731184,30.45837423747461,104.82399968126244,74.6584192737937,60.66657596630375,63.4241476011357,63.4241476011357,33.090859617983824,41.363574522479894,8.272714904495956,16.545429808991912,11.03028653932796,11.03028653932796,11.030286539328017,79.96957741012773,71.69686250563177,82.77309581275924
17,255,17,0.5672333333333321,44.12114615731184,143.420237672119,16.545429808992026,30.333287983151877,44.12114615731184,44.12114615731184,33.090859617983824,124.09072356743957,93.75743558428769,71.69686250563177,71.69686250563177,74.45443414046372,39.98478870506392,51.015075244391824,17.924215626407886,23.439358896071894,13.787858174159965,14.06091157613828,12.409072356743934,79.96957741012773,71.69686250563177,85.66244378364962
18,255,18,0.6005999999999987,39.95651545632347,141.40567603011883,18.646373879617613,29.422275880260965,42.62028315341172,48.02175508888128,29.301444667970543,117.23604485151428,87.90433400391163,67.92607627574984,66.59419242720577,74.5854955184704,41.28839930486754,46.61593469904403,14.6507223339853,25.305793122338173,7.991303091264683,10.982995577203067,10.65507078835293,77.2492632155587,66.59419242720577,80.0904185469265
19,255,19,0.6339666666666652,32.07601066041965,141.40567603011883,18.646373879617613,26.637676970882353,42.62028315341172,45.36232930278964,29.301444667970543,106.58399977869676,79.95741471552034,63.93042473011752,63.93042473011752,71.92172782138215,38.62463160777929,38.624631607779406,6.65941924272056,22.642025425249926,13.318838485441177,13.582603467131051,13.318838485441177,77.2492632155587,66.59419242720577,80.0904185469265
20,255,20,0.6673333333333318,21.758122107392467,137.74270111908103,18.891340305250196,26.98762900750023,40.48144351125052,40.57130254193243,32.385154809000255,99.89069043918255,72.91655828383018,62.0715467172505,64.77030961800051,70.16783541950053,35.08391770975027,32.385154809000255,0.0,16.19257740450007,13.493814503750116,13.493814503750116,12.14443305337511,78.26412412175063,64.77030961800051,84.05249287576625
21,255,21,0.7006999999999983,21.590103206000094,137.74270111908103,18.891340305250196,27.122231483433165,40.48144351125052,43.26446055340834,32.385154809000255,99.89069043918255,72.86659832025055,62.0715467172505,64.77030961800051,70.16783541950053,35.08391770975027,32.385154809000255,0.0,16.19257740450007,13.493814503750116,13.761044693484656,12.14443305337511,78.26412412175063,64.77030961800051,83.83558285512431
22,255,22,0.7340666666666649,3.8937854886512233,140.66215869336787,22.026576988088436,33.03986548213254,41.391507507872795,41.391507507872795,38.54650972915465,96.40559947217628,63.38623540944963,61.949747778998585,60.573086717243086,68.8330530877762,26.156560173354933,31.663204420377156,4.1299831852664965,4.1299831852664965,16.747804646734195,16.747804646734103,16.51993274106627,82.59966370533158,66.07973096426525,80.03600061762222
23,255,23,0.7674333333333314,2.7697085441907348,141.68893373697227,22.330104170930333,30.592430782974823,41.63784942653107,44.660208341860894,38.87471193067985,94.21081270568656,63.703296516386786,62.31844224429142,58.163879428005316,69.24271360476826,24.9273768977165,30.466793986098082,5.5394170883814695,2.7697085441907348,22.330104170930447,22.157668353525878,22.157668353525878,80.32154778153125,63.70329651638684,83.27569885306214
24,255,24,0.800799999999998,3.918932784780441,147.28619510131193,19.39772762992709,30.607843512230424,41.658826932520924,47.19019977586202,38.79545525985429,91.61422201161584,61.027233974835546,59.57873486334768,55.42207894264891,66.50649473117869,22.168831577059564,30.48214341845687,5.542207894264948,2.771103947132474,25.093413499097068,22.168831577059564,23.5543835506258,77.59091051970847,63.735390784046274,83.31765386504208
25,255,25,0.8341666666666645,13.867504905630653,152.7693082345456,19.414506867883006,27.873339895374613,41.69486225497729,44.46260312805673,38.829013735766125,99.88454873964788,72.11102550927978,65.1772730564644,58.24352060364913,66.56402354702755,23.574758339572213,37.44226324520298,4.160251471689207,4.160251471689207,25.115119565099224,24.9615088301353,23.57475833957227,80.4315284526582,66.56402354702749,80.47933322861896
26,255,26,0.867533333333331,13.772158183482588,151.71893523059768,22.0354530935723,30.423691824475323,44.1568982809859,44.15689828098589,35.807611277055,101.95118581209162,71.61522255410989,64.7291434623686,57.8430643706273,66.1063592807169,26.1671005486171,39.9392587320998,4.131647455044799,4.131647455044799,24.942439306957368,24.789884730268852,24.78988473026891,79.87851746419955,66.1063592807169,82.67884354992214
27,255,27,0.9008999999999976,19.603604061832485,158.24371140934883,16.634209641381517,30.49605100919939,47.130260650580794,47.13026065058102,36.04078755632645,102.61508371890946,72.13487018471234,62.37828615518049,55.447365471271496,63.76447029196231,23.565130325290397,42.97170824023556,9.703288957472523,6.93092068390888,27.861956325255647,24.95131446207222,24.95131446207222,77.62631165978024,63.76447029196237,83.3556678529587
28,255,28,0.934266666666664,19.406577914945046,158.24371140934883,22.35154759467499,30.49605100919939,47.130260650580794,49.90262892414444,30.62180845410593,102.5776261218524,72.08157511265301,62.37828615518049,52.67499719770797,60.99210201839878,26.337498598853927,45.74407651379909,12.475657231036166,6.93092068390888,25.10486246187131,22.178946188508633,23.565130325290454,77.62631165978019,63.76447029196231,83.35566785295848
29,255,29,0.9676333333333308,19.414506867883006,161.07809859243383,19.414506867883006,30.634319618061358,47.149516679144654,49.923017660270716,33.28201177351377,102.65700920278915,72.11102550927978,62.40377207533834,52.69651864139678,61.01702158477519,23.574758339572213,45.762766188581395,12.480754415067622,6.9337524528153835,25.11511956509925,24.9615088301353,26.348259320698332,77.65802747153208,66.56402354702749,83.2512416169827
30,255,30,1.0009999999999972,21.876283102862658,156.0842521829215,16.407212327147022,30.20393057316412,43.837937147792935,46.56745965112954,32.81442465429416,101.21475578591381,71.09792008430384,60.15977853287245,49.22163698144118,57.42524314501463,20.509015408933806,47.85436928751221,12.305409245360238,4.101803081786784,27.48174052952488,24.61081849072059,25.978086184649555,76.56699086001959,62.89431392073038,82.21816188563167
