,frame_seq,m1,m3,m4,m5,m6,m7,m8,m9,m10,m11,m12,m13,m14,m15,m16,m17,e1,e2,e3,b1,b2,b3,label_measures
0,0,1.0,39.01281840626232,5.0,8.0,10.0,10.0,10.04987562112089,24.020824298928627,16.0312195418814,15.5,15.0,14.0,4.5,9.5,1.5,0.5,6.0,5.0990195135927845,5.0,16.0,18.0,16.0,"{'others': (['m1', 'm3', 'm12', 'e1', 'e2'], 0.0, 15)}"
1,1,1.0,39.01281840626232,5.0,8.0,10.0,11.0,10.0,24.0,16.0,15.5,15.0,14.0,4.5,9.5,1.5,0.5,5.0990195135927845,6.082762530298219,5.5,16.0,18.0,16.0,"{'others': (['m1', 'm3', 'm12', 'e1', 'e2'], 0.0, 15)}"
2,2,1.0,39.0,5.0,8.0,10.0,11.0,9.0,23.0,15.0,14.5,13.0,13.0,4.0,10.0,2.0,1.0,5.0990195135927845,5.0990195135927845,5.5,16.0,17.0,15.0,"{'others': (['m1', 'm3', 'm12', 'e1', 'e2'], 0.0, 15)}"
3,3,1.4142135623730951,39.0,5.0,7.0,10.0,11.0,10.04987562112089,23.0,16.0,15.5,14.0,14.0,4.0,9.0,2.0,1.0,5.0990195135927845,5.0,5.0,16.0,18.0,16.0,"{'others': (['m1', 'm3', 'm12', 'e1', 'e2'], 0.0, 15)}"
4,4,2.23606797749979,38.0,4.0,7.0,10.0,11.0,10.04987562112089,23.0,16.0,15.0,14.0,14.0,4.0,9.0,2.0,0.0,6.082762530298219,5.0,5.0,17.0,18.0,15.0,"{'others': (['m1', 'm3', 'm12', 'e1', 'e2'], 0.0, 15)}"
5,5,2.0,39.0,5.0,7.0,10.0,10.0,9.0,23.0,16.0,15.0,14.0,14.0,5.0,9.0,1.0,0.0,6.082762530298219,6.082762530298219,6.0,16.0,17.0,15.0,"{'others': (['m1', 'm3', 'm12', 'e1', 'e2'], 0.0, 15)}"
6,6,1.0,39.01281840626232,5.0990195135927845,7.0,10.0,11.0,9.055385138137416,22.0,15.0,14.5,14.0,13.0,4.5,8.5,1.5,0.5,6.082762530298219,5.0990195135927845,5.5,16.0,17.0,15.0,"{'others': (['m1', 'm3', 'm12', 'e1', 'e2'], 0.0, 15)}"
7,7,1.0,38.0,5.0,7.071067811865476,10.0,11.0,10.0,23.021728866442675,16.0,15.5,14.0,14.0,4.0,9.0,2.0,1.0,5.0990195135927845,6.082762530298219,6.0,17.0,18.0,15.0,"{'others': (['m1', 'm3', 'm12', 'e1', 'e2'], 0.0, 15)}"
8,8,1.0,38.0,5.0990195135927845,7.0,9.0,10.0,10.0,23.021728866442675,16.0312195418814,15.5,14.0,14.0,4.0,9.0,2.0,0.0,6.082762530298219,6.082762530298219,6.0,17.0,18.0,15.033296378372908,"{'others': (['m1', 'm3', 'm12', 'e1', 'e2'], 0.0, 15)}"
9,9,2.0,39.01281840626232,5.0,7.0,10.0,10.0,9.0,23.0,16.0,15.0,14.0,13.0,4.5,9.5,2.5,0.5,6.0,6.082762530298219,5.5,16.0,18.0,16.0,"{'others': (['m1', 'm3', 'm12', 'e1', 'e2'], 0.0, 15)}"
10,10,2.0,38.01315561749642,5.0,7.071067811865476,10.0,11.0,9.0,23.021728866442675,16.0,15.0,14.0,13.0,4.5,9.5,1.5,0.5,5.0990195135927845,6.082762530298219,5.5,16.0,18.0,16.0,"{'others': (['m1', 'm3', 'm12', 'e1', 'e2'], 0.0, 15)}"
11,11,2.0,40.01249804748511,5.0,8.0,10.0,10.0,10.0,25.0,17.0,16.0,15.0,14.0,4.5,10.5,2.5,0.5,5.0990195135927845,6.082762530298219,6.0,17.0,18.0,16.0,"{'others': (['m1', 'm3', 'm12', 'e1', 'e2'], 0.0, 15)}"
12,12,3.0,39.01281840626232,6.0,8.0,10.0,10.0,9.0,26.0,18.0,16.5,15.0,14.0,5.5,11.5,3.5,0.5,6.082762530298219,6.082762530298219,5.5,16.0,17.0,16.0312195418814,"{'others': (['m1', 'm3', 'm12', 'e1', 'e2'], 0.0, 15)}"
13,13,4.0,40.049968789001575,5.0,8.0,10.0,11.04536101718726,9.0,26.0,18.0,16.0,15.0,13.0,5.0,12.0,4.0,0.0,5.0,6.324555320336759,6.0,17.0,18.0,16.0,"{'others': (['m1', 'm3', 'm12', 'e1', 'e2'], 0.0, 15)}"
14,14,5.0,40.01249804748511,6.0,8.0,10.0,10.0,8.0,27.0,19.0,16.5,15.0,14.0,6.5,12.5,4.5,0.5,5.0,6.324555320336759,5.5,16.0,18.0,16.0312195418814,"{'others': (['m1', 'm3', 'm12', 'e1', 'e2'], 0.0, 15)}"
15,15,5.0,40.049968789001575,6.082762530298219,10.0,10.04987562112089,12.041594578792296,8.0,29.017236257093817,19.026297590440446,16.5,16.0,14.0,7.0,14.0,4.0,1.0,4.123105625617661,5.0990195135927845,5.0,16.0,18.0,16.0,"{'others': (['m1', 'm3', 'm12', 'e1', 'e2'], 0.0, 15)}"
16,16,5.0,42.04759208325728,6.0,10.04987562112089,10.04987562112089,12.041594578792296,8.0,29.017236257093817,19.0,16.5,16.0,14.0,7.0,14.0,4.0,1.0,3.0,3.0,3.5,17.0,20.0,15.033296378372908,"{'others': (['m1', 'm3', 'm12', 'e1', 'e2'], 0.0, 15)}"
17,17,6.0,42.1070065428546,5.0,10.0,11.04536101718726,12.041594578792296,9.055385138137416,30.01666203960727,20.024984394500787,17.0,17.0,14.0,6.5,14.5,4.5,1.5,3.0,4.123105625617661,4.0,17.0,20.0,16.0,"{'others': (['m1', 'm3', 'm12', 'e1', 'e2'], 0.0, 15)}"
18,18,4.0,43.04648650006177,6.0,11.0,11.0,12.041594578792296,9.0,30.0,19.0,17.0,16.0,14.0,6.0,15.0,4.0,0.0,4.0,3.0,3.5,16.0,19.0,17.029386365926403,"{'others': (['m1', 'm3', 'm12', 'e1', 'e2'], 0.0, 15)}"
19,19,6.0,41.04875150354759,6.0,10.0,11.04536101718726,12.041594578792296,9.055385138137416,31.016124838541646,21.02379604162864,18.0,17.0,15.0,7.0,15.0,5.0,2.0,4.123105625617661,4.0,4.5,17.0,20.0,15.033296378372908,"{'others': (['m1', 'm3', 'm12', 'e1', 'e2'], 0.0, 15)}"
20,20,6.0,42.1070065428546,6.082762530298219,11.04536101718726,11.0,13.038404810405298,8.0,31.064449134018133,20.024984394500787,17.0,16.0,13.0,6.5,16.5,5.5,0.5,4.0,4.123105625617661,4.0,17.0,21.0,16.0312195418814,"{'others': (['m1', 'm3', 'm12', 'e1', 'e2'], 0.0, 15)}"
21,21,4.123105625617661,41.19465984809196,6.0,11.04536101718726,11.04536101718726,11.04536101718726,10.04987562112089,31.14482300479488,20.09975124224178,18.0,17.0,13.0,5.0,16.0,5.0,0.0,4.123105625617661,4.123105625617661,4.0,16.0,21.0,16.0312195418814,"{'others': (['m1', 'm3', 'm12', 'e1', 'e2'], 0.0, 15)}"
22,22,4.0,41.19465984809196,6.0,11.04536101718726,10.04987562112089,12.041594578792296,9.0,30.01666203960727,19.0,17.0,16.0,12.0,5.0,16.0,5.0,0.0,3.1622776601683795,4.123105625617661,4.0,17.0,22.0,19.026297590440446,"{'others': (['m1', 'm3', 'm12', 'e1', 'e2'], 0.0, 15)}"
23,23,4.0,41.30375285612676,6.082762530298219,10.04987562112089,11.180339887498947,12.041594578792296,9.055385138137416,29.154759474226505,19.1049731745428,17.0,16.0,11.0,4.5,15.5,5.5,0.5,4.0,4.47213595499958,4.5,16.0,23.0,18.027756377319943,"{'others': (['m1', 'm3', 'm12', 'e1', 'e2'], 0.0, 15)}"
24,24,5.0990195135927845,43.28972164382672,5.0990195135927845,9.0,11.180339887498947,12.041594578792296,11.0,30.066592756745816,21.095023109728988,18.5,15.0,10.0,1.5,17.5,7.5,1.5,3.0,3.1622776601683795,3.0,17.0,22.0,17.11724276862369,"{'others': (['m1', 'm3', 'm12', 'e1', 'e2'], 0.0, 15)}"
25,52,5.0,42.190046219457976,4.123105625617661,9.055385138137416,11.04536101718726,12.041594578792296,11.04536101718726,29.154759474226505,20.09975124224178,17.5,13.0,9.0,0.0,18.0,9.0,3.0,4.0,5.385164807134504,5.0,18.0,24.0,17.029386365926403,{}
26,53,5.0990195135927845,42.190046219457976,5.0,10.0,10.04987562112089,12.041594578792296,12.36931687685298,32.2490309931942,22.36067977499789,19.5,17.0,13.0,3.0,17.0,6.0,1.0,4.0,4.123105625617661,4.0,16.0,22.0,17.029386365926403,{}
27,54,5.0,41.30375285612676,4.0,9.055385138137416,11.04536101718726,12.041594578792296,12.36931687685298,30.26549190084312,21.213203435596427,18.5,17.0,12.0,2.5,15.5,5.5,0.5,5.0,5.385164807134504,5.0,17.0,22.0,17.029386365926403,{}
28,55,4.123105625617661,41.30375285612676,5.0,9.055385138137416,11.04536101718726,12.041594578792296,11.04536101718726,29.154759474226505,20.09975124224178,18.0,17.0,12.0,3.5,14.5,4.5,0.5,4.0,5.0990195135927845,5.0,16.0,21.0,17.029386365926403,{}
29,56,4.123105625617661,40.19950248448356,4.0,10.0,10.04987562112089,12.041594578792296,12.16552506059644,30.14962686336267,20.223748416156685,18.0,18.0,14.0,4.0,14.0,4.0,1.0,5.0,5.385164807134504,5.0,16.0,21.0,17.029386365926403,{}
30,57,4.0,41.10960958218893,5.0990195135927845,10.04987562112089,11.04536101718726,11.04536101718726,10.04987562112089,29.154759474226505,19.1049731745428,17.0,17.0,14.0,5.5,13.5,3.5,1.5,5.0,5.0990195135927845,5.0,16.0,21.0,18.027756377319943,{}
31,58,4.0,41.10960958218893,4.123105625617661,8.06225774829855,11.04536101718726,12.041594578792296,11.0,27.073972741361768,19.026297590440446,17.0,17.0,14.0,4.5,11.5,3.5,0.5,5.0990195135927845,5.0990195135927845,5.0,16.0,20.0,17.029386365926403,{}
32,59,3.1622776601683795,40.11234224026316,5.0,9.0,10.04987562112089,12.041594578792296,10.04987562112089,27.073972741361768,18.110770276274835,16.5,17.0,14.0,5.5,11.5,2.5,1.5,6.0,6.324555320336759,6.0,16.0,20.0,17.029386365926403,{}
33,60,4.0,40.049968789001575,5.0990195135927845,9.055385138137416,10.04987562112089,11.04536101718726,10.04987562112089,28.16025568065745,19.1049731745428,17.0,18.0,16.0,7.0,11.0,2.0,2.0,6.0,7.071067811865476,6.5,16.0,20.0,18.027756377319943,{}
34,61,3.0,39.05124837953327,5.0,9.055385138137416,10.04987562112089,11.04536101718726,10.04987562112089,27.073972741361768,18.027756377319943,16.5,17.0,15.0,6.0,11.0,3.0,2.0,5.0,6.082762530298219,6.0,16.0,20.0,17.029386365926403,{}
35,62,4.0,39.11521443121589,5.0990195135927845,8.06225774829855,10.04987562112089,11.04536101718726,9.0,26.0768096208106,18.027756377319943,16.0,17.0,14.0,6.5,10.5,2.5,1.5,6.0,7.280109889280518,6.5,16.0,20.0,15.0,{}
36,63,3.0,39.05124837953327,5.0,8.06225774829855,10.04987562112089,11.0,9.055385138137416,25.079872407968907,17.029386365926403,15.5,17.0,15.0,7.0,9.0,1.0,2.0,6.082762530298219,6.324555320336759,6.0,16.0,19.0,17.029386365926403,{}
37,64,4.0,40.049968789001575,5.0990195135927845,8.0,10.04987562112089,11.04536101718726,9.055385138137416,26.0768096208106,18.110770276274835,16.0,17.0,15.0,7.0,10.0,2.0,2.0,6.0,6.082762530298219,6.0,16.0,19.0,16.0312195418814,{}
38,65,3.0,38.05259518088089,5.0,7.071067811865476,10.04987562112089,11.0,10.04987562112089,25.079872407968907,18.027756377319943,16.5,17.0,15.0,6.0,9.0,2.0,2.0,6.082762530298219,6.082762530298219,6.0,16.0,19.0,15.033296378372908,{}
39,66,3.0,38.05259518088089,5.0,8.0,10.04987562112089,10.04987562112089,9.219544457292889,25.079872407968907,17.11724276862369,15.5,17.0,15.0,7.0,9.0,1.0,2.0,6.0,6.082762530298219,6.0,16.0,19.0,15.0,{}
40,67,2.0,39.05124837953327,5.0990195135927845,8.0,10.04987562112089,11.0,10.04987562112089,25.079872407968907,17.11724276862369,16.0,17.0,15.0,6.0,9.0,1.0,2.0,6.082762530298219,5.0990195135927845,5.5,15.0,18.0,16.1245154965971,{}
41,68,2.23606797749979,40.049968789001575,5.0,7.0,9.055385138137416,10.04987562112089,10.04987562112089,24.08318915758459,17.11724276862369,16.0,16.0,14.0,5.0,9.0,2.0,1.0,6.0,6.082762530298219,6.0,15.0,19.0,16.1245154965971,{}
42,69,1.0,40.049968789001575,5.0,8.06225774829855,10.04987562112089,11.0,10.04987562112089,24.08318915758459,16.0312195418814,15.5,15.0,13.0,4.0,10.0,2.0,0.0,6.0,6.082762530298219,6.0,15.0,18.0,16.0312195418814,{}
43,70,1.0,42.04759208325728,5.0990195135927845,7.0,10.04987562112089,11.04536101718726,11.0,24.020824298928627,17.029386365926403,16.5,16.0,14.0,4.0,9.0,2.0,0.0,5.0990195135927845,6.082762530298219,6.0,15.0,18.0,16.0312195418814,{}
44,71,1.4142135623730951,42.0,5.0,7.0,9.0,11.0,11.0,24.020824298928627,17.029386365926403,16.5,14.0,14.0,3.0,10.0,3.0,1.0,6.082762530298219,6.082762530298219,6.0,14.0,17.0,17.029386365926403,{}
45,72,1.0,41.01219330881976,4.0,7.071067811865476,10.0,10.0,11.04536101718726,23.08679276123039,16.0312195418814,15.5,15.0,14.0,3.5,8.5,1.5,0.5,6.082762530298219,6.082762530298219,6.0,16.0,18.0,16.0312195418814,{}
46,73,1.0,41.01219330881976,5.0990195135927845,7.0,10.04987562112089,11.0,11.0,24.020824298928627,17.029386365926403,16.5,16.0,15.0,4.5,8.5,1.5,0.5,6.082762530298219,6.082762530298219,6.0,16.0,18.0,16.0,{}
47,74,1.4142135623730951,41.01219330881976,5.0,7.0,10.04987562112089,11.04536101718726,10.0,23.021728866442675,16.0312195418814,15.5,15.0,14.0,4.5,8.5,1.5,0.5,6.082762530298219,6.082762530298219,6.0,16.0,18.0,16.0312195418814,{}
48,75,1.0,41.01219330881976,5.0,7.0,10.04987562112089,11.0,10.04987562112089,23.021728866442675,16.0312195418814,15.5,15.0,14.0,4.5,8.5,1.5,0.5,6.082762530298219,6.082762530298219,6.0,16.0,18.0,17.029386365926403,{}
49,76,1.4142135623730951,41.01219330881976,5.0,7.0,11.04536101718726,11.04536101718726,10.0,23.021728866442675,16.0312195418814,15.5,15.0,14.0,4.5,8.5,1.5,0.5,5.0990195135927845,6.082762530298219,6.0,15.0,18.0,17.029386365926403,{}
50,77,1.0,42.01190307520001,5.0,7.0,10.04987562112089,11.04536101718726,10.04987562112089,23.021728866442675,16.0312195418814,15.5,15.0,14.0,4.5,8.5,1.5,0.5,5.0990195135927845,6.082762530298219,6.0,15.0,18.0,16.0312195418814,{}
51,78,2.0,41.01219330881976,5.0990195135927845,7.0,10.0,11.0,10.0,24.020824298928627,17.029386365926403,16.0,15.0,14.0,4.5,9.5,1.5,0.5,6.0,6.082762530298219,6.0,15.0,18.0,17.029386365926403,{}
52,79,1.0,43.01162633521314,5.0,8.0,10.04987562112089,11.0,10.0,24.0,16.0,15.5,14.0,13.0,3.5,10.5,2.5,0.5,6.0,6.082762530298219,5.5,16.0,18.0,17.029386365926403,{}
53,80,3.1622776601683795,43.01162633521314,5.0,7.0,11.04536101718726,12.041594578792296,9.0,24.020824298928627,17.029386365926403,15.5,14.0,13.0,4.5,10.5,2.5,0.5,6.0,6.082762530298219,5.5,16.0,18.0,17.029386365926403,{}
54,81,4.0,43.01162633521314,5.0,7.071067811865476,11.04536101718726,12.0,9.0,25.019992006393608,18.0,16.0,14.0,13.0,4.5,11.5,4.5,0.5,6.0,5.0990195135927845,5.0,15.0,18.0,17.029386365926403,{}
55,82,6.0,45.0111097397076,4.123105625617661,8.0,11.04536101718726,12.0,9.0,27.018512172212592,19.026297590440446,16.0,14.0,13.0,4.5,13.5,5.5,0.5,5.0990195135927845,5.0990195135927845,5.0,15.0,18.0,16.0312195418814,{}
56,83,6.0,44.04543109109048,4.0,8.0,11.0,12.0,9.055385138137416,27.018512172212592,19.026297590440446,16.0,15.0,13.0,5.0,13.0,5.0,1.0,5.0,5.0990195135927845,5.0,15.0,18.0,17.029386365926403,{}
57,84,7.0,45.044422518220834,5.0,8.06225774829855,10.0,12.0,8.0,28.0178514522438,20.0,16.5,15.0,13.0,6.0,14.0,5.0,1.0,6.0,5.0990195135927845,5.0,15.0,18.0,17.029386365926403,{}
58,85,8.0,45.044422518220834,5.0,8.06225774829855,10.04987562112089,12.0,8.06225774829855,29.068883707497267,21.02379604162864,17.0,15.0,13.0,6.0,15.0,7.0,2.0,5.0990195135927845,6.082762530298219,5.5,15.0,18.0,18.027756377319943,{}
59,86,10.0,45.044422518220834,4.0,8.06225774829855,11.04536101718726,12.0,8.0,30.01666203960727,22.0,17.0,15.0,13.0,6.0,16.0,7.0,2.0,6.082762530298219,6.082762530298219,5.5,16.0,19.0,18.027756377319943,{}
60,87,11.0,45.044422518220834,4.0,7.071067811865476,11.0,12.0,8.06225774829855,30.066592756745816,23.021728866442675,17.5,15.0,13.0,6.0,16.0,8.0,2.0,6.082762530298219,6.082762530298219,6.0,16.0,18.0,18.027756377319943,{}
61,88,11.0,46.04345773288535,5.0,7.071067811865476,12.041594578792296,13.0,8.06225774829855,31.064449134018133,24.020824298928627,18.5,16.0,14.0,7.0,16.0,8.0,3.0,5.0990195135927845,6.082762530298219,6.0,15.0,18.0,17.029386365926403,{}
62,89,12.041594578792296,45.044422518220834,4.0,8.0,11.0,13.0,8.0,32.01562118716424,24.020824298928627,18.0,16.0,14.0,7.0,17.0,9.0,3.0,6.0,6.082762530298219,6.0,15.0,19.0,17.029386365926403,{}
63,90,12.041594578792296,45.044422518220834,4.0,8.0,12.0,14.0,8.06225774829855,32.0624390837628,24.08318915758459,18.0,16.0,14.0,7.0,17.0,9.0,3.0,5.0990195135927845,6.0,6.0,14.0,17.0,17.029386365926403,{}
64,91,13.0,46.04345773288535,4.123105625617661,7.071067811865476,12.0,13.038404810405298,8.0,32.0624390837628,25.019992006393608,18.5,16.0,14.0,7.0,17.0,9.0,3.0,5.0990195135927845,6.082762530298219,5.5,15.0,18.0,17.029386365926403,{}
65,92,12.0,45.044422518220834,4.123105625617661,8.06225774829855,12.0,12.041594578792296,8.0,32.0624390837628,24.020824298928627,18.0,16.0,14.0,7.0,17.0,9.0,3.0,5.0,6.082762530298219,6.0,14.0,17.0,17.029386365926403,{}
66,93,13.0,45.044422518220834,4.123105625617661,8.06225774829855,12.041594578792296,13.0,8.0,33.06055050963308,25.019992006393608,18.5,16.0,14.0,7.0,18.0,10.0,3.0,5.0,5.0990195135927845,5.0,15.0,18.0,16.1245154965971,{}
67,94,13.0,45.044422518220834,3.0,8.06225774829855,12.041594578792296,13.0,9.055385138137416,33.06055050963308,25.019992006393608,18.5,16.0,14.0,6.0,18.0,10.0,3.0,6.0,5.0990195135927845,5.0,15.0,18.0,17.029386365926403,{}
68,95,12.041594578792296,45.0111097397076,4.0,7.0,11.0,13.038404810405298,8.0,31.016124838541646,24.020824298928627,18.0,15.0,14.0,6.5,16.5,8.5,2.5,5.0,6.082762530298219,6.0,15.0,18.0,17.11724276862369,{}
69,96,11.04536101718726,45.044422518220834,4.0,8.0,11.04536101718726,13.038404810405298,8.0,31.016124838541646,23.021728866442675,17.5,16.0,14.0,7.0,16.0,8.0,3.0,5.0,6.082762530298219,6.0,15.0,19.0,17.029386365926403,{}
70,97,10.04987562112089,44.04543109109048,4.0,8.0,11.04536101718726,13.0,8.0,30.01666203960727,22.02271554554524,17.0,15.0,13.0,6.0,16.0,8.0,3.0,5.0990195135927845,6.082762530298219,5.5,15.0,19.0,17.029386365926403,{}
71,98,6.082762530298219,44.04543109109048,5.0,8.0,11.04536101718726,12.041594578792296,9.055385138137416,28.0713376952364,20.09975124224178,17.0,15.0,13.0,5.0,14.0,6.0,1.0,5.0990195135927845,6.082762530298219,6.0,15.0,19.0,17.029386365926403,{}
72,99,2.0,43.04648650006177,4.0,8.06225774829855,10.04987562112089,11.04536101718726,11.0,25.019992006393608,17.0,16.0,15.0,13.0,3.0,11.0,3.0,1.0,5.0,5.0990195135927845,5.5,15.0,18.0,16.1245154965971,{}
73,100,1.0,43.04648650006177,5.0990195135927845,8.0,11.04536101718726,11.0,10.0,24.020824298928627,16.0312195418814,15.5,14.0,12.0,3.0,11.0,3.0,1.0,5.0,5.0990195135927845,5.0,14.0,18.0,16.0312195418814,{}
74,101,1.0,43.04648650006177,6.0,9.055385138137416,10.04987562112089,11.0,9.055385138137416,25.079872407968907,16.0312195418814,15.5,14.0,12.0,4.0,12.0,3.0,1.0,6.082762530298219,5.0990195135927845,5.5,14.0,17.0,16.0312195418814,{}
75,102,5.0990195135927845,45.0111097397076,5.0,7.0,11.0,12.0,8.0,25.019992006393608,18.027756377319943,15.5,13.0,12.0,4.5,12.5,4.5,0.5,5.0990195135927845,5.0990195135927845,5.0,14.0,18.0,17.11724276862369,{}
76,103,6.0,46.01086828130936,4.123105625617661,8.0,11.0,13.038404810405298,9.0,27.018512172212592,19.026297590440446,16.0,14.0,13.0,4.5,13.5,5.5,0.5,6.0,5.0990195135927845,5.0,14.0,18.0,17.029386365926403,{}
77,104,7.071067811865476,47.042533945356304,4.0,8.0,12.041594578792296,13.038404810405298,8.0,27.018512172212592,19.026297590440446,15.5,14.0,12.0,5.0,14.0,6.0,1.0,5.0990195135927845,5.0990195135927845,5.5,14.0,18.0,17.029386365926403,{}
78,105,7.071067811865476,47.042533945356304,4.0,8.0,12.041594578792296,14.0356688476182,8.06225774829855,27.073972741361768,19.1049731745428,15.5,14.0,12.0,5.0,14.0,6.0,1.0,5.0,6.324555320336759,6.0,14.0,18.0,17.029386365926403,{}
79,106,8.06225774829855,46.01086828130936,4.0,8.0,12.0,14.0,8.0,28.0178514522438,20.024984394500787,16.0,13.0,12.0,4.5,15.5,6.5,0.5,6.082762530298219,6.082762530298219,6.0,15.0,18.0,18.027756377319943,{}
80,107,4.123105625617661,45.0111097397076,5.0,8.0,12.041594578792296,12.041594578792296,9.0,26.019223662515376,18.027756377319943,16.0,13.0,12.0,3.5,13.5,5.5,0.5,5.0990195135927845,5.0990195135927845,5.5,15.0,19.0,17.029386365926403,{}
81,108,2.23606797749979,45.044422518220834,5.0,8.0,11.04536101718726,12.0,11.0,26.019223662515376,18.027756377319943,17.0,14.0,12.0,2.0,13.0,5.0,2.0,5.0990195135927845,6.082762530298219,6.0,15.0,18.0,17.029386365926403,{}
82,109,2.23606797749979,44.01136216933077,5.0,8.0,11.04536101718726,12.0,10.0,25.019992006393608,17.029386365926403,16.0,12.0,11.0,1.5,13.5,4.5,2.5,6.082762530298219,6.324555320336759,6.0,15.0,18.0,17.029386365926403,{}
83,110,2.0,45.0111097397076,5.0990195135927845,8.0,11.0,11.0,10.04987562112089,25.0,17.0,16.0,12.0,11.0,1.5,13.5,4.5,3.5,6.082762530298219,6.082762530298219,6.0,15.0,18.0,17.029386365926403,{}
84,111,2.0,45.0111097397076,4.123105625617661,8.0,11.0,12.041594578792296,10.0,24.020824298928627,16.0312195418814,15.0,12.0,11.0,1.5,12.5,4.5,2.5,6.082762530298219,6.082762530298219,5.5,15.0,18.0,16.0312195418814,{}
85,112,6.0,46.04345773288535,4.0,8.06225774829855,12.0,13.038404810405298,8.06225774829855,26.0768096208106,18.027756377319943,15.0,13.0,11.0,4.0,14.0,6.0,0.0,5.0990195135927845,5.0990195135927845,5.0,15.0,18.0,18.027756377319943,{}
86,113,6.082762530298219,48.04164859785725,5.0,8.0,11.04536101718726,13.0,8.0,27.018512172212592,19.026297590440446,16.0,13.0,11.0,4.0,15.0,7.0,0.0,5.0,5.385164807134504,5.5,14.0,18.0,17.029386365926403,{}
87,114,7.0,47.042533945356304,4.123105625617661,8.0,12.041594578792296,13.0,8.0,27.018512172212592,19.026297590440446,15.5,13.0,11.0,4.0,15.0,7.0,1.0,6.0,5.0990195135927845,5.0,15.0,18.0,17.11724276862369,{}
88,115,8.0,47.09564735726647,4.123105625617661,7.0,12.0,13.038404810405298,8.0,27.018512172212592,20.024984394500787,16.0,14.0,11.0,4.5,14.5,7.5,0.5,6.0,5.0990195135927845,5.5,15.0,18.0,17.029386365926403,{}
89,116,9.055385138137416,46.09772228646444,4.0,7.0,11.0,13.038404810405298,7.071067811865476,27.073972741361768,20.09975124224178,15.5,14.0,11.0,5.5,14.5,6.5,1.5,5.0,6.082762530298219,6.0,14.0,18.0,17.029386365926403,{}
90,117,8.06225774829855,46.09772228646444,4.0,8.0,12.041594578792296,13.0,7.071067811865476,27.073972741361768,19.1049731745428,15.0,14.0,11.0,5.5,14.5,6.5,2.5,5.0,5.385164807134504,5.0,14.0,18.0,17.029386365926403,{}
91,118,8.06225774829855,45.09988913511872,4.0,8.0,12.041594578792296,14.0356688476182,7.071067811865476,27.073972741361768,19.1049731745428,15.0,14.0,11.0,5.5,14.5,6.5,2.5,5.0,5.0990195135927845,5.0,14.0,18.0,18.027756377319943,{}
92,119,8.0,44.04543109109048,4.123105625617661,8.0,11.04536101718726,12.041594578792296,7.071067811865476,27.073972741361768,19.1049731745428,15.0,14.0,12.0,6.0,14.0,6.0,3.0,5.0,5.0990195135927845,5.0,14.0,18.0,17.029386365926403,{}
93,120,9.055385138137416,44.10215414239989,4.0,7.0,11.04536101718726,12.041594578792296,7.071067811865476,27.073972741361768,20.09975124224178,15.5,15.0,12.0,6.5,13.5,6.5,3.5,5.0,6.082762530298219,6.0,14.0,18.0,18.110770276274835,{}
94,121,9.055385138137416,44.04543109109048,4.0,8.0,11.04536101718726,12.041594578792296,7.071067811865476,28.0713376952364,20.09975124224178,15.5,15.0,13.0,7.0,14.0,6.0,3.0,6.0,6.082762530298219,6.0,14.0,18.0,18.027756377319943,{}
95,122,8.0,43.10452412450461,4.0,9.0,12.0,13.0,7.071067811865476,28.0178514522438,19.026297590440446,15.0,15.0,12.0,6.5,14.5,5.5,2.5,6.082762530298219,5.0990195135927845,5.0,15.0,18.0,18.027756377319943,{}
96,123,10.0,43.04648650006177,4.0,8.06225774829855,12.0,13.038404810405298,7.071067811865476,29.068883707497267,21.02379604162864,16.0,15.0,13.0,7.0,15.0,7.0,3.0,6.0,6.082762530298219,6.0,15.0,18.0,18.027756377319943,{}
97,124,10.0,43.10452412450461,4.0,8.06225774829855,11.04536101718726,12.041594578792296,7.071067811865476,29.068883707497267,21.02379604162864,16.0,16.0,13.0,7.5,14.5,6.5,3.5,5.0,5.0990195135927845,5.0,15.0,18.0,18.027756377319943,{}
98,125,10.0,43.10452412450461,3.0,8.0,11.04536101718726,13.038404810405298,8.06225774829855,29.017236257093817,21.02379604162864,16.0,16.0,13.0,6.5,14.5,6.5,3.5,5.0990195135927845,5.0990195135927845,5.0,15.0,18.0,18.027756377319943,{}
99,126,9.0,42.04759208325728,4.123105625617661,9.0,11.04536101718726,12.0,8.0,30.01666203960727,21.02379604162864,16.5,16.0,14.0,7.0,15.0,6.0,4.0,6.0,6.324555320336759,6.0,15.0,18.0,18.027756377319943,{}
100,127,9.0,41.01219330881976,4.123105625617661,8.0,11.04536101718726,12.041594578792296,8.0,29.017236257093817,21.02379604162864,16.5,15.0,14.0,6.5,14.5,6.5,3.5,6.0,6.082762530298219,6.0,15.0,18.0,17.029386365926403,{}
101,128,8.0,42.04759208325728,4.123105625617661,9.0,11.04536101718726,12.0,8.0,29.017236257093817,20.024984394500787,16.0,16.0,14.0,7.0,14.0,5.0,4.0,5.0,6.082762530298219,6.0,15.0,18.0,18.027756377319943,{}
102,129,9.0,41.01219330881976,5.0990195135927845,8.0,10.0,12.0,7.0,29.017236257093817,21.02379604162864,16.5,15.0,14.0,7.5,14.5,5.5,2.5,6.0,6.324555320336759,6.0,15.0,18.0,18.027756377319943,{}
103,130,8.0,41.01219330881976,4.123105625617661,8.0,11.04536101718726,12.041594578792296,8.0,28.0178514522438,20.024984394500787,16.0,15.0,14.0,6.5,13.5,5.5,3.5,5.0,6.082762530298219,6.0,15.0,18.0,18.027756377319943,{}
104,131,7.0,41.01219330881976,4.0,8.0,10.0,11.0,8.06225774829855,27.018512172212592,19.026297590440446,15.5,15.0,14.0,6.5,12.5,4.5,2.5,5.0,6.324555320336759,6.0,15.0,18.0,17.0,{}
105,132,5.0,41.04875150354759,4.123105625617661,7.0,10.0,11.04536101718726,9.055385138137416,25.079872407968907,18.110770276274835,15.5,16.0,14.0,6.0,10.0,2.0,2.0,6.0,6.324555320336759,6.0,15.0,19.0,17.029386365926403,{}
106,133,5.0,41.04875150354759,4.0,7.0,10.0,11.04536101718726,9.055385138137416,25.019992006393608,18.027756377319943,15.5,16.0,14.0,6.0,10.0,3.0,2.0,5.0990195135927845,6.082762530298219,6.0,16.0,19.0,17.029386365926403,{}
107,134,5.0990195135927845,40.049968789001575,4.0,7.0,11.0,12.041594578792296,9.0,25.019992006393608,18.027756377319943,15.5,16.0,14.0,6.0,10.0,3.0,2.0,5.0990195135927845,6.082762530298219,6.0,16.0,18.0,17.029386365926403,{}
108,135,5.0,39.01281840626232,4.0,8.0,10.0,11.04536101718726,9.055385138137416,26.019223662515376,18.027756377319943,15.5,16.0,15.0,6.5,10.5,2.5,2.5,5.0,6.324555320336759,6.0,16.0,18.0,17.029386365926403,{}
109,136,4.123105625617661,40.01249804748511,5.0,8.0,10.04987562112089,11.04536101718726,9.055385138137416,26.0768096208106,18.110770276274835,16.0,16.0,15.0,6.5,10.5,2.5,2.5,6.082762530298219,5.0990195135927845,5.0,16.0,18.0,17.029386365926403,{}
110,137,4.123105625617661,40.01249804748511,4.0,8.0,9.055385138137416,11.04536101718726,9.055385138137416,25.079872407968907,17.11724276862369,15.0,15.0,14.0,5.5,10.5,2.5,1.5,6.082762530298219,5.0990195135927845,5.5,16.0,18.0,17.029386365926403,{}
111,138,5.0,39.01281840626232,4.123105625617661,8.0,9.0,11.0,9.055385138137416,26.0768096208106,18.110770276274835,15.5,15.0,14.0,5.5,11.5,3.5,1.5,5.0,6.324555320336759,5.5,16.0,19.0,17.029386365926403,{}
112,139,5.0990195135927845,40.049968789001575,4.0,8.0,10.04987562112089,11.0,9.055385138137416,26.0768096208106,18.110770276274835,15.5,16.0,14.0,6.0,11.0,3.0,2.0,5.0990195135927845,6.082762530298219,6.0,15.0,18.0,17.029386365926403,{}
113,140,5.0,40.049968789001575,4.0,7.0,10.0,11.0,9.055385138137416,25.019992006393608,18.027756377319943,15.5,15.0,13.0,5.0,11.0,3.0,1.0,6.082762530298219,6.082762530298219,6.0,15.0,18.0,17.0,{}
114,141,4.0,40.11234224026316,4.0,8.06225774829855,10.04987562112089,11.04536101718726,9.055385138137416,25.079872407968907,17.029386365926403,15.0,16.0,13.0,5.5,10.5,3.5,1.5,2.23606797749979,3.1622776601683795,3.0,16.0,19.0,18.027756377319943,{}
115,142,5.0,40.049968789001575,4.123105625617661,8.0,10.04987562112089,11.04536101718726,9.055385138137416,26.0768096208106,18.110770276274835,15.5,15.0,13.0,5.0,12.0,4.0,1.0,3.1622776601683795,3.1622776601683795,3.0,16.0,19.0,17.029386365926403,{}
116,143,4.123105625617661,40.049968789001575,5.0,8.0,9.055385138137416,11.0,9.0,26.019223662515376,18.027756377319943,16.0,16.0,14.0,6.0,11.0,3.0,2.0,4.0,4.123105625617661,4.0,15.0,19.0,19.026297590440446,{}
117,144,5.0,39.05124837953327,4.0,9.055385138137416,10.04987562112089,10.04987562112089,9.055385138137416,27.073972741361768,18.027756377319943,15.5,16.0,14.0,6.0,12.0,4.0,2.0,5.0,4.123105625617661,4.0,15.0,18.0,17.11724276862369,{}
118,145,5.0990195135927845,39.11521443121589,5.0,9.0,10.04987562112089,10.0,8.06225774829855,27.073972741361768,18.110770276274835,15.5,16.0,13.0,6.5,12.5,3.5,2.5,5.0990195135927845,5.0990195135927845,5.0,16.0,19.0,17.0,{}
119,146,5.0,41.04875150354759,4.0,9.055385138137416,10.04987562112089,11.04536101718726,9.055385138137416,27.073972741361768,18.027756377319943,15.5,15.0,13.0,5.0,13.0,4.0,1.0,6.082762530298219,5.0990195135927845,5.0,15.0,19.0,17.029386365926403,{}
120,147,6.0,41.10960958218893,4.123105625617661,8.06225774829855,10.04987562112089,11.04536101718726,9.0,27.073972741361768,19.026297590440446,16.0,16.0,13.0,5.5,12.5,4.5,1.5,5.0990195135927845,5.0990195135927845,5.0,15.0,18.0,16.0,{}
121,148,5.0,41.10960958218893,5.0,9.055385138137416,10.04987562112089,11.04536101718726,8.06225774829855,27.073972741361768,18.027756377319943,15.5,15.0,12.0,5.5,13.5,4.5,0.5,5.0990195135927845,6.082762530298219,6.0,16.0,19.0,17.029386365926403,{}
122,149,5.0,41.10960958218893,5.0,10.04987562112089,10.04987562112089,11.04536101718726,8.06225774829855,28.0713376952364,18.027756377319943,15.5,15.0,12.0,5.5,14.5,5.5,1.5,5.0990195135927845,6.082762530298219,6.0,15.0,18.0,16.0312195418814,{}
123,150,7.0,41.10960958218893,5.0,9.055385138137416,10.04987562112089,12.041594578792296,8.06225774829855,29.068883707497267,20.024984394500787,16.5,16.0,13.0,6.5,14.5,5.5,1.5,5.0990195135927845,5.0990195135927845,5.0,16.0,18.0,17.029386365926403,{}
124,151,7.0,41.04875150354759,5.0,9.0,10.04987562112089,11.04536101718726,8.06225774829855,29.017236257093817,20.024984394500787,16.5,15.0,13.0,6.0,15.0,6.0,2.0,5.0990195135927845,5.0990195135927845,5.0,15.0,17.0,16.0,{}
125,152,7.0,40.049968789001575,5.0,10.0,10.04987562112089,11.04536101718726,8.06225774829855,30.01666203960727,20.024984394500787,16.5,16.0,14.0,7.0,15.0,5.0,2.0,6.0,5.0990195135927845,5.0,16.0,18.0,17.029386365926403,{}
126,153,6.082762530298219,40.11234224026316,5.0,10.0,11.04536101718726,11.04536101718726,9.0,30.01666203960727,20.024984394500787,17.0,17.0,14.0,6.5,14.5,4.5,2.5,5.0,6.082762530298219,6.0,16.0,18.0,17.029386365926403,{}
127,154,7.0,40.11234224026316,6.0,10.04987562112089,10.04987562112089,11.04536101718726,8.0,31.016124838541646,21.0,17.5,17.0,14.0,7.5,15.5,5.5,2.5,5.0990195135927845,6.324555320336759,6.0,16.0,18.0,16.0312195418814,{}
128,155,8.0,40.11234224026316,5.0,10.0,10.04987562112089,11.04536101718726,8.06225774829855,31.016124838541646,21.02379604162864,17.0,17.0,14.0,7.5,15.5,5.5,2.5,5.0990195135927845,6.082762530298219,6.0,15.0,17.0,17.0,{}
129,156,9.055385138137416,39.11521443121589,5.0,10.0,11.04536101718726,12.041594578792296,8.0,32.01562118716424,22.02271554554524,17.5,17.0,14.0,7.5,16.5,6.5,2.5,6.082762530298219,6.082762530298219,6.0,15.0,17.0,16.0,{}
130,157,8.0,39.11521443121589,5.0,11.04536101718726,10.04987562112089,11.0,8.0,32.01562118716424,21.0,17.0,17.0,14.0,7.5,16.5,5.5,2.5,6.0,6.324555320336759,6.0,16.0,18.0,17.0,{}
131,158,8.06225774829855,39.11521443121589,6.0,10.0,9.055385138137416,12.041594578792296,8.0,32.01562118716424,22.02271554554524,18.0,18.0,15.0,8.5,15.5,5.5,2.5,6.082762530298219,6.082762530298219,5.5,16.0,18.0,17.0,{}
132,159,8.0,40.11234224026316,6.082762530298219,10.0,10.04987562112089,12.041594578792296,8.0,32.01562118716424,22.02271554554524,18.0,17.0,14.0,7.5,16.5,6.5,2.5,5.0990195135927845,6.082762530298219,6.0,16.0,18.0,17.029386365926403,{}
133,160,8.0,38.11823710509184,6.0,10.0,10.04987562112089,11.04536101718726,8.06225774829855,32.01562118716424,22.02271554554524,18.0,18.0,15.0,8.5,15.5,5.5,3.5,6.082762530298219,6.082762530298219,5.5,16.0,18.0,16.0,{}
134,161,7.0,38.11823710509184,6.0,11.04536101718726,10.04987562112089,11.04536101718726,8.06225774829855,32.0624390837628,21.02379604162864,17.5,18.0,15.0,8.5,15.5,4.5,3.5,6.0,7.071067811865476,6.5,16.0,18.0,16.0,{}
135,162,8.0,37.12142238654117,6.0,11.0,10.0,11.0,8.06225774829855,33.015148038438355,22.02271554554524,18.0,19.0,16.0,9.5,15.5,4.5,3.5,5.0,6.082762530298219,6.0,16.0,19.0,17.029386365926403,{}
136,163,9.0,38.11823710509184,5.0,10.04987562112089,10.04987562112089,12.041594578792296,8.06225774829855,32.0624390837628,22.02271554554524,17.5,18.0,15.0,8.5,15.5,5.5,3.5,6.0,6.082762530298219,5.5,15.0,18.0,17.029386365926403,{}
137,164,9.0,37.12142238654117,6.082762530298219,10.0,10.04987562112089,11.0,7.0,32.01562118716424,22.02271554554524,17.5,18.0,15.0,9.5,15.5,5.5,4.5,6.0,6.082762530298219,6.0,15.0,17.0,16.0312195418814,{}
138,165,10.0,38.2099463490856,5.0,9.0,11.04536101718726,12.041594578792296,8.06225774829855,32.01562118716424,23.021728866442675,18.0,19.0,15.0,9.0,15.0,6.0,5.0,6.0,6.082762530298219,6.0,15.0,18.0,16.0312195418814,{}
139,166,9.0,38.2099463490856,5.0,10.04987562112089,10.04987562112089,12.041594578792296,8.06225774829855,32.0624390837628,22.02271554554524,17.5,19.0,15.0,9.0,15.0,5.0,5.0,6.082762530298219,6.082762530298219,6.0,15.0,19.0,17.029386365926403,{}
140,167,9.0,38.11823710509184,6.0,10.04987562112089,10.04987562112089,12.041594578792296,8.06225774829855,33.06055050963308,23.021728866442675,18.5,19.0,16.0,9.5,15.5,5.5,4.5,6.082762530298219,6.082762530298219,6.0,15.0,18.0,17.029386365926403,{}
141,168,12.0,37.21558813185679,5.0990195135927845,9.0,10.0,12.041594578792296,8.06225774829855,34.058772731852805,25.079872407968907,19.0,20.0,16.0,10.0,16.0,7.0,5.0,6.0,6.082762530298219,6.0,15.0,18.0,18.027756377319943,{}
142,169,11.04536101718726,37.21558813185679,5.0,10.0,11.04536101718726,12.041594578792296,8.06225774829855,34.058772731852805,24.08318915758459,18.5,20.0,16.0,10.0,16.0,6.0,5.0,6.082762530298219,6.082762530298219,6.0,16.0,19.0,16.0312195418814,{}
143,170,11.04536101718726,37.12142238654117,5.0,10.0,11.04536101718726,12.041594578792296,8.06225774829855,34.058772731852805,24.08318915758459,18.5,20.0,17.0,10.5,15.5,5.5,5.5,6.082762530298219,6.082762530298219,6.0,15.0,18.0,17.11724276862369,{}
144,171,11.0,36.22154055254967,5.0,10.04987562112089,11.04536101718726,12.041594578792296,8.06225774829855,34.058772731852805,24.020824298928627,18.5,20.0,16.0,10.0,16.0,6.0,5.0,6.082762530298219,6.082762530298219,6.0,15.0,18.0,17.029386365926403,{}
145,172,6.082762530298219,37.05401462729781,6.0,9.0,9.055385138137416,10.04987562112089,9.055385138137416,30.066592756745816,21.095023109728988,18.0,17.0,15.0,7.0,14.0,5.0,2.0,6.082762530298219,6.082762530298219,6.0,15.0,18.0,17.029386365926403,{}
146,173,3.1622776601683795,38.01315561749642,5.0,8.0,9.055385138137416,10.04987562112089,10.04987562112089,26.0768096208106,18.110770276274835,16.5,16.0,15.0,5.5,10.5,2.5,0.5,6.082762530298219,7.280109889280518,6.5,15.0,18.0,17.029386365926403,{}
147,174,3.0,38.05259518088089,5.0,7.071067811865476,9.0,11.0,10.04987562112089,25.079872407968907,18.027756377319943,16.5,16.0,14.0,5.0,10.0,2.0,0.0,6.082762530298219,6.082762530298219,6.0,15.0,19.0,17.029386365926403,{}
148,175,2.0,38.01315561749642,5.0,9.055385138137416,10.0,11.0,10.04987562112089,26.0768096208106,17.029386365926403,16.0,15.0,14.0,4.5,11.5,2.5,0.5,6.082762530298219,6.082762530298219,6.5,15.0,18.0,17.029386365926403,{}
149,176,3.0,40.049968789001575,5.0,9.055385138137416,10.0,11.0,9.055385138137416,26.0768096208106,17.029386365926403,15.5,16.0,14.0,6.0,11.0,2.0,1.0,6.082762530298219,6.082762530298219,6.5,14.0,18.0,17.029386365926403,{}
150,177,3.1622776601683795,40.049968789001575,6.0,9.0,10.04987562112089,12.0,9.0,27.018512172212592,18.027756377319943,16.5,17.0,15.0,7.0,11.0,2.0,2.0,5.0990195135927845,6.082762530298219,6.0,15.0,18.0,16.0312195418814,{}
151,178,4.0,41.01219330881976,5.0,9.055385138137416,10.0,11.0,9.055385138137416,27.073972741361768,18.027756377319943,16.0,16.0,15.0,6.5,11.5,1.5,1.5,6.0,6.082762530298219,6.0,15.0,18.0,17.029386365926403,{}
152,179,4.0,41.10960958218893,6.082762530298219,9.0,10.04987562112089,11.04536101718726,8.0,27.018512172212592,18.027756377319943,16.0,17.0,14.0,7.5,11.5,2.5,2.5,6.0,6.324555320336759,6.0,15.0,18.0,18.027756377319943,{}
153,180,4.0,41.04875150354759,5.0990195135927845,10.04987562112089,11.04536101718726,11.0,8.0,27.073972741361768,17.029386365926403,15.0,16.0,14.0,7.0,12.0,2.0,2.0,6.0,6.082762530298219,6.0,15.0,18.0,17.029386365926403,{}
154,181,4.123105625617661,41.10960958218893,6.0,9.0,10.0,11.04536101718726,7.071067811865476,26.0768096208106,17.11724276862369,15.0,16.0,13.0,7.5,11.5,2.5,1.5,6.082762530298219,6.082762530298219,6.0,16.0,19.0,17.029386365926403,{}
155,182,5.0990195135927845,41.04875150354759,5.0,9.0,10.04987562112089,11.04536101718726,8.06225774829855,27.073972741361768,18.110770276274835,15.5,16.0,14.0,7.0,12.0,3.0,2.0,6.082762530298219,6.082762530298219,6.0,15.0,18.0,17.029386365926403,{}
156,183,5.0,41.10960958218893,5.0990195135927845,9.055385138137416,10.0,11.04536101718726,8.0,27.073972741361768,18.027756377319943,15.5,16.0,13.0,6.5,12.5,3.5,1.5,6.0,6.082762530298219,6.0,15.0,18.0,17.029386365926403,{}
157,184,5.0990195135927845,41.10960958218893,5.0,10.0,9.055385138137416,11.04536101718726,7.071067811865476,27.073972741361768,17.11724276862369,14.5,16.0,13.0,7.5,12.5,3.5,2.5,6.0,6.082762530298219,6.0,15.0,18.0,18.027756377319943,{}
158,185,5.0990195135927845,40.11234224026316,5.0,10.0,11.04536101718726,11.0,8.06225774829855,28.0713376952364,18.110770276274835,15.5,17.0,14.0,7.5,12.5,3.5,2.5,6.082762530298219,6.082762530298219,6.0,15.0,19.0,17.029386365926403,{}
159,186,5.0990195135927845,39.11521443121589,5.0,9.0,10.0,11.04536101718726,8.06225774829855,27.073972741361768,18.110770276274835,15.5,17.0,14.0,7.5,11.5,2.5,2.5,6.082762530298219,6.082762530298219,6.0,14.0,18.0,17.029386365926403,{}
160,187,6.0,39.11521443121589,5.0,9.055385138137416,10.04987562112089,10.04987562112089,7.071067811865476,27.073972741361768,18.027756377319943,15.0,17.0,14.0,8.5,11.5,2.5,3.5,6.082762530298219,6.082762530298219,6.0,14.0,18.0,16.0312195418814,{}
161,188,6.0,39.11521443121589,5.0990195135927845,9.055385138137416,9.055385138137416,11.04536101718726,7.071067811865476,27.16615541441225,18.110770276274835,15.0,17.0,14.0,8.5,11.5,2.5,3.5,6.0,6.324555320336759,5.5,15.0,19.0,17.029386365926403,{}
162,189,5.0,39.11521443121589,5.0990195135927845,9.055385138137416,10.04987562112089,11.04536101718726,8.0,27.073972741361768,18.027756377319943,15.5,17.0,14.0,7.5,11.5,2.5,2.5,6.082762530298219,6.082762530298219,5.5,15.0,19.0,16.0312195418814,{}
163,190,5.0990195135927845,38.2099463490856,5.0,9.0,9.055385138137416,10.0,8.06225774829855,27.073972741361768,18.110770276274835,15.5,18.0,14.0,8.0,11.0,2.0,3.0,6.082762530298219,6.082762530298219,6.0,15.0,19.0,17.029386365926403,{}
164,191,4.0,38.11823710509184,5.0,9.055385138137416,10.0,11.04536101718726,9.219544457292889,27.16615541441225,18.110770276274835,16.0,17.0,14.0,6.5,11.5,2.5,1.5,5.0990195135927845,6.082762530298219,6.0,15.0,19.0,16.0312195418814,{}
165,192,3.1622776601683795,37.12142238654117,6.0,9.0,10.04987562112089,10.0,9.219544457292889,27.16615541441225,18.24828759089466,16.5,18.0,15.0,7.5,10.5,1.5,1.5,6.082762530298219,6.082762530298219,6.0,15.0,19.0,17.029386365926403,{}
166,193,2.23606797749979,37.12142238654117,6.0,9.0,9.055385138137416,10.04987562112089,9.0,26.019223662515376,17.029386365926403,16.0,17.0,14.0,6.5,10.5,1.5,1.5,6.082762530298219,6.082762530298219,6.0,14.0,18.0,16.0312195418814,{}
167,194,3.0,37.21558813185679,6.0,9.055385138137416,9.055385138137416,10.04987562112089,9.219544457292889,27.16615541441225,18.110770276274835,16.5,18.0,14.0,7.0,11.0,2.0,1.0,6.0,6.082762530298219,6.0,14.0,18.0,17.11724276862369,{}
168,195,2.0,37.12142238654117,6.0,9.055385138137416,8.06225774829855,10.04987562112089,10.04987562112089,27.073972741361768,18.027756377319943,17.0,18.0,15.0,6.5,10.5,1.5,1.5,6.082762530298219,6.082762530298219,6.0,15.0,19.0,16.0312195418814,{}
169,196,2.0,36.12478373637688,6.082762530298219,9.055385138137416,9.055385138137416,11.04536101718726,10.0,27.073972741361768,18.027756377319943,17.0,18.0,15.0,6.5,10.5,2.5,0.5,7.0,6.082762530298219,6.0,15.0,19.0,15.033296378372908,{}
170,197,2.0,36.12478373637688,6.0,9.0,9.055385138137416,10.04987562112089,10.198039027185567,27.073972741361768,18.110770276274835,17.0,18.0,15.0,6.5,10.5,1.5,0.5,6.0,6.082762530298219,6.0,15.0,19.0,16.0312195418814,{}
171,198,2.23606797749979,36.05551275463989,6.0,9.0,9.055385138137416,10.04987562112089,9.055385138137416,26.0768096208106,17.11724276862369,16.0,17.0,15.0,7.0,10.0,1.0,1.0,6.0,6.082762530298219,6.0,15.0,19.0,15.033296378372908,{}
172,199,2.23606797749979,37.12142238654117,6.0,9.0,10.04987562112089,10.04987562112089,9.055385138137416,26.0768096208106,17.11724276862369,16.0,17.0,14.0,6.5,10.5,1.5,1.5,6.0,6.324555320336759,6.0,15.0,18.0,17.029386365926403,{}
173,200,2.0,39.05124837953327,6.082762530298219,9.055385138137416,10.04987562112089,11.04536101718726,9.0,26.0768096208106,17.029386365926403,16.0,16.0,14.0,6.0,11.0,2.0,1.0,6.0,6.082762530298219,6.0,15.0,18.0,16.0312195418814,{}
174,201,3.0,38.05259518088089,6.082762530298219,9.055385138137416,9.055385138137416,10.04987562112089,9.0,27.073972741361768,18.027756377319943,16.5,17.0,15.0,7.0,11.0,2.0,2.0,6.082762530298219,6.082762530298219,6.0,15.0,18.0,17.029386365926403,{}
175,202,4.0,39.05124837953327,6.0,9.055385138137416,10.04987562112089,12.041594578792296,8.06225774829855,27.073972741361768,18.027756377319943,16.0,16.0,14.0,7.0,12.0,3.0,2.0,6.0,6.082762530298219,6.0,15.0,18.0,16.0312195418814,{}
176,203,4.0,39.05124837953327,6.0,9.055385138137416,10.04987562112089,11.04536101718726,8.06225774829855,27.073972741361768,18.027756377319943,16.0,16.0,14.0,7.0,12.0,3.0,2.0,6.082762530298219,6.082762530298219,6.0,15.0,18.0,17.029386365926403,{}
177,204,5.0,39.05124837953327,5.0,10.0,10.04987562112089,11.0,9.055385138137416,29.017236257093817,19.026297590440446,16.5,17.0,15.0,7.0,13.0,3.0,2.0,6.082762530298219,6.082762530298219,6.0,15.0,18.0,16.0312195418814,{}
178,205,6.0,39.11521443121589,5.0,9.055385138137416,10.04987562112089,11.04536101718726,9.055385138137416,29.068883707497267,20.024984394500787,17.0,18.0,15.0,7.5,12.5,3.5,2.5,6.082762530298219,6.082762530298219,6.0,16.0,18.0,17.029386365926403,{}
179,206,5.0,38.11823710509184,6.082762530298219,9.0,9.0,11.04536101718726,8.0,28.0178514522438,19.026297590440446,16.5,18.0,15.0,8.5,11.5,2.5,2.5,6.0,6.082762530298219,6.0,15.0,18.0,17.029386365926403,{}
180,207,4.0,38.05259518088089,6.0,8.0,10.0,11.04536101718726,8.06225774829855,26.019223662515376,18.027756377319943,16.0,17.0,15.0,8.0,10.0,1.0,2.0,6.082762530298219,6.082762530298219,6.0,15.0,18.0,16.0312195418814,{}
181,208,3.1622776601683795,38.05259518088089,5.0,8.0,9.0,10.04987562112089,9.0,25.019992006393608,17.029386365926403,15.5,17.0,15.0,7.0,9.0,1.0,2.0,6.082762530298219,6.082762530298219,6.0,16.0,19.0,16.0312195418814,{}
182,209,2.0,38.05259518088089,5.0990195135927845,8.0,9.0,11.0,9.0,24.020824298928627,16.0312195418814,15.0,16.0,14.0,6.0,9.0,1.0,1.0,6.0,6.082762530298219,6.0,15.0,17.0,16.0312195418814,{}
183,210,3.0,38.05259518088089,5.0,8.0,10.04987562112089,11.0,9.055385138137416,25.019992006393608,17.029386365926403,15.5,17.0,15.0,7.0,9.0,1.0,2.0,6.082762530298219,6.082762530298219,6.0,16.0,19.0,16.0312195418814,{}
184,211,3.1622776601683795,38.05259518088089,5.0,8.0,9.055385138137416,11.04536101718726,10.04987562112089,26.0768096208106,18.110770276274835,16.5,17.0,15.0,6.0,10.0,2.0,2.0,6.082762530298219,6.082762530298219,6.0,15.0,17.0,16.0312195418814,{}
185,212,4.0,37.05401462729781,5.0,8.06225774829855,8.06225774829855,10.04987562112089,9.055385138137416,26.0768096208106,18.027756377319943,16.0,17.0,15.0,7.0,10.0,2.0,2.0,7.071067811865476,7.071067811865476,7.0,15.0,18.0,16.0312195418814,{}
186,213,2.23606797749979,37.01351104664349,6.0,8.0,9.055385138137416,10.04987562112089,10.04987562112089,26.0768096208106,18.110770276274835,17.0,17.0,16.0,6.5,9.5,0.5,1.5,6.082762530298219,6.082762530298219,6.0,15.0,18.0,17.029386365926403,{}
187,214,2.0,37.05401462729781,5.0990195135927845,9.0,9.055385138137416,10.0,9.055385138137416,25.079872407968907,16.1245154965971,15.0,17.0,15.0,7.0,9.0,0.0,2.0,6.082762530298219,6.082762530298219,6.0,15.0,18.0,16.0312195418814,{}
188,215,1.0,36.05551275463989,6.0,8.06225774829855,9.055385138137416,9.0,10.04987562112089,25.079872407968907,17.029386365926403,16.5,17.0,15.0,6.0,9.0,1.0,1.0,7.071067811865476,7.071067811865476,7.0,15.0,18.0,16.0,{}
189,216,3.0,36.05551275463989,5.0990195135927845,8.0,9.0,10.04987562112089,10.0,26.019223662515376,18.027756377319943,16.5,17.0,15.0,6.0,10.0,2.0,1.0,6.082762530298219,6.082762530298219,6.0,16.0,19.0,16.0312195418814,{}
190,217,2.0,36.05551275463989,6.082762530298219,8.0,9.055385138137416,10.0,10.0,26.019223662515376,18.027756377319943,17.0,18.0,16.0,7.0,9.0,1.0,2.0,6.082762530298219,7.071067811865476,7.0,15.0,18.0,16.0312195418814,{}
191,218,2.23606797749979,36.013886210738214,5.0,8.0,9.0,10.0,10.0,25.019992006393608,17.029386365926403,16.0,16.0,15.0,5.5,9.5,1.5,0.5,6.0,6.082762530298219,6.0,16.0,19.0,16.0312195418814,{}
192,219,2.0,37.01351104664349,5.0,8.06225774829855,10.0,11.0,10.04987562112089,25.079872407968907,17.029386365926403,16.0,16.0,15.0,5.5,9.5,1.5,0.5,3.0,4.123105625617661,4.0,15.0,18.0,16.0312195418814,{}
193,220,2.0,37.01351104664349,6.0,8.06225774829855,9.0,10.0,9.055385138137416,25.079872407968907,17.029386365926403,16.0,16.0,15.0,6.5,9.5,0.5,0.5,4.123105625617661,5.0,4.5,15.0,18.0,17.0,{}
194,221,2.23606797749979,36.013886210738214,6.0,9.0,9.055385138137416,10.0,9.055385138137416,26.0768096208106,17.11724276862369,16.0,16.0,15.0,6.5,10.5,1.5,1.5,4.0,4.0,3.5,15.0,18.0,16.0312195418814,{}
195,222,3.0,37.01351104664349,6.0,8.06225774829855,9.055385138137416,10.0,9.055385138137416,26.0768096208106,18.027756377319943,16.5,16.0,15.0,6.5,10.5,1.5,1.5,3.1622776601683795,4.123105625617661,4.0,15.0,17.0,17.0,{}
196,223,3.0,37.01351104664349,5.0,8.06225774829855,10.04987562112089,11.0,10.04987562112089,26.0768096208106,18.027756377319943,16.5,16.0,15.0,5.5,10.5,1.5,1.5,5.0990195135927845,5.0990195135927845,5.0,16.0,18.0,17.0,{}
197,224,2.0,37.01351104664349,5.0,8.06225774829855,10.04987562112089,11.04536101718726,10.04987562112089,25.079872407968907,17.029386365926403,16.0,16.0,15.0,5.5,9.5,0.5,1.5,5.0,5.0990195135927845,5.0,15.0,17.0,16.0,{}
198,225,1.4142135623730951,37.01351104664349,6.0,8.0,9.055385138137416,10.0,9.055385138137416,24.08318915758459,16.1245154965971,15.5,15.0,14.0,5.5,9.5,1.5,0.5,5.0,5.0990195135927845,5.5,15.0,17.0,17.029386365926403,{}
199,226,2.0,37.01351104664349,5.0,8.06225774829855,10.0,10.0,9.055385138137416,24.08318915758459,16.0312195418814,15.0,15.0,14.0,5.5,9.5,1.5,0.5,6.082762530298219,6.082762530298219,6.0,15.0,18.0,16.0,{}
200,227,1.0,37.01351104664349,6.0,9.0,10.04987562112089,11.0,9.055385138137416,25.019992006393608,16.0312195418814,15.5,15.0,14.0,5.5,10.5,1.5,0.5,5.0,5.0990195135927845,5.0,15.0,17.0,16.0312195418814,{}
201,228,3.0,38.05259518088089,5.0990195135927845,8.0,9.0,11.0,9.0,25.019992006393608,17.029386365926403,15.5,16.0,14.0,6.0,10.0,2.0,1.0,6.082762530298219,6.082762530298219,6.0,16.0,18.0,16.0312195418814,{}
202,229,4.123105625617661,38.05259518088089,5.0,9.0,10.04987562112089,11.0,9.0,27.018512172212592,18.027756377319943,16.0,16.0,14.0,6.0,12.0,3.0,2.0,6.082762530298219,6.082762530298219,6.0,16.0,18.0,16.0,{}
203,230,3.1622776601683795,38.05259518088089,5.0,9.0,9.055385138137416,11.04536101718726,9.0,26.019223662515376,17.029386365926403,15.5,16.0,14.0,6.0,11.0,2.0,2.0,6.082762530298219,6.082762530298219,6.0,16.0,18.0,16.0,{}
204,231,4.0,38.05259518088089,5.0990195135927845,9.0,9.055385138137416,11.04536101718726,8.0,26.019223662515376,17.029386365926403,15.0,16.0,14.0,7.0,11.0,2.0,2.0,6.082762530298219,6.082762530298219,6.0,15.0,17.0,16.0,{}
205,232,4.123105625617661,38.05259518088089,5.0,9.0,9.055385138137416,10.0,8.0,26.019223662515376,17.029386365926403,15.0,16.0,14.0,7.0,11.0,2.0,2.0,6.082762530298219,6.082762530298219,6.0,16.0,18.0,16.0,{}
206,233,4.0,38.05259518088089,5.0990195135927845,9.0,10.0,11.04536101718726,8.0,26.019223662515376,17.029386365926403,15.0,16.0,14.0,7.0,11.0,2.0,2.0,5.0,5.0990195135927845,5.0,15.0,18.0,17.0,{}
207,234,4.123105625617661,38.05259518088089,5.0,9.0,10.0,10.0,9.0,27.018512172212592,18.027756377319943,16.0,16.0,14.0,6.0,12.0,3.0,1.0,5.0,5.0990195135927845,5.0,16.0,18.0,17.0,{}
208,235,3.1622776601683795,39.05124837953327,5.0,9.0,10.04987562112089,11.04536101718726,9.0,26.019223662515376,17.029386365926403,15.5,16.0,14.0,6.0,11.0,2.0,2.0,6.082762530298219,6.082762530298219,6.0,16.0,18.0,17.0,{}
209,236,3.1622776601683795,39.05124837953327,6.0,9.0,9.055385138137416,11.04536101718726,8.0,26.019223662515376,17.029386365926403,15.5,16.0,14.0,7.0,11.0,2.0,2.0,6.082762530298219,6.082762530298219,6.0,16.0,18.0,16.0312195418814,{}
210,237,4.123105625617661,39.05124837953327,5.0,9.0,10.04987562112089,10.04987562112089,8.0,26.019223662515376,17.029386365926403,15.0,16.0,14.0,7.0,11.0,2.0,2.0,6.0,6.324555320336759,6.0,16.0,19.0,16.0,{}
211,238,5.0990195135927845,39.05124837953327,5.0,9.0,10.0,12.041594578792296,8.0,27.018512172212592,18.027756377319943,15.5,16.0,14.0,7.0,12.0,3.0,2.0,6.0,6.082762530298219,6.0,15.0,18.0,17.029386365926403,{}
212,239,6.082762530298219,38.05259518088089,6.0,9.0,10.04987562112089,11.04536101718726,8.0,29.017236257093817,20.024984394500787,17.0,17.0,15.0,8.0,13.0,4.0,3.0,6.0,6.082762530298219,6.0,16.0,19.0,17.029386365926403,{}
213,240,8.0,38.11823710509184,6.082762530298219,10.04987562112089,10.04987562112089,12.041594578792296,8.0,32.0624390837628,22.02271554554524,18.0,19.0,16.0,9.5,14.5,4.5,3.5,6.082762530298219,6.082762530298219,6.0,15.0,18.0,17.029386365926403,{}
214,241,11.04536101718726,38.11823710509184,6.0,10.04987562112089,11.04536101718726,13.038404810405298,8.0,35.05709628591621,25.019992006393608,19.5,21.0,18.0,11.5,15.5,5.5,5.5,5.0,6.082762530298219,6.0,16.0,19.0,17.029386365926403,{}
215,242,11.0,38.11823710509184,6.0,10.04987562112089,10.04987562112089,12.041594578792296,8.06225774829855,35.05709628591621,25.019992006393608,19.5,20.0,17.0,10.5,16.5,6.5,4.5,6.082762530298219,6.082762530298219,6.0,15.0,18.0,18.027756377319943,{}
216,243,12.041594578792296,39.20459156782532,5.0,11.0,11.04536101718726,13.038404810405298,9.055385138137416,37.05401462729781,26.0768096208106,20.0,21.0,17.0,10.0,18.0,7.0,5.0,6.0,6.082762530298219,6.0,16.0,19.0,16.0312195418814,{}
217,244,13.038404810405298,37.21558813185679,5.0,11.0,10.04987562112089,12.0,8.06225774829855,37.05401462729781,26.0768096208106,19.5,21.0,17.0,11.0,18.0,7.0,6.0,5.0,6.082762530298219,6.0,15.0,18.0,17.029386365926403,{}
218,245,13.0,39.20459156782532,5.0,11.04536101718726,10.04987562112089,12.0,9.055385138137416,38.05259518088089,27.018512172212592,20.5,22.0,18.0,11.0,18.0,7.0,6.0,6.082762530298219,6.082762530298219,6.0,16.0,19.0,17.029386365926403,{}
219,246,12.041594578792296,39.20459156782532,6.0,11.0,10.04987562112089,12.041594578792296,8.06225774829855,37.05401462729781,26.0768096208106,20.0,21.0,17.0,11.0,18.0,7.0,6.0,6.082762530298219,6.082762530298219,6.0,15.0,18.0,16.0312195418814,{}
220,247,12.041594578792296,39.11521443121589,6.0,11.0,10.04987562112089,12.041594578792296,8.06225774829855,37.05401462729781,26.0768096208106,20.0,21.0,18.0,11.5,17.5,6.5,5.5,5.0,6.082762530298219,6.0,15.0,18.0,17.029386365926403,{}
221,248,13.038404810405298,39.20459156782532,5.0,10.0,10.04987562112089,12.041594578792296,9.055385138137416,37.05401462729781,27.073972741361768,20.5,22.0,18.0,11.0,17.0,7.0,6.0,5.0990195135927845,6.082762530298219,6.0,15.0,18.0,17.029386365926403,{}
222,249,13.038404810405298,40.11234224026316,5.0,10.0,10.04987562112089,12.041594578792296,9.0,37.01351104664349,27.018512172212592,20.5,21.0,18.0,10.5,17.5,7.5,5.5,5.0990195135927845,6.082762530298219,6.0,15.0,18.0,17.11724276862369,{}
223,250,10.04987562112089,40.11234224026316,5.0,10.0,11.04536101718726,12.041594578792296,9.0,34.0147027033899,24.020824298928627,19.0,20.0,17.0,9.5,15.5,5.5,4.5,6.0,6.082762530298219,6.0,15.0,18.0,17.029386365926403,{}
224,251,8.06225774829855,40.19950248448356,5.0,9.0,10.04987562112089,12.0,9.0,31.016124838541646,22.02271554554524,18.0,20.0,16.0,9.0,13.0,4.0,4.0,5.0990195135927845,6.082762530298219,6.0,15.0,19.0,16.0312195418814,{}
225,252,7.071067811865476,41.10960958218893,5.0,8.0,10.04987562112089,11.0,8.06225774829855,28.0713376952364,20.09975124224178,16.5,18.0,15.0,8.5,11.5,3.5,3.5,6.082762530298219,6.082762530298219,6.0,15.0,18.0,17.11724276862369,{}
226,253,6.082762530298219,42.1070065428546,5.0,9.055385138137416,11.04536101718726,11.0,8.06225774829855,28.16025568065745,19.1049731745428,16.0,18.0,15.0,8.5,11.5,2.5,3.5,6.082762530298219,6.082762530298219,5.5,15.0,18.0,18.027756377319943,{}
227,254,6.082762530298219,42.190046219457976,5.0,9.0,11.04536101718726,11.04536101718726,8.06225774829855,28.0713376952364,19.1049731745428,16.0,18.0,14.0,8.0,12.0,3.0,3.0,5.0,6.324555320336759,6.0,16.0,19.0,17.029386365926403,{}
228,255,6.0,41.10960958218893,5.0990195135927845,9.055385138137416,11.04536101718726,12.041594578792296,8.0,28.0713376952364,19.026297590440446,16.0,18.0,15.0,8.5,11.5,2.5,3.5,6.0,6.082762530298219,6.0,15.0,19.0,18.027756377319943,{}
229,256,6.082762530298219,39.11521443121589,5.0,8.0,10.04987562112089,11.0,8.06225774829855,27.073972741361768,19.1049731745428,16.0,18.0,15.0,8.5,10.5,2.5,3.5,5.0,6.082762530298219,6.0,15.0,19.0,16.0312195418814,{}
230,257,5.0,38.2099463490856,5.0,9.055385138137416,10.04987562112089,11.04536101718726,9.219544457292889,28.16025568065745,19.1049731745428,16.5,19.0,15.0,8.0,11.0,2.0,3.0,6.0,6.082762530298219,6.0,15.0,18.0,17.029386365926403,{}
231,258,3.1622776601683795,37.21558813185679,5.0,8.0,9.219544457292889,11.04536101718726,11.04536101718726,27.073972741361768,19.1049731745428,17.5,19.0,15.0,6.0,10.0,2.0,2.0,6.0,6.082762530298219,6.0,15.0,19.0,17.029386365926403,{}
232,259,3.0,37.12142238654117,5.0990195135927845,8.06225774829855,9.055385138137416,10.04987562112089,11.04536101718726,27.16615541441225,19.1049731745428,17.5,18.0,15.0,5.5,10.5,2.5,0.5,6.0,6.082762530298219,6.0,15.0,19.0,17.029386365926403,{}
233,260,3.1622776601683795,37.12142238654117,4.0,8.0,9.055385138137416,11.0,12.041594578792296,27.073972741361768,19.1049731745428,17.5,18.0,15.0,4.5,10.5,2.5,0.5,5.0,6.082762530298219,6.0,15.0,19.0,17.029386365926403,{}
234,261,3.1622776601683795,37.12142238654117,5.0,8.0,9.055385138137416,10.04987562112089,11.180339887498947,27.16615541441225,19.235384061671343,17.5,18.0,15.0,5.5,10.5,2.5,0.5,5.0990195135927845,6.082762530298219,6.0,14.0,18.0,17.029386365926403,{}
235,262,4.0,38.11823710509184,6.082762530298219,8.06225774829855,9.055385138137416,11.04536101718726,9.055385138137416,27.16615541441225,19.1049731745428,17.0,18.0,15.0,7.5,10.5,2.5,2.5,5.0990195135927845,5.0990195135927845,5.0,14.0,18.0,16.0312195418814,{}
236,263,5.0990195135927845,39.11521443121589,5.0,9.0,10.04987562112089,12.041594578792296,9.055385138137416,28.0713376952364,19.1049731745428,16.5,18.0,15.0,7.5,11.5,2.5,2.5,5.0990195135927845,6.082762530298219,6.0,14.0,18.0,17.11724276862369,{}
237,264,4.123105625617661,39.20459156782532,6.0,10.0,10.04987562112089,11.04536101718726,9.055385138137416,29.068883707497267,19.1049731745428,17.0,19.0,15.0,8.0,12.0,3.0,3.0,5.0990195135927845,6.082762530298219,5.5,14.0,18.0,18.027756377319943,{}
238,265,4.0,39.11521443121589,6.082762530298219,10.04987562112089,11.04536101718726,11.04536101718726,9.055385138137416,29.154759474226505,19.1049731745428,17.0,19.0,16.0,8.5,11.5,1.5,3.5,5.0,6.082762530298219,6.0,14.0,19.0,17.11724276862369,{}
239,266,5.0990195135927845,38.3275357934736,6.0,9.055385138137416,11.04536101718726,12.041594578792296,9.055385138137416,29.154759474226505,20.09975124224178,17.5,20.0,15.0,8.5,11.5,2.5,3.5,5.0,6.082762530298219,6.0,14.0,18.0,17.029386365926403,{}
240,267,5.0,39.20459156782532,6.082762530298219,9.055385138137416,11.04536101718726,12.041594578792296,9.0,29.068883707497267,20.024984394500787,17.5,19.0,15.0,8.0,12.0,3.0,3.0,5.0,6.082762530298219,6.0,14.0,19.0,18.027756377319943,{}
241,268,4.0,39.20459156782532,6.082762530298219,10.04987562112089,10.04987562112089,12.16552506059644,8.0,28.0713376952364,18.027756377319943,16.0,18.0,14.0,8.0,12.0,3.0,3.0,5.0990195135927845,5.0990195135927845,5.0,14.0,18.0,17.029386365926403,{}
242,269,6.0,39.20459156782532,5.0990195135927845,9.055385138137416,10.04987562112089,11.0,8.0,28.0713376952364,19.026297590440446,16.0,18.0,14.0,8.0,12.0,3.0,3.0,6.082762530298219,6.324555320336759,6.0,15.0,19.0,18.027756377319943,{}
243,270,4.0,40.19950248448356,6.082762530298219,9.055385138137416,9.055385138137416,11.04536101718726,8.0,27.073972741361768,18.027756377319943,16.0,18.0,14.0,8.0,11.0,2.0,3.0,5.0990195135927845,6.082762530298219,6.0,15.0,19.0,18.027756377319943,{}
244,271,4.123105625617661,40.19950248448356,5.0,9.0,10.04987562112089,12.041594578792296,8.06225774829855,26.0768096208106,17.11724276862369,15.0,17.0,13.0,7.0,11.0,2.0,2.0,6.0,6.082762530298219,6.0,15.0,18.0,18.027756377319943,{}
245,272,5.0990195135927845,41.10960958218893,5.0990195135927845,9.0,11.04536101718726,12.041594578792296,8.0,27.073972741361768,18.110770276274835,15.5,17.0,14.0,7.5,11.5,2.5,2.5,6.0,5.0990195135927845,5.5,15.0,18.0,17.029386365926403,{}
246,273,4.123105625617661,40.19950248448356,6.0,9.055385138137416,11.04536101718726,12.041594578792296,7.071067811865476,26.1725046566048,17.11724276862369,15.0,17.0,13.0,8.0,11.0,2.0,3.0,5.0990195135927845,6.082762530298219,6.0,16.0,19.0,16.0312195418814,{}
247,274,5.0,40.19950248448356,6.082762530298219,9.055385138137416,10.198039027185567,12.041594578792296,8.06225774829855,28.16025568065745,19.1049731745428,16.5,18.0,14.0,8.0,12.0,3.0,3.0,5.0,6.082762530298219,6.0,14.0,17.0,16.0312195418814,{}
248,275,5.0,41.19465984809196,6.082762530298219,9.055385138137416,11.04536101718726,12.041594578792296,7.071067811865476,27.16615541441225,18.110770276274835,15.5,17.0,13.0,8.0,12.0,3.0,3.0,5.0990195135927845,6.082762530298219,6.0,16.0,19.0,16.0312195418814,{}
249,276,5.0990195135927845,40.19950248448356,5.0,9.0,10.04987562112089,12.041594578792296,8.246211251235321,27.16615541441225,18.24828759089466,15.5,18.0,14.0,8.0,11.0,2.0,3.0,5.0990195135927845,6.082762530298219,6.0,14.0,18.0,16.0312195418814,{}
250,277,5.0990195135927845,40.19950248448356,5.0990195135927845,9.0,10.04987562112089,12.041594578792296,8.0,27.073972741361768,18.110770276274835,15.5,18.0,14.0,8.0,11.0,2.0,3.0,6.082762530298219,6.082762530298219,6.0,14.0,18.0,16.0312195418814,{}
251,278,5.0990195135927845,40.11234224026316,6.0,9.0,10.04987562112089,11.04536101718726,7.071067811865476,27.073972741361768,18.110770276274835,15.5,17.0,14.0,8.5,11.5,2.5,3.5,6.0,5.0990195135927845,5.0,15.0,18.0,17.029386365926403,{}
252,279,6.082762530298219,39.20459156782532,5.0,9.055385138137416,10.04987562112089,11.04536101718726,8.06225774829855,28.16025568065745,19.1049731745428,16.0,18.0,14.0,8.0,12.0,3.0,3.0,6.0,6.082762530298219,6.0,15.0,18.0,16.0312195418814,{}
253,280,6.082762530298219,39.20459156782532,5.0990195135927845,9.0,10.04987562112089,11.04536101718726,8.0,28.0713376952364,19.1049731745428,16.0,18.0,14.0,8.0,12.0,3.0,3.0,6.0,6.324555320336759,6.0,15.0,18.0,17.029386365926403,{}
254,281,6.0,40.19950248448356,5.0990195135927845,9.055385138137416,11.04536101718726,12.041594578792296,8.0,28.0713376952364,19.026297590440446,16.0,18.0,14.0,8.0,12.0,3.0,3.0,5.0990195135927845,6.082762530298219,6.0,15.0,18.0,17.029386365926403,{}
255,282,5.0,41.10960958218893,6.082762530298219,9.055385138137416,11.04536101718726,12.041594578792296,8.0,28.0713376952364,19.026297590440446,16.5,18.0,15.0,8.5,11.5,2.5,3.5,5.0,6.082762530298219,6.0,15.0,18.0,16.0312195418814,{}
256,283,6.0,41.19465984809196,5.0990195135927845,10.04987562112089,11.04536101718726,12.041594578792296,8.0,29.068883707497267,19.026297590440446,16.0,18.0,14.0,8.0,13.0,4.0,3.0,5.0990195135927845,6.324555320336759,6.0,15.0,19.0,17.029386365926403,{}
257,284,7.0,40.11234224026316,5.0,11.04536101718726,10.04987562112089,12.0,8.06225774829855,31.064449134018133,20.024984394500787,16.5,18.0,15.0,8.5,14.5,4.5,3.5,5.0990195135927845,5.0990195135927845,5.0,15.0,18.0,16.0312195418814,{}
258,285,8.0,40.11234224026316,5.0,11.04536101718726,10.04987562112089,12.0,8.06225774829855,32.0624390837628,21.02379604162864,17.0,19.0,16.0,9.5,14.5,3.5,4.5,5.0,5.385164807134504,5.0,14.0,18.0,16.0312195418814,{}
259,286,9.0,39.20459156782532,5.0,10.04987562112089,10.04987562112089,12.041594578792296,8.06225774829855,32.0624390837628,22.02271554554524,17.5,19.0,15.0,9.0,15.0,5.0,4.0,5.0,6.082762530298219,6.0,15.0,18.0,16.0312195418814,{}
260,287,7.0,39.11521443121589,5.0,11.04536101718726,10.04987562112089,11.0,8.06225774829855,31.064449134018133,20.024984394500787,16.5,19.0,16.0,9.5,13.5,3.5,4.5,5.0,6.082762530298219,6.0,16.0,19.0,16.0312195418814,{}
261,288,5.0990195135927845,39.11521443121589,6.0,10.0,10.04987562112089,11.04536101718726,8.0,29.017236257093817,19.026297590440446,16.5,18.0,15.0,8.5,12.5,2.5,3.5,5.0990195135927845,6.082762530298219,6.0,15.0,19.0,16.0312195418814,{}
262,289,6.082762530298219,39.11521443121589,5.0,9.0,10.04987562112089,11.04536101718726,8.0,28.0178514522438,19.026297590440446,16.0,18.0,15.0,8.5,11.5,2.5,3.5,5.0990195135927845,6.082762530298219,6.0,14.0,18.0,16.0312195418814,{}
263,290,5.0990195135927845,41.10960958218893,6.0,9.0,10.04987562112089,11.04536101718726,8.06225774829855,28.0713376952364,19.1049731745428,16.5,18.0,15.0,8.5,11.5,2.5,3.5,5.0990195135927845,6.082762530298219,6.0,14.0,18.0,16.0312195418814,{}
264,291,5.0,40.11234224026316,5.0,9.055385138137416,10.0,12.041594578792296,9.055385138137416,28.0713376952364,19.026297590440446,16.5,18.0,15.0,7.5,11.5,2.5,2.5,5.0990195135927845,6.082762530298219,6.0,14.0,18.0,16.0312195418814,{}
265,292,6.0,40.19950248448356,5.0,9.055385138137416,10.04987562112089,12.041594578792296,9.055385138137416,29.068883707497267,20.024984394500787,17.0,19.0,15.0,8.0,12.0,3.0,3.0,5.0990195135927845,6.082762530298219,6.0,16.0,18.0,16.0312195418814,{}
266,293,5.0990195135927845,41.10960958218893,6.0,9.0,11.04536101718726,11.04536101718726,9.0,29.017236257093817,20.024984394500787,17.5,18.0,15.0,7.5,12.5,3.5,2.5,5.0990195135927845,6.082762530298219,6.0,16.0,18.0,17.029386365926403,{}
267,294,5.0990195135927845,40.11234224026316,5.0,9.0,10.04987562112089,12.0,9.055385138137416,28.0713376952364,19.1049731745428,16.5,17.0,14.0,6.5,12.5,3.5,1.5,5.0990195135927845,5.0990195135927845,5.0,15.0,18.0,17.029386365926403,{}
268,295,2.0,40.049968789001575,5.0990195135927845,8.0,11.04536101718726,12.0,11.04536101718726,26.0768096208106,18.110770276274835,17.0,17.0,15.0,5.0,10.0,2.0,1.0,6.082762530298219,6.082762530298219,6.0,15.0,18.0,16.0312195418814,{}
269,296,1.4142135623730951,40.049968789001575,6.0,8.06225774829855,11.04536101718726,11.04536101718726,10.0,25.079872407968907,17.029386365926403,16.5,16.0,14.0,5.0,10.0,2.0,0.0,6.082762530298219,6.082762530298219,6.0,15.0,18.0,16.0312195418814,{}
270,297,2.23606797749979,39.05124837953327,5.0,8.0,11.04536101718726,11.0,11.0,26.019223662515376,18.027756377319943,17.0,16.0,14.0,4.0,11.0,2.0,0.0,5.0990195135927845,6.082762530298219,6.0,15.0,18.0,16.0312195418814,{}
271,298,3.1622776601683795,40.11234224026316,5.0,9.0,11.04536101718726,12.041594578792296,10.0,27.018512172212592,18.027756377319943,16.5,17.0,14.0,5.5,11.5,2.5,0.5,6.082762530298219,6.082762530298219,6.0,16.0,19.0,17.029386365926403,{}
272,299,4.0,40.049968789001575,5.0,10.04987562112089,10.04987562112089,12.041594578792296,10.0,29.017236257093817,19.0,17.0,17.0,15.0,6.0,13.0,3.0,1.0,5.0,6.082762530298219,6.0,16.0,18.0,16.0312195418814,{}
273,300,5.0,40.049968789001575,5.0990195135927845,10.0,10.04987562112089,11.04536101718726,9.0,29.017236257093817,19.026297590440446,16.5,17.0,15.0,7.0,13.0,3.0,2.0,6.082762530298219,6.082762530298219,6.0,15.0,18.0,16.0,{}
274,301,6.0,40.11234224026316,5.0,9.055385138137416,10.04987562112089,11.04536101718726,9.055385138137416,29.068883707497267,20.024984394500787,17.0,18.0,15.0,7.5,12.5,3.5,2.5,6.0,6.082762530298219,6.0,16.0,18.0,17.0,{}
275,302,5.0990195135927845,41.04875150354759,5.0,9.0,10.0,12.041594578792296,8.0,27.018512172212592,18.027756377319943,15.5,16.0,14.0,7.0,12.0,3.0,2.0,2.0,4.0,3.5,16.0,19.0,17.029386365926403,{}
276,303,4.123105625617661,40.049968789001575,6.0,10.0,11.0,12.0,8.0,28.0178514522438,18.027756377319943,16.0,16.0,14.0,7.0,13.0,3.0,1.0,3.1622776601683795,3.1622776601683795,3.0,16.0,18.0,17.029386365926403,{}
277,304,6.0,40.049968789001575,5.0990195135927845,9.0,10.04987562112089,11.04536101718726,8.0,28.0178514522438,19.026297590440446,16.0,16.0,14.0,7.0,13.0,4.0,2.0,3.1622776601683795,3.0,3.0,16.0,19.0,17.0,{}
278,305,4.123105625617661,39.05124837953327,6.0,9.0,10.04987562112089,12.0,8.06225774829855,27.073972741361768,18.110770276274835,16.0,16.0,14.0,7.0,12.0,3.0,2.0,4.0,5.0990195135927845,4.5,16.0,18.0,16.0312195418814,{}
279,306,5.0,38.05259518088089,5.0,9.055385138137416,10.04987562112089,11.0,8.06225774829855,27.073972741361768,18.027756377319943,15.5,16.0,14.0,7.0,12.0,3.0,2.0,4.0,5.0,5.0,16.0,18.0,18.027756377319943,{}
280,307,3.1622776601683795,38.05259518088089,5.0,9.0,10.04987562112089,11.04536101718726,9.055385138137416,26.0768096208106,17.11724276862369,15.5,16.0,14.0,6.0,11.0,2.0,2.0,5.0,5.0,4.5,15.0,17.0,16.0312195418814,{}
281,308,3.0,38.01315561749642,5.0,9.055385138137416,10.04987562112089,11.04536101718726,9.055385138137416,26.0768096208106,17.029386365926403,15.5,16.0,15.0,6.5,10.5,1.5,1.5,5.0,5.0,5.5,16.0,18.0,18.0,{}
282,309,3.0,39.01281840626232,5.0,9.055385138137416,10.04987562112089,11.04536101718726,9.055385138137416,26.0768096208106,17.029386365926403,15.5,16.0,15.0,6.5,10.5,1.5,1.5,5.0,6.082762530298219,5.5,16.0,18.0,17.0,{}
283,310,3.0,39.05124837953327,5.0,9.055385138137416,10.04987562112089,11.04536101718726,9.055385138137416,26.0768096208106,17.029386365926403,15.5,16.0,14.0,6.0,11.0,2.0,1.0,5.0,6.082762530298219,5.5,16.0,18.0,17.029386365926403,{}
284,311,3.0,39.01281840626232,6.0,9.055385138137416,10.04987562112089,11.0,9.055385138137416,27.073972741361768,18.027756377319943,16.5,16.0,15.0,6.5,11.5,2.5,1.5,5.0990195135927845,6.082762530298219,6.0,16.0,18.0,17.029386365926403,{}
285,312,4.0,39.05124837953327,5.0,9.0,10.04987562112089,11.04536101718726,9.055385138137416,27.018512172212592,18.027756377319943,16.0,16.0,14.0,6.0,12.0,3.0,1.0,5.0990195135927845,6.082762530298219,6.0,16.0,18.0,18.027756377319943,{}
286,313,4.0,38.05259518088089,5.0,10.0,10.04987562112089,11.0,9.055385138137416,28.0178514522438,18.027756377319943,16.0,16.0,14.0,6.0,13.0,3.0,1.0,5.0,6.082762530298219,6.0,16.0,18.0,18.027756377319943,{}
287,314,4.0,38.05259518088089,5.0,10.04987562112089,10.0,11.04536101718726,9.055385138137416,28.0713376952364,18.027756377319943,16.0,16.0,14.0,6.0,13.0,3.0,1.0,5.0,5.0990195135927845,5.5,16.0,18.0,18.0,{}
288,315,5.0,38.05259518088089,6.0,9.0,10.04987562112089,11.04536101718726,8.06225774829855,28.0178514522438,19.026297590440446,16.5,16.0,14.0,7.0,13.0,4.0,2.0,5.0990195135927845,6.0,6.0,16.0,18.0,17.0,{}
289,316,5.0,38.05259518088089,6.0,9.0,10.04987562112089,11.04536101718726,8.06225774829855,28.0178514522438,19.026297590440446,16.5,16.0,14.0,7.0,13.0,4.0,2.0,5.0,5.385164807134504,5.0,16.0,17.0,17.0,{}
290,317,6.0,38.05259518088089,5.0,9.055385138137416,10.04987562112089,11.0,8.06225774829855,28.0713376952364,19.026297590440446,16.0,16.0,14.0,7.0,13.0,4.0,2.0,5.0990195135927845,5.0990195135927845,5.0,16.0,17.0,17.0,{}
291,318,5.0,39.05124837953327,5.0,10.0,10.0,11.0,8.06225774829855,28.0178514522438,18.027756377319943,15.5,16.0,14.0,7.0,13.0,3.0,2.0,6.082762530298219,6.082762530298219,5.5,16.0,17.0,16.0,{}
292,319,5.0,38.05259518088089,5.0990195135927845,9.0,10.0,11.04536101718726,8.0,27.018512172212592,18.027756377319943,15.5,16.0,14.0,7.0,12.0,3.0,2.0,6.082762530298219,6.0,5.5,16.0,17.0,16.0,{}
293,320,3.1622776601683795,38.05259518088089,6.0,10.0,11.04536101718726,12.0,9.055385138137416,28.0,18.0,16.5,17.0,15.0,7.0,12.0,2.0,2.0,6.082762530298219,6.082762530298219,6.0,16.0,18.0,16.0312195418814,{}
294,321,4.0,40.049968789001575,5.0990195135927845,10.0,11.04536101718726,12.041594578792296,9.055385138137416,28.0,18.0,16.0,17.0,15.0,7.0,12.0,2.0,2.0,6.082762530298219,6.082762530298219,6.0,16.0,18.0,16.0,{}
295,322,5.0,39.05124837953327,5.0990195135927845,9.0,11.0,12.0,9.0,28.0178514522438,19.026297590440446,16.5,17.0,15.0,7.0,12.0,2.0,2.0,6.082762530298219,6.324555320336759,6.0,16.0,18.0,16.0,{}
296,323,5.0,38.05259518088089,6.082762530298219,11.0,11.0,12.0,8.0,30.01666203960727,19.026297590440446,16.5,17.0,15.0,8.0,14.0,3.0,2.0,6.082762530298219,5.385164807134504,5.0,15.0,18.0,16.0,{}
297,324,6.0,38.11823710509184,6.0,11.0,10.04987562112089,11.0,9.055385138137416,32.01562118716424,21.02379604162864,18.0,19.0,16.0,8.5,14.5,3.5,3.5,6.082762530298219,6.082762530298219,6.0,15.0,18.0,17.029386365926403,{}
298,325,7.0,38.11823710509184,7.0,10.04987562112089,10.04987562112089,12.041594578792296,8.0,32.01562118716424,22.0,18.5,19.0,16.0,9.5,14.5,3.5,3.5,5.0990195135927845,6.082762530298219,6.0,16.0,18.0,17.0,{}
299,326,8.06225774829855,38.05259518088089,6.0,11.0,11.04536101718726,12.041594578792296,9.0,34.0147027033899,23.021728866442675,19.0,20.0,18.0,10.0,15.0,4.0,4.0,6.082762530298219,6.082762530298219,6.5,16.0,19.0,17.029386365926403,{}
300,327,10.0,37.05401462729781,6.082762530298219,10.0,11.04536101718726,12.041594578792296,8.0,34.0147027033899,24.020824298928627,19.0,20.0,18.0,11.0,15.0,5.0,5.0,6.082762530298219,6.082762530298219,6.0,15.0,18.0,17.029386365926403,{}
301,328,10.0,37.12142238654117,6.082762530298219,11.0,11.04536101718726,12.0,8.0,35.0142828000232,24.020824298928627,19.0,20.0,17.0,10.5,16.5,5.5,4.5,6.082762530298219,6.082762530298219,6.0,16.0,19.0,17.029386365926403,{}
302,329,9.0,37.12142238654117,7.071067811865476,11.04536101718726,11.04536101718726,13.038404810405298,8.0,35.05709628591621,24.020824298928627,19.5,21.0,18.0,11.5,15.5,4.5,5.5,6.082762530298219,6.082762530298219,6.0,15.0,18.0,17.029386365926403,{}
303,330,11.0,38.2099463490856,6.082762530298219,11.04536101718726,10.04987562112089,12.041594578792296,8.0,36.05551275463989,25.019992006393608,19.5,21.0,17.0,11.0,17.0,6.0,5.0,6.082762530298219,6.082762530298219,6.0,15.0,19.0,18.110770276274835,{}
304,331,10.0,37.12142238654117,7.071067811865476,11.04536101718726,10.04987562112089,12.041594578792296,8.0,36.05551275463989,25.019992006393608,20.0,21.0,18.0,11.5,16.5,5.5,5.5,6.0,7.280109889280518,6.5,16.0,19.0,18.110770276274835,{}
305,332,11.04536101718726,37.12142238654117,6.0,11.0,11.04536101718726,12.041594578792296,9.0,37.01351104664349,26.019223662515376,20.5,22.0,19.0,11.5,16.5,5.5,6.5,6.0,6.082762530298219,6.0,15.0,19.0,18.027756377319943,{}
306,333,11.0,36.12478373637688,7.071067811865476,10.04987562112089,11.04536101718726,12.041594578792296,8.0,36.05551275463989,26.019223662515376,20.5,21.0,18.0,11.5,16.5,6.5,5.5,5.0,6.082762530298219,6.0,15.0,19.0,17.11724276862369,{}
307,334,11.04536101718726,38.11823710509184,7.0,11.04536101718726,11.04536101718726,12.041594578792296,8.0,37.05401462729781,26.019223662515376,20.5,21.0,18.0,11.5,17.5,6.5,5.5,5.0,6.082762530298219,6.0,15.0,19.0,16.0312195418814,{}
308,335,3.0,37.05401462729781,6.0,9.055385138137416,10.04987562112089,11.04536101718726,10.0,28.0178514522438,19.0,17.5,17.0,15.0,6.0,12.0,3.0,1.0,6.0,6.082762530298219,6.0,15.0,19.0,18.027756377319943,{}
309,336,2.0,38.05259518088089,5.0990195135927845,9.0,9.055385138137416,10.04987562112089,10.0,26.019223662515376,17.029386365926403,16.0,17.0,15.0,6.0,10.0,1.0,1.0,6.0,6.082762530298219,6.0,15.0,18.0,16.0312195418814,{}
310,337,2.0,37.05401462729781,5.0990195135927845,9.0,9.055385138137416,10.04987562112089,10.0,26.019223662515376,17.029386365926403,16.0,17.0,15.0,6.0,10.0,1.0,1.0,5.0990195135927845,6.082762530298219,6.0,14.0,17.0,16.0312195418814,{}
311,338,4.123105625617661,38.05259518088089,5.0,9.0,10.04987562112089,12.041594578792296,9.055385138137416,27.073972741361768,18.110770276274835,16.0,17.0,15.0,7.0,11.0,2.0,2.0,5.0990195135927845,6.324555320336759,6.0,14.0,18.0,16.0312195418814,{}
312,339,4.0,39.05124837953327,6.082762530298219,10.0,9.0,11.04536101718726,9.055385138137416,29.068883707497267,19.1049731745428,17.0,18.0,16.0,8.0,12.0,2.0,2.0,6.082762530298219,6.082762530298219,6.0,15.0,19.0,16.1245154965971,{}
313,340,4.0,38.05259518088089,7.071067811865476,10.0,10.04987562112089,11.04536101718726,8.06225774829855,29.068883707497267,19.1049731745428,17.0,18.0,16.0,9.0,12.0,2.0,3.0,6.0,6.082762530298219,6.0,14.0,18.0,16.1245154965971,{}
314,341,4.123105625617661,38.11823710509184,6.0,10.0,9.0,11.04536101718726,8.06225774829855,28.0713376952364,18.110770276274835,16.0,18.0,15.0,8.5,11.5,1.5,2.5,5.0,6.082762530298219,6.0,14.0,18.0,16.1245154965971,{}
315,342,4.123105625617661,39.05124837953327,6.0,9.0,10.04987562112089,12.041594578792296,8.06225774829855,27.073972741361768,18.110770276274835,16.0,17.0,15.0,8.0,11.0,2.0,3.0,6.0,6.082762530298219,6.0,14.0,19.0,17.029386365926403,{}
316,343,4.123105625617661,39.11521443121589,6.0,9.0,10.04987562112089,12.041594578792296,8.06225774829855,27.073972741361768,18.110770276274835,16.0,17.0,14.0,7.5,11.5,2.5,2.5,6.0,6.082762530298219,6.0,14.0,18.0,17.029386365926403,{}
317,344,4.123105625617661,39.11521443121589,5.0,9.0,10.04987562112089,11.04536101718726,9.055385138137416,27.073972741361768,18.110770276274835,16.0,18.0,15.0,7.5,10.5,1.5,2.5,6.082762530298219,6.082762530298219,6.0,15.0,19.0,17.11724276862369,{}
318,345,4.123105625617661,39.05124837953327,6.0,8.0,10.04987562112089,11.04536101718726,8.06225774829855,26.0768096208106,18.110770276274835,16.0,17.0,15.0,8.0,10.0,2.0,3.0,5.0,6.082762530298219,6.0,14.0,19.0,17.11724276862369,{}
319,346,4.123105625617661,39.11521443121589,6.0,8.0,9.055385138137416,11.04536101718726,8.06225774829855,26.0768096208106,18.110770276274835,16.0,17.0,14.0,7.5,10.5,2.5,2.5,5.0,6.082762530298219,6.0,14.0,19.0,16.0312195418814,{}
320,347,3.1622776601683795,39.11521443121589,6.0,9.055385138137416,9.055385138137416,11.04536101718726,9.055385138137416,27.16615541441225,18.110770276274835,16.5,18.0,15.0,7.5,10.5,1.5,2.5,5.0,6.082762530298219,6.0,14.0,18.0,16.1245154965971,{}
321,348,3.1622776601683795,38.11823710509184,6.0,9.055385138137416,9.055385138137416,10.04987562112089,9.055385138137416,27.16615541441225,18.110770276274835,16.5,18.0,15.0,7.5,10.5,1.5,2.5,5.0,6.082762530298219,6.0,14.0,19.0,16.0312195418814,{}
322,349,3.0,39.11521443121589,6.082762530298219,9.055385138137416,10.04987562112089,11.04536101718726,9.055385138137416,27.16615541441225,18.110770276274835,16.5,18.0,15.0,7.5,10.5,1.5,2.5,5.0,6.082762530298219,6.0,14.0,19.0,17.029386365926403,{}
323,350,3.1622776601683795,39.11521443121589,6.0,9.0,10.04987562112089,11.04536101718726,9.219544457292889,27.16615541441225,18.24828759089466,16.5,18.0,15.0,7.5,10.5,2.5,2.5,5.0990195135927845,6.082762530298219,6.0,14.0,19.0,16.0312195418814,{}
324,351,5.0990195135927845,39.20459156782532,5.0,8.0,10.04987562112089,11.04536101718726,8.06225774829855,26.0768096208106,18.110770276274835,15.5,18.0,14.0,8.0,10.0,2.0,3.0,6.082762530298219,6.082762530298219,6.0,14.0,19.0,17.029386365926403,{}
325,352,5.0990195135927845,39.20459156782532,5.0,9.0,10.04987562112089,11.04536101718726,8.06225774829855,27.073972741361768,18.110770276274835,15.5,18.0,14.0,8.0,11.0,2.0,3.0,6.0,6.082762530298219,6.0,14.0,19.0,17.11724276862369,{}
326,353,5.0990195135927845,38.2099463490856,5.0,9.0,10.04987562112089,11.04536101718726,8.06225774829855,27.073972741361768,18.110770276274835,15.5,18.0,14.0,8.0,11.0,2.0,3.0,5.0990195135927845,6.082762530298219,6.0,13.0,19.0,17.11724276862369,{}
327,354,5.0990195135927845,38.11823710509184,6.0,9.055385138137416,10.04987562112089,11.04536101718726,7.071067811865476,27.16615541441225,18.110770276274835,15.5,18.0,15.0,9.5,10.5,1.5,3.5,6.0,6.082762530298219,6.0,14.0,19.0,17.029386365926403,{}
328,355,5.0990195135927845,38.11823710509184,6.0,9.0,10.04987562112089,11.04536101718726,7.071067811865476,27.073972741361768,18.110770276274835,15.5,18.0,15.0,9.5,10.5,1.5,3.5,5.0,5.0990195135927845,5.5,13.0,19.0,17.029386365926403,{}
329,356,5.0,38.11823710509184,6.082762530298219,9.055385138137416,10.04987562112089,12.041594578792296,7.071067811865476,27.16615541441225,18.110770276274835,15.5,18.0,15.0,9.5,10.5,1.5,3.5,5.0,6.082762530298219,6.0,14.0,19.0,17.029386365926403,{}
330,357,4.0,39.20459156782532,6.082762530298219,9.055385138137416,10.04987562112089,12.16552506059644,7.071067811865476,26.1725046566048,17.11724276862369,15.0,18.0,14.0,9.0,10.0,2.0,4.0,6.0,6.082762530298219,6.0,13.0,19.0,17.11724276862369,{}
331,358,5.0990195135927845,38.11823710509184,6.0,9.055385138137416,9.055385138137416,11.04536101718726,7.071067811865476,27.16615541441225,18.110770276274835,15.5,17.0,14.0,8.5,11.5,2.5,3.5,6.0,6.082762530298219,6.0,13.0,19.0,17.11724276862369,{}
332,359,6.0,38.11823710509184,5.0990195135927845,8.06225774829855,9.055385138137416,11.04536101718726,7.071067811865476,26.1725046566048,18.110770276274835,15.0,17.0,14.0,8.5,10.5,2.5,3.5,6.0,6.082762530298219,6.0,13.0,19.0,17.11724276862369,{}
333,360,4.123105625617661,38.11823710509184,6.0,10.0,10.0,11.0,7.280109889280518,27.16615541441225,17.26267650163207,15.0,17.0,14.0,8.5,11.5,2.5,2.5,6.0,6.082762530298219,6.0,14.0,19.0,16.0312195418814,{}
334,361,3.0,38.11823710509184,6.082762530298219,9.055385138137416,9.0,10.04987562112089,8.06225774829855,26.1725046566048,17.11724276862369,15.5,18.0,15.0,8.5,9.5,0.5,2.5,5.0990195135927845,6.082762530298219,6.0,13.0,19.0,17.029386365926403,{}
335,362,3.0,38.11823710509184,5.0990195135927845,9.055385138137416,9.055385138137416,10.04987562112089,8.06225774829855,25.179356624028344,16.1245154965971,14.5,17.0,14.0,7.5,9.5,0.5,2.5,6.0,6.082762530298219,6.0,15.0,19.0,16.1245154965971,{}
336,363,3.0,38.11823710509184,5.0990195135927845,9.055385138137416,9.055385138137416,10.0,8.06225774829855,25.179356624028344,16.1245154965971,14.5,17.0,14.0,7.5,9.5,1.5,2.5,5.0,6.082762530298219,6.0,13.0,18.0,16.0312195418814,{}
337,364,4.0,40.11234224026316,5.0990195135927845,9.055385138137416,9.055385138137416,11.04536101718726,8.06225774829855,26.1725046566048,17.11724276862369,15.0,17.0,14.0,7.5,10.5,1.5,2.5,6.082762530298219,6.082762530298219,6.0,14.0,19.0,17.11724276862369,{}
338,365,4.0,39.11521443121589,6.082762530298219,9.055385138137416,9.055385138137416,11.04536101718726,8.06225774829855,27.16615541441225,18.110770276274835,16.0,18.0,15.0,8.5,10.5,1.5,3.5,6.0,6.082762530298219,6.0,15.0,19.0,18.027756377319943,{}
339,366,5.0990195135927845,41.10960958218893,6.0,8.0,10.04987562112089,12.0,7.071067811865476,26.0768096208106,18.110770276274835,15.5,17.0,14.0,8.5,10.5,2.5,3.5,6.082762530298219,6.082762530298219,6.0,15.0,19.0,17.029386365926403,{}
340,367,4.123105625617661,41.04875150354759,5.0,10.0,10.04987562112089,11.04536101718726,9.055385138137416,28.0713376952364,18.110770276274835,16.0,18.0,16.0,8.0,11.0,2.0,3.0,5.0990195135927845,6.082762530298219,5.5,14.0,18.0,17.029386365926403,{}
341,368,4.123105625617661,43.10452412450461,6.0,10.0,10.04987562112089,11.0,8.06225774829855,28.0713376952364,18.110770276274835,16.0,17.0,14.0,7.5,12.5,2.5,2.5,6.0,6.082762530298219,6.0,15.0,18.0,17.029386365926403,{}
342,369,6.0,42.04759208325728,6.0,10.04987562112089,10.04987562112089,11.04536101718726,8.0,30.01666203960727,20.0,17.0,17.0,15.0,8.0,14.0,4.0,2.0,6.082762530298219,6.082762530298219,6.0,16.0,19.0,18.027756377319943,{}
343,370,6.082762530298219,43.04648650006177,6.0,11.0,10.0,12.041594578792296,9.055385138137416,32.0624390837628,21.095023109728988,18.0,18.0,16.0,8.0,15.0,4.0,2.0,5.0,6.082762530298219,6.0,15.0,18.0,18.027756377319943,{}
344,371,6.0,43.04648650006177,6.082762530298219,11.0,11.0,12.0,8.0,31.016124838541646,20.024984394500787,17.0,17.0,15.0,8.0,15.0,4.0,2.0,5.0990195135927845,6.324555320336759,6.0,15.0,19.0,17.029386365926403,{}
345,372,5.0,43.04648650006177,6.0,10.04987562112089,10.04987562112089,12.041594578792296,8.0,29.017236257093817,19.0,16.5,16.0,14.0,7.0,14.0,4.0,2.0,5.0,5.0990195135927845,5.0,14.0,17.0,18.0,{}
346,373,3.1622776601683795,43.04648650006177,6.0,10.0,10.04987562112089,12.041594578792296,8.06225774829855,27.073972741361768,17.11724276862369,15.5,16.0,14.0,7.0,12.0,2.0,2.0,5.0990195135927845,6.082762530298219,6.0,15.0,18.0,16.0312195418814,{}
347,374,3.1622776601683795,43.04648650006177,6.0,10.0,10.04987562112089,11.04536101718726,8.06225774829855,27.073972741361768,17.11724276862369,15.5,16.0,14.0,7.0,12.0,2.0,2.0,3.0,3.0,3.5,15.0,18.0,18.027756377319943,{}
348,375,4.0,43.10452412450461,5.0,10.04987562112089,10.04987562112089,11.04536101718726,8.06225774829855,27.073972741361768,17.029386365926403,15.0,16.0,13.0,6.5,12.5,3.5,1.5,3.0,4.123105625617661,3.5,15.0,18.0,17.0,{}
349,376,4.123105625617661,43.04648650006177,5.0,10.0,10.04987562112089,12.041594578792296,9.055385138137416,28.0713376952364,18.110770276274835,16.0,17.0,15.0,7.0,12.0,2.0,2.0,2.0,3.0,3.0,15.0,19.0,17.029386365926403,{}
350,377,4.0,42.04759208325728,6.0,10.04987562112089,10.0,11.04536101718726,8.06225774829855,28.0713376952364,18.027756377319943,16.0,17.0,15.0,8.0,12.0,2.0,2.0,3.1622776601683795,4.123105625617661,3.5,14.0,18.0,18.027756377319943,{}
351,378,4.123105625617661,41.10960958218893,6.0,10.0,9.055385138137416,11.04536101718726,8.06225774829855,28.0713376952364,18.110770276274835,16.0,17.0,14.0,7.5,12.5,2.5,2.5,4.123105625617661,5.0990195135927845,4.5,15.0,18.0,18.027756377319943,{}
352,379,4.0,41.10960958218893,6.082762530298219,10.04987562112089,10.04987562112089,11.04536101718726,9.0,29.068883707497267,19.026297590440446,17.0,18.0,15.0,7.5,12.5,2.5,2.5,5.0,5.0990195135927845,4.5,15.0,18.0,17.029386365926403,{}
353,380,5.0990195135927845,42.1070065428546,5.0,10.0,10.04987562112089,11.04536101718726,9.055385138137416,29.068883707497267,19.1049731745428,16.5,18.0,15.0,7.5,12.5,2.5,2.5,4.0,5.0990195135927845,5.0,14.0,17.0,17.029386365926403,{}
354,381,5.0990195135927845,41.10960958218893,6.0,10.0,10.0,11.04536101718726,8.06225774829855,29.068883707497267,19.1049731745428,16.5,18.0,15.0,8.5,12.5,2.5,2.5,4.0,4.123105625617661,4.0,14.0,17.0,17.029386365926403,{}
355,382,4.0,40.11234224026316,6.082762530298219,10.04987562112089,9.055385138137416,11.04536101718726,8.06225774829855,28.16025568065745,18.110770276274835,16.0,18.0,15.0,8.5,11.5,2.5,3.5,5.0,5.0990195135927845,4.5,15.0,19.0,17.029386365926403,{}
356,383,4.123105625617661,39.11521443121589,6.0,10.0,9.055385138137416,11.04536101718726,8.06225774829855,28.0713376952364,18.110770276274835,16.0,18.0,15.0,8.5,11.5,1.5,3.5,4.0,5.0990195135927845,4.5,14.0,18.0,17.029386365926403,{}
357,384,4.123105625617661,40.11234224026316,6.0,10.0,10.04987562112089,11.04536101718726,8.06225774829855,28.0713376952364,18.110770276274835,16.0,18.0,15.0,8.5,11.5,1.5,3.5,4.0,5.0990195135927845,5.0,15.0,18.0,17.0,{}
358,385,5.0990195135927845,39.11521443121589,5.0,10.04987562112089,9.055385138137416,11.04536101718726,8.06225774829855,28.16025568065745,18.110770276274835,15.5,18.0,15.0,8.5,11.5,1.5,3.5,5.0,4.123105625617661,4.5,14.0,17.0,17.0,{}
359,386,5.0990195135927845,37.12142238654117,6.0,9.0,10.04987562112089,10.04987562112089,8.06225774829855,28.0713376952364,19.1049731745428,16.5,18.0,15.0,8.5,11.5,2.5,3.5,5.0990195135927845,5.0990195135927845,5.0,15.0,18.0,17.029386365926403,{}
360,387,5.0,38.05259518088089,6.0,10.04987562112089,10.04987562112089,10.04987562112089,8.06225774829855,29.068883707497267,19.026297590440446,16.5,18.0,16.0,9.0,12.0,2.0,4.0,5.0,6.082762530298219,5.5,14.0,17.0,17.029386365926403,{}
361,388,5.0990195135927845,38.11823710509184,5.0,10.0,10.04987562112089,11.04536101718726,8.06225774829855,28.0713376952364,18.110770276274835,15.5,18.0,15.0,8.5,11.5,1.5,3.5,5.0,5.0990195135927845,5.0,15.0,18.0,17.0,{}
362,389,6.082762530298219,37.05401462729781,5.0,10.0,9.055385138137416,10.04987562112089,8.06225774829855,29.068883707497267,19.1049731745428,16.0,18.0,16.0,9.0,12.0,2.0,4.0,5.0,5.0990195135927845,5.0,15.0,18.0,17.029386365926403,{}
363,390,5.0,38.11823710509184,6.0,10.04987562112089,9.055385138137416,11.04536101718726,8.06225774829855,29.068883707497267,19.026297590440446,16.5,19.0,16.0,9.5,11.5,1.5,3.5,5.0,5.0990195135927845,5.0,15.0,18.0,17.029386365926403,{}
364,391,5.0990195135927845,38.05259518088089,5.0,10.0,10.04987562112089,11.04536101718726,8.06225774829855,28.0713376952364,18.110770276274835,15.5,17.0,15.0,8.0,12.0,2.0,3.0,4.0,5.0990195135927845,4.5,15.0,17.0,17.029386365926403,{}
365,392,6.0,39.11521443121589,5.0,10.04987562112089,10.04987562112089,11.0,8.0,29.017236257093817,19.0,16.0,18.0,15.0,8.5,12.5,2.5,3.5,4.123105625617661,5.0990195135927845,4.5,15.0,17.0,17.0,{}
366,393,6.0,40.11234224026316,5.0,10.04987562112089,10.04987562112089,11.04536101718726,9.055385138137416,30.066592756745816,20.024984394500787,17.0,19.0,16.0,8.5,12.5,2.5,3.5,6.082762530298219,5.0990195135927845,5.0,16.0,18.0,17.0,{}
367,394,6.0,39.11521443121589,6.082762530298219,10.0,10.04987562112089,12.041594578792296,7.0,29.017236257093817,19.026297590440446,16.0,18.0,15.0,9.5,12.5,2.5,3.5,4.123105625617661,5.0990195135927845,5.0,16.0,18.0,16.0,{}
368,395,5.0990195135927845,41.04875150354759,5.0,10.0,11.04536101718726,12.041594578792296,9.0,29.017236257093817,19.026297590440446,16.5,18.0,16.0,8.0,12.0,2.0,3.0,4.123105625617661,5.0990195135927845,5.0,16.0,18.0,17.0,{}
369,396,6.0,40.049968789001575,6.0,10.0,10.0,11.0,8.06225774829855,30.01666203960727,20.024984394500787,17.0,18.0,16.0,9.0,13.0,3.0,3.0,5.0990195135927845,5.0990195135927845,5.0,15.0,17.0,17.029386365926403,{}
370,397,5.0,40.11234224026316,6.082762530298219,10.0,11.04536101718726,11.04536101718726,8.0,29.017236257093817,19.026297590440446,16.5,18.0,15.0,8.5,12.5,2.5,3.5,5.0990195135927845,6.082762530298219,5.5,15.0,17.0,17.029386365926403,{}
371,398,6.082762530298219,41.10960958218893,5.0,10.0,10.04987562112089,12.041594578792296,8.0,29.017236257093817,19.026297590440446,16.0,18.0,15.0,8.5,12.5,2.5,3.5,5.0,6.082762530298219,6.0,15.0,18.0,17.0,{}
372,399,6.0,39.05124837953327,6.082762530298219,10.0,11.0,12.041594578792296,8.0,30.01666203960727,20.024984394500787,17.0,18.0,16.0,9.0,13.0,3.0,3.0,5.0990195135927845,5.0990195135927845,5.0,15.0,17.0,17.029386365926403,{}
373,400,6.082762530298219,40.049968789001575,6.0,10.0,10.04987562112089,12.041594578792296,8.06225774829855,30.066592756745816,20.09975124224178,17.0,18.0,16.0,9.0,13.0,3.0,4.0,5.0990195135927845,6.082762530298219,5.5,15.0,18.0,15.0,{}
374,401,7.071067811865476,39.11521443121589,6.0,10.0,10.0,12.041594578792296,8.06225774829855,31.064449134018133,21.095023109728988,17.5,19.0,16.0,9.5,13.5,3.5,3.5,5.0990195135927845,5.0990195135927845,5.5,16.0,18.0,16.0,{}
375,402,7.0,40.11234224026316,6.0,11.04536101718726,10.04987562112089,12.0,8.06225774829855,32.0624390837628,21.02379604162864,17.5,19.0,16.0,9.5,14.5,3.5,4.5,4.0,5.0990195135927845,5.0,15.0,17.0,16.0312195418814,{}
376,403,10.0,39.11521443121589,6.082762530298219,10.0,10.04987562112089,11.04536101718726,8.06225774829855,34.058772731852805,24.08318915758459,19.0,20.0,17.0,10.5,15.5,5.5,5.5,6.0,6.082762530298219,5.5,15.0,18.0,16.0,{}
377,404,10.04987562112089,39.11521443121589,7.0,11.0,10.04987562112089,11.04536101718726,7.071067811865476,35.05709628591621,24.08318915758459,19.0,20.0,17.0,11.5,16.5,5.5,5.5,5.0,6.082762530298219,5.5,16.0,18.0,16.0,{}
378,405,13.038404810405298,39.11521443121589,6.0,10.0,10.04987562112089,12.041594578792296,8.06225774829855,37.05401462729781,27.073972741361768,20.5,21.0,18.0,11.5,17.5,6.5,5.5,5.0,6.082762530298219,5.5,15.0,18.0,17.0,{}
379,406,15.033296378372908,39.11521443121589,6.0,10.0,11.04536101718726,12.041594578792296,7.071067811865476,38.05259518088089,28.0713376952364,20.5,21.0,18.0,12.5,18.5,8.5,6.5,6.0,6.082762530298219,6.0,15.0,18.0,17.029386365926403,{}
380,407,16.0,39.11521443121589,5.0990195135927845,11.0,11.04536101718726,13.038404810405298,8.06225774829855,40.049968789001575,29.068883707497267,21.0,22.0,19.0,12.5,19.5,8.5,7.5,5.0990195135927845,5.0990195135927845,5.0,16.0,18.0,17.029386365926403,{}
381,408,18.027756377319943,39.11521443121589,6.0,9.0,11.04536101718726,13.038404810405298,7.071067811865476,40.049968789001575,31.064449134018133,22.0,22.0,19.0,13.5,19.5,10.5,7.5,6.082762530298219,5.0990195135927845,5.5,15.0,18.0,17.029386365926403,{}
382,409,18.0,38.11823710509184,6.082762530298219,10.0,11.04536101718726,13.038404810405298,7.071067811865476,41.04875150354759,31.064449134018133,22.0,22.0,19.0,13.5,20.5,10.5,7.5,5.0990195135927845,5.0990195135927845,5.0,15.0,18.0,17.029386365926403,{}
383,410,17.029386365926403,39.20459156782532,5.0,10.0,11.04536101718726,13.038404810405298,8.06225774829855,40.049968789001575,30.066592756745816,21.5,23.0,19.0,13.0,19.0,9.0,8.0,5.0,5.0990195135927845,5.0,15.0,18.0,17.0,{}
384,411,18.0,38.11823710509184,6.082762530298219,10.04987562112089,11.04536101718726,13.038404810405298,8.06225774829855,42.1070065428546,32.0624390837628,23.0,24.0,21.0,14.5,19.5,9.5,8.5,5.0,5.0990195135927845,5.0,15.0,18.0,17.029386365926403,{}
385,412,17.0,39.11521443121589,6.082762530298219,10.0,11.04536101718726,13.038404810405298,7.071067811865476,40.049968789001575,30.066592756745816,21.5,22.0,19.0,13.5,19.5,9.5,8.5,5.0990195135927845,5.0990195135927845,5.0,16.0,19.0,17.029386365926403,{}
386,413,11.0,38.11823710509184,6.0,11.04536101718726,10.0,12.0,8.06225774829855,36.05551275463989,25.019992006393608,19.5,22.0,19.0,12.5,15.5,4.5,6.5,5.0,6.082762530298219,5.5,15.0,18.0,15.033296378372908,{}
387,414,6.0,37.05401462729781,7.0,10.04987562112089,10.04987562112089,11.04536101718726,9.055385138137416,32.0624390837628,22.02271554554524,19.0,20.0,18.0,10.0,13.0,3.0,4.0,5.0990195135927845,5.0990195135927845,5.0,15.0,19.0,16.0312195418814,{}
388,415,4.123105625617661,37.05401462729781,6.0,9.0,9.055385138137416,11.04536101718726,10.0,29.017236257093817,20.024984394500787,18.0,19.0,17.0,8.0,11.0,2.0,2.0,6.082762530298219,6.082762530298219,6.0,14.0,18.0,16.0312195418814,{}
389,416,3.1622776601683795,37.05401462729781,6.0,9.0,9.055385138137416,10.04987562112089,10.04987562112089,28.0713376952364,19.1049731745428,17.5,18.0,16.0,7.0,11.0,2.0,1.0,5.0990195135927845,5.0990195135927845,5.5,15.0,19.0,16.0312195418814,{}
390,417,2.0,37.05401462729781,6.082762530298219,9.055385138137416,9.055385138137416,10.04987562112089,10.0,27.073972741361768,18.027756377319943,17.0,18.0,16.0,7.0,10.0,1.0,2.0,5.0990195135927845,5.0990195135927845,5.0,15.0,19.0,15.132745950421556,{}
391,418,3.0,39.05124837953327,6.082762530298219,10.04987562112089,11.0,11.0,8.06225774829855,27.16615541441225,17.11724276862369,15.5,16.0,14.0,7.0,12.0,2.0,1.0,5.0,5.0990195135927845,5.0,16.0,20.0,16.1245154965971,{}
392,419,5.0,40.19950248448356,5.0990195135927845,9.055385138137416,11.04536101718726,11.04536101718726,9.055385138137416,28.16025568065745,19.1049731745428,16.5,18.0,14.0,7.0,12.0,3.0,3.0,5.0990195135927845,5.0990195135927845,5.5,14.0,19.0,16.1245154965971,{}
393,420,5.0,39.11521443121589,5.0990195135927845,10.04987562112089,10.04987562112089,12.041594578792296,8.06225774829855,28.16025568065745,18.110770276274835,15.5,17.0,14.0,7.5,12.5,2.5,2.5,6.082762530298219,5.0990195135927845,5.0,15.0,19.0,17.11724276862369,{}
394,421,5.0990195135927845,40.11234224026316,6.0,9.0,10.04987562112089,11.04536101718726,8.06225774829855,28.0713376952364,19.1049731745428,16.5,18.0,15.0,8.5,11.5,2.5,3.5,5.0,5.385164807134504,5.0,14.0,19.0,16.0312195418814,{}
395,422,6.082762530298219,40.11234224026316,5.0,10.0,11.04536101718726,12.041594578792296,9.055385138137416,30.066592756745816,20.09975124224178,17.0,18.0,15.0,7.5,13.5,3.5,2.5,5.0,5.0990195135927845,5.0,14.0,19.0,16.0312195418814,{}
396,423,7.071067811865476,39.11521443121589,5.0,9.055385138137416,11.04536101718726,12.041594578792296,9.055385138137416,30.14962686336267,21.095023109728988,17.5,18.0,15.0,7.5,13.5,4.5,2.5,5.0,6.082762530298219,5.5,14.0,19.0,17.029386365926403,{}
397,424,7.071067811865476,40.19950248448356,5.0,9.055385138137416,11.04536101718726,12.041594578792296,9.055385138137416,30.14962686336267,21.095023109728988,17.5,18.0,14.0,7.0,14.0,5.0,3.0,5.0,5.385164807134504,5.0,14.0,19.0,16.1245154965971,{}
398,425,5.0990195135927845,39.20459156782532,6.0,10.04987562112089,10.04987562112089,11.04536101718726,8.06225774829855,29.154759474226505,19.1049731745428,16.5,18.0,14.0,8.0,13.0,4.0,3.0,5.0,5.0990195135927845,5.5,14.0,19.0,16.1245154965971,{}
399,426,5.0,39.20459156782532,6.082762530298219,9.055385138137416,10.04987562112089,12.041594578792296,8.06225774829855,28.16025568065745,19.1049731745428,16.5,18.0,14.0,8.0,12.0,3.0,3.0,5.0,6.082762530298219,6.0,14.0,20.0,16.1245154965971,{}
400,427,5.0990195135927845,39.20459156782532,5.0,10.04987562112089,10.04987562112089,11.04536101718726,9.055385138137416,29.154759474226505,19.1049731745428,16.5,19.0,15.0,8.0,12.0,3.0,3.0,5.0,5.0990195135927845,5.0,13.0,19.0,17.11724276862369,{}
401,428,5.0990195135927845,39.11521443121589,5.0,9.055385138137416,9.055385138137416,11.04536101718726,9.055385138137416,28.16025568065745,19.1049731745428,16.5,18.0,15.0,7.5,11.5,2.5,2.5,6.0,5.0990195135927845,5.5,14.0,19.0,16.1245154965971,{}
402,429,5.0990195135927845,39.20459156782532,5.0,9.055385138137416,9.219544457292889,11.04536101718726,9.055385138137416,28.16025568065745,19.1049731745428,16.5,18.0,14.0,7.0,12.0,3.0,3.0,5.0,5.0990195135927845,5.5,14.0,20.0,16.1245154965971,{}
403,430,4.0,39.20459156782532,6.082762530298219,10.04987562112089,9.055385138137416,10.04987562112089,8.06225774829855,28.16025568065745,18.110770276274835,16.0,18.0,14.0,8.0,12.0,3.0,3.0,5.0990195135927845,5.0990195135927845,5.0,14.0,20.0,16.1245154965971,{}
404,431,4.0,38.2099463490856,6.082762530298219,9.055385138137416,9.055385138137416,10.04987562112089,9.055385138137416,28.16025568065745,19.1049731745428,17.0,19.0,15.0,8.0,11.0,2.0,3.0,5.0,5.0990195135927845,5.0,14.0,19.0,16.1245154965971,{}
405,432,4.123105625617661,37.12142238654117,6.0,9.055385138137416,9.055385138137416,10.04987562112089,9.055385138137416,28.16025568065745,19.1049731745428,17.0,18.0,15.0,7.5,11.5,2.5,1.5,5.0,5.0990195135927845,5.5,14.0,20.0,15.132745950421556,{}
406,433,4.0,37.12142238654117,6.082762530298219,8.06225774829855,9.055385138137416,10.198039027185567,9.055385138137416,27.16615541441225,19.1049731745428,17.0,18.0,15.0,7.5,10.5,2.5,1.5,5.0,6.082762530298219,6.0,14.0,20.0,15.132745950421556,{}
407,434,4.123105625617661,37.21558813185679,5.0990195135927845,9.0,9.055385138137416,10.04987562112089,10.0,28.0713376952364,19.1049731745428,17.0,19.0,15.0,7.0,11.0,2.0,2.0,6.0,5.0990195135927845,5.0,14.0,19.0,15.033296378372908,{}
408,435,3.1622776601683795,38.2099463490856,6.0,10.04987562112089,10.198039027185567,11.180339887498947,10.04987562112089,29.154759474226505,19.1049731745428,17.5,19.0,15.0,7.0,12.0,3.0,2.0,5.0990195135927845,5.0990195135927845,5.5,15.0,20.0,15.033296378372908,{}
409,436,5.0,38.11823710509184,6.082762530298219,10.04987562112089,9.055385138137416,11.0,9.055385138137416,30.14962686336267,20.09975124224178,17.5,19.0,16.0,8.5,12.5,2.5,3.5,5.0990195135927845,6.082762530298219,6.0,14.0,19.0,16.0312195418814,{}
410,437,5.0,39.11521443121589,6.082762530298219,10.04987562112089,10.04987562112089,11.0,8.06225774829855,29.154759474226505,19.1049731745428,16.5,18.0,15.0,8.5,12.5,2.5,2.5,6.0,5.0990195135927845,5.0,14.0,18.0,16.0312195418814,{}
411,438,5.0,41.04875150354759,6.082762530298219,10.04987562112089,11.04536101718726,12.0,8.06225774829855,29.154759474226505,19.1049731745428,16.5,18.0,16.0,9.0,12.0,2.0,3.0,6.082762530298219,6.082762530298219,6.0,15.0,19.0,16.0312195418814,{}
412,439,5.0,41.10960958218893,5.0990195135927845,10.04987562112089,11.04536101718726,12.0,9.055385138137416,29.154759474226505,19.1049731745428,16.5,18.0,15.0,7.5,12.5,2.5,2.5,6.0,5.0990195135927845,5.0,14.0,18.0,15.132745950421556,{}
413,440,5.0,41.10960958218893,5.0990195135927845,9.055385138137416,11.04536101718726,12.041594578792296,9.055385138137416,28.16025568065745,19.1049731745428,16.5,18.0,15.0,7.5,11.5,2.5,2.5,5.0990195135927845,6.082762530298219,6.0,15.0,19.0,16.0312195418814,{}
414,441,5.0990195135927845,42.1070065428546,5.0,9.055385138137416,10.04987562112089,11.0,9.055385138137416,28.16025568065745,19.1049731745428,16.5,18.0,15.0,7.5,11.5,2.5,2.5,5.0,5.0990195135927845,5.0,15.0,19.0,16.0312195418814,{}
415,442,5.0990195135927845,42.1070065428546,5.0,9.0,11.04536101718726,12.0,9.055385138137416,28.0713376952364,19.1049731745428,16.5,18.0,15.0,7.5,11.5,2.5,2.5,5.0990195135927845,5.0990195135927845,5.0,15.0,20.0,16.0312195418814,{}
416,443,4.123105625617661,41.04875150354759,5.0,9.055385138137416,10.0,11.0,10.04987562112089,28.16025568065745,19.1049731745428,17.0,17.0,15.0,6.0,12.0,3.0,1.0,5.0,5.0990195135927845,5.0,15.0,20.0,17.11724276862369,{}
417,444,4.0,40.049968789001575,5.0990195135927845,9.055385138137416,10.0,11.0,10.04987562112089,28.16025568065745,19.1049731745428,17.0,17.0,15.0,6.0,12.0,3.0,1.0,6.082762530298219,5.0990195135927845,5.0,15.0,20.0,17.029386365926403,{}
418,445,3.1622776601683795,39.05124837953327,5.0990195135927845,8.0,10.04987562112089,10.04987562112089,11.04536101718726,27.16615541441225,19.235384061671343,17.5,17.0,15.0,5.0,11.0,2.0,1.0,5.0990195135927845,6.082762530298219,6.0,16.0,20.0,16.0312195418814,{}
419,446,2.23606797749979,40.049968789001575,4.0,9.055385138137416,10.0,11.0,12.041594578792296,27.16615541441225,18.110770276274835,17.0,17.0,15.0,4.0,11.0,2.0,0.0,5.0,6.082762530298219,6.0,15.0,19.0,17.029386365926403,{}
420,447,2.23606797749979,39.05124837953327,5.0,8.0,10.04987562112089,11.0,11.04536101718726,26.0768096208106,18.110770276274835,17.0,16.0,14.0,4.0,11.0,2.0,0.0,5.0,6.082762530298219,6.0,16.0,20.0,17.11724276862369,{}
421,448,1.4142135623730951,38.05259518088089,5.0,8.0,10.04987562112089,10.04987562112089,12.041594578792296,26.0768096208106,18.110770276274835,17.5,17.0,15.0,4.0,10.0,2.0,0.0,5.0990195135927845,6.082762530298219,6.0,15.0,19.0,18.027756377319943,{}
422,449,2.23606797749979,38.05259518088089,5.0,7.0,10.04987562112089,10.04987562112089,12.041594578792296,26.0768096208106,19.1049731745428,18.0,17.0,15.0,4.0,10.0,2.0,0.0,5.0990195135927845,5.0,5.0,15.0,19.0,17.029386365926403,{}
423,450,2.23606797749979,38.05259518088089,4.0,7.0,9.0,10.0,12.16552506059644,25.179356624028344,18.24828759089466,17.0,16.0,14.0,3.0,10.0,3.0,1.0,5.0990195135927845,5.0990195135927845,5.0,15.0,19.0,18.027756377319943,{}
424,451,2.23606797749979,39.01281840626232,4.0,7.0,10.0,10.0,12.041594578792296,25.079872407968907,18.110770276274835,17.0,14.0,13.0,1.5,11.5,3.5,1.5,5.0990195135927845,5.0990195135927845,5.5,16.0,19.0,17.0,{}
425,452,2.0,39.01281840626232,4.123105625617661,7.071067811865476,9.055385138137416,11.04536101718726,12.0,25.079872407968907,18.027756377319943,17.0,14.0,13.0,1.5,11.5,3.5,1.5,5.0,6.082762530298219,6.0,16.0,19.0,17.029386365926403,{}
426,453,2.23606797749979,39.01281840626232,5.0,8.0,9.0,10.0,10.198039027185567,25.179356624028344,17.26267650163207,16.0,14.0,13.0,3.5,11.5,3.5,1.5,5.0,5.0990195135927845,5.0,16.0,20.0,18.027756377319943,{}
427,454,2.23606797749979,42.04759208325728,5.0,9.0,10.0,11.0,9.055385138137416,25.079872407968907,16.1245154965971,15.0,12.0,10.0,2.0,14.0,5.0,2.0,5.0,5.0990195135927845,5.0,15.0,20.0,17.029386365926403,{}
428,455,3.0,42.04759208325728,5.0990195135927845,9.055385138137416,9.0,11.0,9.055385138137416,26.1725046566048,17.11724276862369,15.5,13.0,11.0,3.0,14.0,5.0,1.0,5.0,4.123105625617661,4.5,16.0,20.0,17.029386365926403,{}
429,456,4.123105625617661,43.01162633521314,4.123105625617661,9.0,10.0,12.0,9.055385138137416,26.1725046566048,17.26267650163207,15.0,12.0,11.0,2.5,14.5,4.5,1.5,4.123105625617661,5.0990195135927845,5.0,15.0,20.0,17.029386365926403,{}
430,457,4.123105625617661,43.01162633521314,5.0,9.0,10.0,11.0,8.246211251235321,26.1725046566048,17.26267650163207,15.0,12.0,11.0,3.5,14.5,4.5,1.5,5.0990195135927845,5.0990195135927845,5.0,15.0,20.0,17.029386365926403,{}
431,458,3.1622776601683795,43.01162633521314,4.0,10.04987562112089,10.0,11.0,9.055385138137416,26.1725046566048,16.1245154965971,14.5,12.0,11.0,2.5,14.5,4.5,1.5,5.0,5.0990195135927845,4.5,15.0,19.0,18.027756377319943,{}
432,459,4.0,43.04648650006177,5.0990195135927845,9.055385138137416,10.04987562112089,11.0,9.055385138137416,27.16615541441225,18.110770276274835,16.0,13.0,11.0,3.0,15.0,5.0,1.0,5.0990195135927845,5.0990195135927845,5.0,15.0,20.0,17.029386365926403,{}
433,460,3.0,43.04648650006177,6.082762530298219,10.04987562112089,10.0,11.0,8.06225774829855,27.16615541441225,17.11724276862369,15.5,13.0,11.0,4.0,15.0,5.0,1.0,5.0,5.0990195135927845,5.0,14.0,19.0,16.0312195418814,{}
434,461,2.23606797749979,41.01219330881976,5.0,8.0,10.0,11.04536101718726,10.04987562112089,25.079872407968907,17.11724276862369,16.0,13.0,12.0,2.5,12.5,3.5,1.5,5.0,5.0990195135927845,5.0,15.0,19.0,17.029386365926403,{}
435,462,2.23606797749979,41.01219330881976,5.0,7.0,10.04987562112089,11.0,10.04987562112089,24.08318915758459,17.11724276862369,16.0,13.0,12.0,2.5,11.5,3.5,1.5,5.0,6.082762530298219,6.0,16.0,20.0,17.029386365926403,{}
436,463,3.0,40.0,5.0990195135927845,8.0,10.0,11.0,10.0,26.019223662515376,18.027756377319943,16.5,14.0,14.0,4.0,12.0,3.0,1.0,5.0,6.082762530298219,6.0,16.0,19.0,18.110770276274835,{}
437,464,3.0,39.0,5.0,8.0,10.0,11.0,11.0,27.0,19.0,17.5,15.0,15.0,4.0,12.0,4.0,1.0,5.0990195135927845,5.0990195135927845,5.5,16.0,18.0,18.027756377319943,{}
438,465,5.0,39.0,5.0,8.06225774829855,10.0,11.0,10.04987562112089,28.0,20.024984394500787,17.5,16.0,16.0,6.0,12.0,3.0,1.0,5.0990195135927845,5.0990195135927845,5.0,16.0,17.0,17.0,{}
439,466,4.0,37.01351104664349,5.0990195135927845,8.0,9.0,11.0,11.04536101718726,28.0,20.0,18.0,16.0,17.0,5.5,11.5,2.5,0.5,5.0,5.0990195135927845,5.5,17.0,18.0,16.0,{}
440,467,2.0,38.01315561749642,5.0,9.0,9.0,10.0,10.04987562112089,26.019223662515376,17.029386365926403,16.0,15.0,16.0,5.5,10.5,1.5,0.5,5.0990195135927845,5.0,5.5,17.0,17.0,16.0312195418814,{}
441,468,2.0,38.0,5.0,9.0,9.0,10.0,11.04536101718726,27.018512172212592,18.027756377319943,17.0,16.0,16.0,5.0,11.0,2.0,0.0,5.0990195135927845,5.0990195135927845,5.5,17.0,17.0,16.0312195418814,{}
442,469,1.0,39.01281840626232,5.0,9.0,10.0,10.04987562112089,11.04536101718726,26.019223662515376,17.029386365926403,16.5,15.0,16.0,4.5,10.5,1.5,0.5,5.0990195135927845,6.082762530298219,5.5,17.0,17.0,16.0,{}
443,470,4.0,40.0,5.0990195135927845,9.0,10.0,11.0,10.0,28.0178514522438,19.026297590440446,17.0,16.0,16.0,6.0,12.0,2.0,1.0,5.0990195135927845,6.082762530298219,5.5,17.0,17.0,16.0,{}
444,471,5.0,43.0,5.0990195135927845,10.0,11.04536101718726,12.0,8.0,28.0178514522438,18.027756377319943,15.5,15.0,15.0,7.0,13.0,3.0,2.0,5.0990195135927845,6.082762530298219,5.5,17.0,16.0,16.0,{}
445,472,4.0,42.0,6.0,9.0,11.0,12.0,8.06225774829855,27.018512172212592,18.027756377319943,16.0,15.0,15.0,7.0,12.0,3.0,1.0,5.0990195135927845,5.0,5.0,17.0,16.0,16.0,{}
446,473,3.0,42.0,6.0,10.0,10.0,11.0,8.06225774829855,27.018512172212592,17.029386365926403,15.5,15.0,15.0,7.0,12.0,2.0,1.0,5.0990195135927845,5.0990195135927845,5.0,17.0,16.0,18.0,{}
447,474,4.0,43.0,6.0,9.0,11.0,12.0,8.06225774829855,27.018512172212592,18.027756377319943,16.0,15.0,15.0,7.0,12.0,2.0,1.0,5.0990195135927845,6.0,5.5,17.0,16.0,17.0,{}
448,475,3.0,41.0,5.0,10.0,10.0,11.0,9.055385138137416,27.018512172212592,17.029386365926403,15.5,15.0,15.0,6.0,12.0,2.0,1.0,5.0990195135927845,5.0,5.0,17.0,16.0,17.029386365926403,{}
449,476,3.0,42.01190307520001,5.0,9.055385138137416,10.0,11.0,8.06225774829855,25.079872407968907,16.0312195418814,14.5,14.0,15.0,6.5,10.5,1.5,1.5,5.0990195135927845,5.0990195135927845,5.0,16.0,16.0,16.0,{}
450,477,5.0,42.0,5.0,9.055385138137416,10.0,11.0,8.0,27.018512172212592,18.0,15.5,15.0,15.0,7.0,12.0,3.0,2.0,5.0990195135927845,5.0990195135927845,5.0,17.0,17.0,17.0,{}
451,478,4.0,42.0,6.0,9.055385138137416,10.0,11.0,8.0,27.018512172212592,18.0,16.0,15.0,15.0,7.0,12.0,3.0,1.0,5.0990195135927845,5.0,5.5,16.0,17.0,17.0,{}
452,479,4.0,40.01249804748511,6.0,9.0,10.0,11.04536101718726,8.0,27.0,18.0,16.0,16.0,15.0,7.5,11.5,2.5,1.5,5.0990195135927845,5.0990195135927845,5.5,16.0,17.0,17.0,{}
453,480,5.0,40.0,4.0,8.0,10.0,11.0,8.06225774829855,25.019992006393608,17.029386365926403,14.5,15.0,15.0,7.0,10.0,2.0,3.0,5.0990195135927845,5.0990195135927845,5.5,17.0,17.0,15.0,{}
454,481,5.0,40.01249804748511,4.0,8.0,10.0,11.0,8.06225774829855,25.019992006393608,17.029386365926403,14.5,14.0,15.0,6.5,10.5,2.5,2.5,5.0990195135927845,5.0990195135927845,5.5,17.0,17.0,17.0,{}
455,482,5.0,40.01249804748511,4.0,7.0,10.0,11.0,8.06225774829855,24.020824298928627,17.029386365926403,14.5,14.0,15.0,6.5,9.5,1.5,2.5,5.0,5.0990195135927845,5.5,17.0,17.0,16.0,{}
456,483,4.0,40.0,4.0,7.0,10.0,10.0,9.055385138137416,24.020824298928627,17.029386365926403,15.0,15.0,15.0,6.0,9.0,1.0,2.0,5.0990195135927845,5.0990195135927845,5.5,16.0,16.0,15.033296378372908,{}
457,484,3.1622776601683795,41.0,4.0,8.0,11.04536101718726,11.0,9.0,24.020824298928627,16.0312195418814,14.5,15.0,15.0,6.0,9.0,1.0,2.0,5.0,5.0,5.5,16.0,17.0,15.0,{}
458,485,1.0,41.0,5.0,8.0,10.0,11.0,9.0,23.0,15.0,14.5,14.0,14.0,5.0,9.0,1.0,0.0,5.0990195135927845,6.082762530298219,5.5,16.0,17.0,15.0,{}
459,486,1.0,42.01190307520001,5.0,8.06225774829855,12.0,12.0,9.0,23.021728866442675,15.0,14.5,14.0,13.0,4.5,9.5,1.5,0.5,5.0990195135927845,5.0990195135927845,5.0,16.0,17.0,16.0,{}
460,487,0.0,42.0,5.0,8.0,11.0,12.0,10.04987562112089,23.021728866442675,15.033296378372908,15.0,14.0,14.0,4.0,9.0,1.0,0.0,5.0990195135927845,5.0990195135927845,5.5,16.0,17.0,17.0,{}
461,488,1.4142135623730951,42.0,5.0,7.0,10.0,11.04536101718726,10.0,23.021728866442675,16.0312195418814,15.5,14.0,14.0,4.0,9.0,1.0,1.0,5.0990195135927845,5.0990195135927845,5.5,15.0,17.0,16.0312195418814,{}
462,489,1.0,42.0,5.0,7.071067811865476,10.0,11.0,10.0,23.021728866442675,16.0,15.5,14.0,14.0,4.0,9.0,1.0,1.0,5.0990195135927845,5.0,5.5,16.0,18.0,15.033296378372908,{}
463,490,1.0,42.0,5.0,8.06225774829855,10.0,11.0,10.0,24.020824298928627,16.0,15.5,14.0,14.0,4.0,10.0,2.0,1.0,5.0990195135927845,6.082762530298219,6.0,16.0,18.0,16.0312195418814,{}
464,491,0.0,42.0,5.0,7.0,11.0,12.0,10.04987562112089,22.02271554554524,15.033296378372908,15.0,13.0,13.0,3.0,9.0,2.0,1.0,5.0990195135927845,6.082762530298219,6.0,16.0,18.0,16.0312195418814,{}
465,492,0.0,42.0,5.0,8.0,11.0,11.0,10.04987562112089,23.021728866442675,15.033296378372908,15.0,13.0,13.0,3.0,10.0,2.0,1.0,5.0990195135927845,6.082762530298219,6.0,15.0,18.0,15.0,{}
466,493,1.0,42.0,6.0,8.06225774829855,10.0,11.0,9.055385138137416,23.021728866442675,15.132745950421556,15.0,14.0,14.0,5.0,9.0,1.0,0.0,5.0990195135927845,6.082762530298219,6.0,16.0,18.0,15.0,{}
467,494,1.4142135623730951,42.0,5.0,7.0,10.0,11.0,10.04987562112089,23.08679276123039,16.1245154965971,15.5,14.0,14.0,4.0,9.0,1.0,0.0,5.0990195135927845,6.082762530298219,5.5,15.0,17.0,16.0,{}
468,495,1.0,41.0,6.0,8.0,10.0,11.0,9.0,23.021728866442675,15.033296378372908,15.0,14.0,14.0,5.0,9.0,1.0,0.0,5.0990195135927845,6.0,6.0,15.0,18.0,16.0312195418814,{}
469,496,1.0,42.0,4.0,8.0,11.0,11.0,10.04987562112089,23.021728866442675,15.033296378372908,14.5,14.0,14.0,4.0,9.0,1.0,0.0,5.0990195135927845,6.082762530298219,6.0,15.0,17.0,15.033296378372908,{}
470,497,1.0,41.0,5.0,7.0,10.0,12.0,10.04987562112089,23.021728866442675,16.0312195418814,15.5,14.0,14.0,4.0,9.0,1.0,0.0,5.0990195135927845,6.082762530298219,5.5,15.0,17.0,16.0312195418814,{}
471,498,1.0,41.0,5.0990195135927845,7.0,11.0,12.0,10.0,23.021728866442675,16.0312195418814,15.5,14.0,14.0,4.0,9.0,1.0,0.0,5.0990195135927845,6.082762530298219,6.0,15.0,18.0,16.0312195418814,{}
472,499,1.0,40.01249804748511,5.0,7.071067811865476,10.0,11.0,10.04987562112089,23.08679276123039,16.0312195418814,15.5,15.0,14.0,4.5,8.5,0.5,0.5,5.0,6.082762530298219,5.5,15.0,18.0,16.0,{}
473,500,2.0,39.01281840626232,5.0,7.0,10.0,11.0,10.04987562112089,24.020824298928627,17.029386365926403,16.0,15.0,14.0,4.5,9.5,1.5,0.5,5.0990195135927845,6.082762530298219,5.5,15.0,17.0,16.0312195418814,{}
474,501,2.0,38.01315561749642,5.0,8.0,10.0,10.0,10.0,25.0,17.0,16.0,16.0,15.0,5.5,9.5,1.5,0.5,5.0990195135927845,6.082762530298219,5.5,16.0,18.0,16.0312195418814,{}
475,502,2.0,38.05259518088089,5.0,8.0,10.0,11.04536101718726,10.0,25.0,17.0,16.0,16.0,14.0,5.0,10.0,1.0,0.0,6.082762530298219,5.0990195135927845,5.5,16.0,18.0,16.0312195418814,{}
476,503,3.0,38.05259518088089,6.0,9.0,9.0,11.0,9.0,27.0,18.0,16.5,17.0,15.0,7.0,11.0,2.0,1.0,5.0,5.0990195135927845,5.5,16.0,18.0,17.029386365926403,{}
477,504,4.0,38.05259518088089,6.0,9.0,10.0,11.0,9.0,28.0,19.0,17.0,17.0,15.0,7.0,12.0,3.0,1.0,5.0990195135927845,6.082762530298219,6.0,15.0,18.0,16.0,{}
478,505,4.123105625617661,38.11823710509184,6.082762530298219,9.055385138137416,9.0,11.04536101718726,9.0,28.0178514522438,19.0,17.0,18.0,15.0,7.5,11.5,2.5,1.5,6.0,6.082762530298219,6.0,16.0,19.0,16.0312195418814,{}
479,506,4.0,38.05259518088089,6.0,9.055385138137416,10.0,11.04536101718726,8.0,27.018512172212592,18.0,16.0,17.0,15.0,8.0,11.0,2.0,2.0,6.082762530298219,6.082762530298219,6.0,16.0,18.0,16.0312195418814,{}
480,507,4.0,38.05259518088089,5.0,9.0,10.0,11.04536101718726,9.0,27.0,18.0,16.0,17.0,15.0,7.0,11.0,2.0,2.0,6.082762530298219,5.0990195135927845,5.0,16.0,18.0,17.029386365926403,{}
481,508,5.0,38.05259518088089,5.0,9.0,10.0,11.0,9.055385138137416,28.0178514522438,19.026297590440446,16.5,17.0,15.0,7.0,12.0,2.0,2.0,6.082762530298219,6.082762530298219,5.5,16.0,18.0,16.0312195418814,{}
482,509,4.0,38.05259518088089,5.0,9.0,10.0,12.0,9.055385138137416,27.018512172212592,18.027756377319943,16.0,17.0,15.0,7.0,11.0,2.0,2.0,5.0990195135927845,6.082762530298219,6.0,15.0,18.0,16.0312195418814,{}
483,510,3.0,38.05259518088089,6.082762530298219,10.0,11.04536101718726,11.0,9.0,28.0178514522438,18.027756377319943,16.5,17.0,15.0,7.0,12.0,2.0,2.0,5.0990195135927845,6.082762530298219,6.0,15.0,18.0,16.0312195418814,{}
484,511,5.0,38.05259518088089,5.0,9.0,10.04987562112089,11.04536101718726,9.055385138137416,28.0178514522438,19.026297590440446,16.5,17.0,15.0,7.0,12.0,3.0,2.0,6.082762530298219,6.082762530298219,5.5,16.0,18.0,17.029386365926403,{}
485,512,5.0,38.11823710509184,5.0,9.0,10.0,11.04536101718726,9.0,28.0,19.0,16.5,18.0,15.0,7.5,11.5,2.5,2.5,6.082762530298219,6.082762530298219,6.0,15.0,18.0,16.0312195418814,{}
486,513,5.0,38.11823710509184,6.0,10.04987562112089,10.04987562112089,12.041594578792296,9.0,30.01666203960727,20.0,17.5,19.0,16.0,8.5,12.5,2.5,3.5,6.0,6.082762530298219,6.0,15.0,18.0,18.027756377319943,{}
487,514,5.0,39.11521443121589,6.0,11.04536101718726,10.04987562112089,11.0,9.0,31.016124838541646,20.0,17.5,19.0,16.0,8.5,13.5,2.5,3.5,6.0,5.0990195135927845,5.0,15.0,18.0,16.1245154965971,{}
488,515,6.082762530298219,39.11521443121589,6.0,10.0,10.0,12.041594578792296,9.0,31.016124838541646,21.02379604162864,18.0,19.0,16.0,8.5,13.5,3.5,2.5,6.082762530298219,6.082762530298219,6.0,15.0,19.0,16.0312195418814,{}
489,516,4.0,38.05259518088089,6.0,10.04987562112089,10.0,11.0,10.04987562112089,30.066592756745816,20.024984394500787,18.0,18.0,16.0,7.0,13.0,3.0,1.0,5.0990195135927845,6.082762530298219,6.0,15.0,19.0,17.029386365926403,{}
490,517,2.23606797749979,38.01315561749642,5.0,8.0,10.04987562112089,12.0,12.041594578792296,27.073972741361768,19.1049731745428,18.0,17.0,16.0,4.5,10.5,1.5,0.5,6.082762530298219,6.082762530298219,6.0,15.0,19.0,17.029386365926403,{}
491,518,1.0,38.01315561749642,5.0,9.055385138137416,10.04987562112089,11.0,11.04536101718726,26.0768096208106,17.029386365926403,16.5,16.0,15.0,4.5,10.5,1.5,0.5,6.082762530298219,6.082762530298219,6.0,15.0,19.0,16.0312195418814,{}
492,519,2.0,38.01315561749642,5.0990195135927845,8.0,11.04536101718726,11.04536101718726,12.0,27.018512172212592,19.026297590440446,18.0,17.0,16.0,4.5,10.5,1.5,0.5,5.0990195135927845,6.082762530298219,6.0,15.0,19.0,17.029386365926403,{}
493,520,2.23606797749979,38.01315561749642,5.0,9.0,9.0,10.04987562112089,11.0,27.018512172212592,18.027756377319943,17.0,16.0,15.0,4.5,11.5,2.5,0.5,6.082762530298219,5.0990195135927845,5.5,15.0,19.0,17.029386365926403,{}
494,521,5.0,41.04875150354759,5.0990195135927845,10.0,11.04536101718726,12.0,10.0,30.01666203960727,20.024984394500787,17.5,17.0,15.0,6.0,14.0,4.0,1.0,5.0990195135927845,5.0990195135927845,5.0,15.0,19.0,17.11724276862369,{}
495,522,5.0,41.04875150354759,6.082762530298219,10.0,11.0,12.041594578792296,9.0,30.01666203960727,20.024984394500787,17.5,17.0,15.0,7.0,14.0,4.0,1.0,5.0990195135927845,6.082762530298219,6.0,15.0,18.0,17.11724276862369,{}
496,523,5.0990195135927845,42.04759208325728,6.0,10.0,11.04536101718726,12.0,9.0,30.01666203960727,20.024984394500787,17.5,17.0,15.0,7.0,14.0,3.0,1.0,5.0990195135927845,6.082762530298219,6.0,15.0,18.0,17.029386365926403,{}
497,524,4.0,42.04759208325728,6.0,11.0,11.04536101718726,12.0,9.055385138137416,30.01666203960727,19.026297590440446,17.0,17.0,15.0,7.0,14.0,3.0,1.0,5.0,5.0990195135927845,5.0,16.0,19.0,17.029386365926403,{}
498,525,4.0,42.04759208325728,6.0,11.0,11.04536101718726,13.0,10.04987562112089,31.016124838541646,20.024984394500787,18.0,17.0,15.0,6.0,15.0,4.0,1.0,5.0,6.082762530298219,6.0,15.0,19.0,17.11724276862369,{}
499,526,6.0,42.04759208325728,6.082762530298219,11.0,11.0,13.0,9.0,32.01562118716424,21.02379604162864,18.0,17.0,15.0,7.0,16.0,5.0,1.0,5.0,6.082762530298219,6.0,15.0,19.0,17.029386365926403,{}
500,527,8.0,40.11234224026316,6.0,10.04987562112089,11.04536101718726,13.038404810405298,9.0,33.015148038438355,23.0,19.0,19.0,16.0,8.5,15.5,5.5,2.5,5.0990195135927845,6.082762530298219,6.0,15.0,19.0,17.029386365926403,{}
501,528,9.0,40.11234224026316,6.082762530298219,10.0,11.04536101718726,13.038404810405298,9.0,34.0147027033899,24.020824298928627,19.5,19.0,16.0,8.5,16.5,5.5,3.5,5.0990195135927845,6.082762530298219,6.0,16.0,19.0,17.11724276862369,{}
502,529,8.0,39.11521443121589,7.071067811865476,10.04987562112089,11.04536101718726,12.041594578792296,8.0,33.06055050963308,23.021728866442675,19.0,20.0,17.0,10.5,14.5,4.5,4.5,6.0,6.082762530298219,6.0,15.0,19.0,16.0312195418814,{}
503,530,5.0990195135927845,38.11823710509184,6.0,9.0,10.04987562112089,12.041594578792296,9.055385138137416,29.068883707497267,20.09975124224178,17.5,18.0,15.0,7.5,12.5,2.5,2.5,6.082762530298219,6.082762530298219,6.0,15.0,19.0,16.0312195418814,{}
504,531,1.4142135623730951,38.05259518088089,6.0,9.0,10.04987562112089,10.04987562112089,10.0,26.019223662515376,17.029386365926403,16.5,16.0,14.0,5.0,11.0,2.0,0.0,5.0,6.082762530298219,6.0,15.0,19.0,16.1245154965971,{}
505,532,1.4142135623730951,38.11823710509184,6.0,9.0,10.04987562112089,11.04536101718726,10.0,26.019223662515376,17.029386365926403,16.5,17.0,14.0,5.5,10.5,1.5,0.5,6.0,6.082762530298219,6.0,15.0,19.0,16.0312195418814,{}
506,533,1.4142135623730951,38.11823710509184,6.0,9.055385138137416,10.04987562112089,11.04536101718726,10.04987562112089,26.1725046566048,17.11724276862369,16.5,17.0,14.0,5.5,10.5,1.5,0.5,6.0,6.324555320336759,6.0,15.0,19.0,15.033296378372908,{}
507,534,2.0,38.11823710509184,6.082762530298219,10.04987562112089,10.04987562112089,11.04536101718726,9.0,27.073972741361768,17.029386365926403,16.0,17.0,14.0,6.5,11.5,1.5,1.5,6.0,6.324555320336759,6.0,15.0,19.0,16.0312195418814,{}
508,535,4.0,39.11521443121589,6.082762530298219,9.055385138137416,10.04987562112089,11.04536101718726,9.0,28.0713376952364,19.026297590440446,17.0,18.0,15.0,7.5,11.5,2.5,2.5,6.082762530298219,6.082762530298219,6.0,15.0,19.0,17.029386365926403,{}
509,536,4.0,39.05124837953327,6.0,10.04987562112089,10.04987562112089,12.0,8.06225774829855,28.0713376952364,18.027756377319943,16.0,17.0,15.0,8.0,12.0,2.0,2.0,5.0,6.082762530298219,6.0,15.0,19.0,17.029386365926403,{}
510,537,4.0,39.05124837953327,6.0,9.0,10.0,11.04536101718726,8.06225774829855,27.018512172212592,18.027756377319943,16.0,17.0,15.0,8.0,11.0,2.0,2.0,5.0990195135927845,6.082762530298219,6.0,16.0,19.0,16.0312195418814,{}
511,538,3.0,38.11823710509184,6.082762530298219,10.0,11.04536101718726,12.0,8.0,27.018512172212592,17.029386365926403,15.5,17.0,14.0,7.5,11.5,1.5,2.5,5.0,6.082762530298219,6.0,15.0,18.0,15.033296378372908,{}
512,539,4.0,38.11823710509184,6.082762530298219,10.04987562112089,10.04987562112089,11.04536101718726,8.0,28.0713376952364,18.027756377319943,16.0,18.0,15.0,8.5,11.5,1.5,2.5,6.082762530298219,6.082762530298219,6.0,15.0,18.0,16.0312195418814,{}
513,540,4.0,38.05259518088089,6.082762530298219,10.0,11.04536101718726,12.0,8.0,28.0178514522438,18.027756377319943,16.0,17.0,15.0,8.0,12.0,2.0,2.0,6.082762530298219,6.082762530298219,6.0,15.0,18.0,16.0312195418814,{}
514,541,4.0,38.11823710509184,6.0,10.04987562112089,10.04987562112089,11.04536101718726,8.06225774829855,28.0713376952364,18.027756377319943,16.0,18.0,15.0,8.5,11.5,1.5,2.5,6.082762530298219,6.082762530298219,6.0,15.0,18.0,16.0312195418814,{}
515,542,6.0,38.05259518088089,6.082762530298219,10.0,10.04987562112089,11.04536101718726,8.0,30.01666203960727,20.024984394500787,17.0,18.0,16.0,9.0,13.0,3.0,3.0,6.082762530298219,6.082762530298219,6.0,16.0,19.0,15.033296378372908,{}
516,543,6.082762530298219,37.05401462729781,5.0,9.0,10.04987562112089,11.0,9.0,29.017236257093817,20.024984394500787,17.0,18.0,16.0,8.0,12.0,3.0,3.0,5.0,6.082762530298219,6.0,16.0,18.0,18.027756377319943,{}
517,544,5.0990195135927845,37.12142238654117,6.0,10.0,10.04987562112089,11.04536101718726,9.0,30.01666203960727,20.024984394500787,17.5,19.0,16.0,8.5,12.5,2.5,2.5,6.0,6.082762530298219,6.0,15.0,18.0,17.029386365926403,{}
518,545,5.0990195135927845,37.05401462729781,6.0,10.0,10.04987562112089,11.04536101718726,8.06225774829855,29.068883707497267,19.1049731745428,16.5,18.0,16.0,9.0,12.0,2.0,3.0,6.082762530298219,6.082762530298219,6.0,16.0,19.0,16.0,{}
519,546,4.0,36.05551275463989,6.0,10.04987562112089,10.04987562112089,11.0,9.055385138137416,29.068883707497267,19.026297590440446,17.0,18.0,16.0,8.0,12.0,2.0,2.0,6.0,5.0990195135927845,5.5,16.0,19.0,16.0,{}
520,547,2.0,35.0142828000232,6.0,9.0,10.04987562112089,11.0,11.04536101718726,28.0178514522438,19.026297590440446,18.0,18.0,17.0,6.5,10.5,1.5,1.5,5.0,5.0990195135927845,5.5,16.0,18.0,15.033296378372908,{}
521,548,2.0,34.0147027033899,5.0,9.0,9.0,10.04987562112089,11.04536101718726,27.018512172212592,18.027756377319943,17.0,17.0,16.0,5.5,10.5,1.5,0.5,6.0,5.0,5.5,16.0,18.0,16.0312195418814,{}
522,549,2.23606797749979,35.0142828000232,5.0,9.0,9.0,10.0,12.0,28.0178514522438,19.026297590440446,18.0,18.0,17.0,5.5,10.5,1.5,0.5,5.0990195135927845,6.082762530298219,6.0,16.0,18.0,16.0,{}
523,550,2.0,35.0142828000232,6.0,9.0,9.0,10.04987562112089,10.04987562112089,27.018512172212592,18.027756377319943,17.0,17.0,16.0,6.5,10.5,1.5,0.5,5.0990195135927845,6.082762530298219,6.0,16.0,18.0,16.0,{}
524,551,3.1622776601683795,36.013886210738214,6.0,9.0,9.055385138137416,11.04536101718726,10.0,28.0178514522438,19.026297590440446,17.5,17.0,16.0,6.5,11.5,2.5,1.5,5.0990195135927845,6.082762530298219,6.0,16.0,18.0,16.0312195418814,{}
525,552,4.0,38.05259518088089,5.0,9.0,10.0,11.04536101718726,9.055385138137416,27.018512172212592,18.027756377319943,16.0,17.0,15.0,7.0,11.0,2.0,2.0,5.0,6.082762530298219,5.5,16.0,19.0,16.0,{}
526,553,4.0,39.05124837953327,5.0,9.0,11.04536101718726,11.04536101718726,9.055385138137416,27.018512172212592,18.027756377319943,16.0,17.0,15.0,7.0,11.0,2.0,2.0,5.0990195135927845,6.082762530298219,6.0,16.0,18.0,17.029386365926403,{}
527,554,4.0,40.049968789001575,5.0,9.0,11.04536101718726,11.04536101718726,9.055385138137416,27.018512172212592,18.027756377319943,16.0,17.0,15.0,7.0,11.0,2.0,2.0,5.0,6.082762530298219,6.0,15.0,18.0,17.029386365926403,{}
528,555,4.0,41.04875150354759,6.082762530298219,9.055385138137416,11.04536101718726,12.041594578792296,8.0,27.073972741361768,18.027756377319943,16.0,16.0,14.0,7.0,12.0,3.0,2.0,6.082762530298219,6.324555320336759,6.0,16.0,19.0,17.0,{}
529,556,4.123105625617661,40.01249804748511,6.0,9.0,10.0,12.041594578792296,8.0,27.018512172212592,18.027756377319943,16.0,16.0,15.0,7.5,11.5,2.5,1.5,5.0990195135927845,6.082762530298219,6.0,16.0,19.0,17.029386365926403,{}
530,557,4.0,40.049968789001575,6.082762530298219,9.0,10.04987562112089,11.04536101718726,8.0,27.018512172212592,18.027756377319943,16.0,16.0,14.0,7.0,12.0,2.0,2.0,6.082762530298219,5.0990195135927845,5.0,16.0,19.0,18.027756377319943,{}
531,558,3.0,38.01315561749642,5.0990195135927845,9.0,10.04987562112089,11.04536101718726,10.0,27.018512172212592,18.027756377319943,16.5,16.0,15.0,5.5,11.5,2.5,0.5,5.0,5.385164807134504,5.0,15.0,19.0,16.0312195418814,{}
532,559,1.0,37.05401462729781,5.0990195135927845,9.0,10.04987562112089,11.0,11.0,26.019223662515376,17.029386365926403,16.5,16.0,14.0,4.0,11.0,2.0,0.0,6.0,6.082762530298219,6.0,15.0,19.0,18.027756377319943,{}
533,560,1.4142135623730951,37.01351104664349,5.0,9.0,9.0,10.0,11.0,26.019223662515376,17.029386365926403,16.5,15.0,14.0,3.5,11.5,2.5,1.5,3.0,3.1622776601683795,3.5,15.0,19.0,17.029386365926403,{}
534,561,1.4142135623730951,37.01351104664349,4.0,9.0,9.0,10.0,11.04536101718726,25.079872407968907,16.1245154965971,15.5,15.0,14.0,3.5,10.5,1.5,0.5,3.1622776601683795,4.123105625617661,4.0,15.0,19.0,17.029386365926403,{}
535,562,1.4142135623730951,36.0,5.0,9.0,9.055385138137416,10.0,11.04536101718726,26.0768096208106,17.11724276862369,16.5,15.0,15.0,4.0,11.0,2.0,0.0,4.123105625617661,5.0990195135927845,5.0,16.0,19.0,17.029386365926403,{}
536,563,1.0,35.0142828000232,5.0990195135927845,9.0,9.055385138137416,10.04987562112089,11.04536101718726,26.0768096208106,17.11724276862369,16.5,15.0,14.0,3.5,11.5,2.5,0.5,5.0,4.123105625617661,4.0,16.0,19.0,17.029386365926403,{}
