,video_id,frame_seq,time_seconds,m1,m3,m4,m5,m6,m7,m8,m9,m10,m11,m12,m13,m14,m15,m16,m17,e1,e2,e3,b1,b2,b3,label_measures
0,280,0,0.0,31.58737676909764,162.47959411145385,16.958488450000118,29.172463226290333,38.83789306291598,43.67478547202781,36.6612139167156,114.2757571896432,85.10335467234279,69.04527440357174,65.41131259285737,58.14338897142886,25.43773267500012,52.08678595357162,23.015091467857246,8.479244225000002,26.758946748007283,26.758946748007283,26.6490532785715,65.41131259285743,72.679236214286,77.52451862857174,"{'others': ['m1', 'm3', 'm12', 'e1', 'e2']}"
1,280,1,0.0333666666666666,33.81536706172689,159.17436168244672,16.864716031844523,26.61098243200976,40.957167505908046,43.43328457068234,36.45849474798645,113.64386631565284,87.03345991797039,69.8681092747845,67.4588641273782,60.23112868515909,27.706319195173137,49.38952552183048,22.887828900360542,10.841603163328614,26.50169662146993,29.30973221789255,28.91094176887645,65.0496189799718,72.27735442219091,74.72544825860649,"{'others': ['m1', 'm3', 'm12', 'e1', 'e2']}"
2,280,2,0.0667333333333332,26.664707898729148,160.06168703241033,17.140723430499744,26.664707898729034,38.78502967087866,41.20909402530856,36.36096531644876,106.68637422457998,80.03084351620517,66.66176974682264,63.02567321517779,58.17754450631799,24.24064354429913,46.05722273416836,19.39251483543933,9.69625741771972,26.774665923573355,26.774665923573355,26.664707898729034,70.2978662784675,70.2978662784675,77.57005934175731,"{'others': ['m1', 'm3', 'm12', 'e1', 'e2']}"
3,280,3,0.1000999999999998,17.057639723195393,158.39236885824243,14.822510251939876,24.36805674742186,38.98889079587525,41.49730533386688,41.49730533386676,97.47222698968768,73.10417024226581,64.57535038066817,60.920141868554765,60.920141868554765,19.49444539793751,36.552085121132905,9.747222698968812,4.873611349484349,29.34302600254589,29.241668096906324,28.023265259535265,73.1041702422657,65.79375321803911,77.97778159175027,"{'others': ['m1', 'm3', 'm12', 'e1', 'e2']}"
4,280,4,0.1334666666666664,14.601338872340987,160.68845480991445,17.03489535106462,26.76912126595846,38.936903659576046,41.37046013829968,38.936903659576046,97.34225914894012,70.57313788298165,63.27246844681122,55.971799010640666,60.83891196808759,19.468451829788137,38.93690365957593,9.734225914893956,2.433556478723517,27.20798856755391,26.76912126595846,26.76912126595846,75.44025084042863,60.83891196808759,75.59709144806664,"{'others': ['m1', 'm3', 'm12', 'e1', 'e2']}"
5,280,5,0.166833333333333,24.142865611338262,159.50743854384856,17.07158399105284,28.971438733605964,36.29468541584765,41.11381864761188,38.70395789855026,108.7501439397746,79.81764279909329,67.60002371174721,53.11430434494423,60.35716402834578,18.10714920850376,51.907161064377306,20.52143576963749,1.2071432805669249,26.992544339297226,26.557152172472115,26.557152172472115,82.0857430785502,60.35716402834578,75.19252762936794,"{'others': ['m1', 'm3', 'm12', 'e1', 'e2']}"
6,280,6,0.2001999999999996,46.14883509917695,165.32490890432032,17.174818022361958,29.24766118672785,41.29106298347415,43.71994904132544,38.93800563563087,131.36209835764316,102.1288101772472,78.93879688017103,58.29326538843395,65.57992356198827,23.074417549588475,69.22325264876542,37.64773389669699,6.072215144628558,27.155771674786354,26.717746636365632,26.717746636365632,80.15323990909673,60.722151446285466,78.06516873056646,"{'others': ['m1', 'm3', 'm12', 'e1', 'e2']}"
7,280,7,0.2335666666666662,46.17352796546743,165.41336933590614,17.18400775562561,29.2633107385624,38.95884020197931,46.17352796546743,39.1855666953546,131.58956184311245,102.32784442887444,78.9810346777731,58.3244563774324,65.61501342461145,23.086763982733714,69.26029194820103,37.66787807709181,6.075464205982598,27.170301918887606,29.263310738562527,27.94713534751986,82.62631320136256,65.61501342461145,77.91768040395884,"{'others': ['m1', 'm3', 'm12', 'e1', 'e2']}"
8,280,8,0.2669333333333328,36.50334718085253,165.55340027137672,17.207842885058454,29.30390050138185,41.37046013829945,46.23757309574648,38.936903659576046,121.77512728953886,92.50716112968313,74.22347260106676,58.40535548936407,63.272468446811104,21.90200830851154,60.83891196808759,29.202677744681974,4.867112957447034,29.60549232828766,26.87950986321611,26.76912126595857,82.74092027659907,65.7060249255345,73.1687515963199,"{'others': ['m1', 'm3', 'm12', 'e1', 'e2']}"
9,280,9,0.3002999999999994,29.23353222804576,163.2932589769084,19.64068930964148,31.669659913716146,41.485759596012805,43.85029834206853,38.97804297072764,119.39511245582148,87.7344252665657,73.0838305701144,60.90319214176202,65.7754475131029,24.36127685670476,56.03093677042102,21.925149171034377,4.872255371340884,26.907909772195325,26.907909772195325,26.79740454237526,80.39221362712584,68.2115751987734,78.10819552207772,"{'others': ['m1', 'm3', 'm12', 'e1', 'e2']}"
10,280,10,0.333666666666666,29.334861933015475,158.36703790360536,17.226024063738887,29.334861933015475,36.54191528505726,41.48575959601258,41.41417065639814,116.95950248933146,87.70059668413728,73.0838305701144,63.339319827432405,65.7754475131029,23.143213013869516,52.37674524191539,20.707085328199128,6.090319214176134,22.459987501680978,19.489021485363764,19.489021485363764,80.39221362712584,68.2115751987734,75.55924042138328,"{'others': ['m1', 'm3', 'm12', 'e1', 'e2']}"
11,280,11,0.3670333333333326,28.889988012350276,154.09874350396842,16.852493007204316,31.38994655606485,38.51998401646711,40.99823066410804,40.92748301749612,117.9920148093742,86.6699640370507,72.22497003087562,65.00247302778803,67.40997202881715,25.27873951080653,51.76122852212745,18.05624250771882,8.426246503602215,15.226360615664566,16.852493007204316,15.648743506689698,79.44746703396311,69.81747102984639,77.07757602542657,"{'others': ['m1', 'm3', 'm12', 'e1', 'e2']}"
12,280,12,0.4003999999999992,33.48434391015178,153.08997076584836,16.742171955075833,31.092605059426543,38.2678216116019,43.117685319043645,38.34249060282148,119.61085753350268,88.52665237200071,71.75216552175357,66.96868782030344,69.36042667102856,29.896735634064044,51.422385290590114,20.329780231163568,13.154563678988213,12.879907886781236,14.350433104350714,14.350433104350714,78.92738207392904,66.96868782030339,74.29804987020535,"{'others': ['m1', 'm3', 'm12', 'e1', 'e2']}"
13,280,13,0.4337666666666658,38.07096587990668,147.54418053171617,16.656047572459215,30.93265977742408,35.77075709272252,40.450401247400805,38.070965879906566,123.73063910969654,92.79797933227246,73.76249639231912,69.00362565733076,71.38306102482488,32.122377461171254,53.53729576861872,22.60463599119464,13.086894521217914,14.47354029665986,16.656047572459215,15.466329888712153,76.1419317598133,66.62419028983663,78.55741090571587,"{'others': ['m1', 'm3', 'm12', 'e1', 'e2']}"
14,280,14,0.4671333333333324,14.361991019145648,138.85321336301666,19.14932135886079,31.11764720814881,33.51131237800632,38.298642717721805,45.54258585358304,110.13461283987624,79.02720993730256,71.80995509572824,69.41628992587061,71.80995509572824,25.1334842835048,39.49547530265045,5.984162924644011,8.377828094501638,16.925768734963675,19.14932135886079,17.95248877393192,78.99095060530095,71.80995509572813,76.63467732707025,"{'others': ['m1', 'm3', 'm12', 'e1', 'e2']}"
15,280,15,0.5004999999999991,16.656047572459215,138.02776216434222,16.6560475724591,28.553224409929957,33.31209514491843,38.07096587990668,45.27184539916304,107.10102644482134,78.55741090571587,70.19334334107782,66.62419028983663,69.00362565733076,22.604635991194527,39.26068356365374,8.328023786229664,8.32802378622955,19.18362122815548,19.18362122815545,19.03548293995334,78.52136712730743,71.38306102482494,78.55741090571564,"{'others': ['m1', 'm3', 'm12', 'e1', 'e2']}"
16,280,16,0.5338666666666656,14.37022699187753,141.3072320867957,16.765264823857024,31.135491815734667,35.92556747969388,38.32060531167349,45.5057188076122,107.77670243908142,76.64121062334675,69.45609712740804,67.06105929542844,67.06105929542844,21.55534048781624,40.71564314365298,7.185113495938822,4.790075663959215,21.68798998898477,23.95037831979596,22.75285940380616,79.03624845532642,76.64121062334681,76.64121062334675,"{'others': ['m1', 'm3', 'm12', 'e1', 'e2']}"
17,280,17,0.5672333333333321,19.04761904761904,140.49636658982803,19.04761904761904,33.33333333333337,33.33333333333326,38.09523809523808,42.92322946980943,114.31051318245532,80.98738738902357,71.42857142857144,71.42857142857144,69.04761904761904,27.380952380952408,44.04761904761904,10.714285714285666,10.71428571428578,23.928275288383016,21.56044080508909,22.619047619047592,73.80952380952385,71.42857142857144,76.19047619047637,"{'others': ['m1', 'm3', 'm12', 'e1', 'e2']}"
18,280,18,0.6005999999999987,21.428191822526514,138.113315308002,16.666371417520736,33.33274283504136,33.33274283504147,38.09456324004736,40.47547344255008,111.90277951763868,78.57003668259733,67.85594077133408,69.04639587258555,66.6654856700826,27.380467328783997,44.046838746304616,8.333185708760311,10.714095911263255,23.92785140021247,23.92785140021247,23.80910202502957,76.18912648009439,73.80821627759144,76.1891264800945,"{'others': ['m1', 'm3', 'm12', 'e1', 'e2']}"
19,280,19,0.6339666666666652,16.6592901419466,138.05463316168215,19.03918873365319,33.3185802838932,38.07837746730638,40.45827605901309,38.15267681106376,107.1218766806838,73.81523182344304,65.44721127193304,64.25726197607969,66.63716056778628,27.368833804626547,41.64822535486644,8.329645070973243,8.329645070973356,23.917684837532576,23.9176848375326,23.7989859170666,73.77685634290629,71.3969577511997,71.4366117157961,"{'others': ['m1', 'm3', 'm12', 'e1', 'e2']}"
20,280,20,0.6673333333333318,11.958694253625596,136.41300933895914,16.742171955075833,33.484343910151665,38.2678216116019,40.72984497539493,38.56563016233063,100.56685956496848,67.13930895752152,60.9893406934907,59.79347126812809,64.57694896957832,23.91738850725119,38.2678216116019,4.783477701450238,7.175216552175357,24.03667796799008,24.036677967990197,25.11325793261381,74.1439043724788,66.96868782030333,74.18247077528052,"{'others': ['m1', 'm3', 'm12', 'e1', 'e2']}"
21,280,21,0.7006999999999983,21.52956910565755,138.08184532288257,14.265259032429867,28.629410971662555,38.11491656178156,40.48810127887823,38.33673172189779,102.34488005989589,73.74217583399624,63.00489405989845,57.06103612971936,64.19366564593429,22.58666013468064,41.60700551125365,10.698944274322344,8.321401102250775,23.894013163165155,26.26082266947985,24.96420330675221,73.70383833422079,66.57120881800586,76.22983312356313,"{'others': ['m1', 'm3', 'm12', 'e1', 'e2']}"
22,280,22,0.7340666666666649,26.33031686843367,143.79932301617578,16.75565618900316,31.11764720814881,38.37337184774221,40.76264900816603,35.98467792905782,110.13461283987624,79.02720993730257,65.82579217108412,57.44796407658259,64.62895958615536,25.1334842835048,49.07013598208084,13.165158434216778,8.377828094501638,24.410690820222637,24.056037235678147,23.936651698576043,71.80995509572813,69.4162899258705,74.24221772997235,"{'others': ['m1', 'm3', 'm12', 'e1', 'e2']}"
23,280,23,0.7674333333333314,36.0020869071155,141.3757258130435,14.368939187113485,31.224674302946937,38.39193644875984,43.1732891776346,38.39193644875984,119.76510573024642,88.60845832053303,70.64728433664118,62.26540314415831,67.05504953986281,26.343055176374605,55.080933550601685,19.158585582817977,11.974115989261122,26.774937322455266,24.06767527299007,23.94823197852247,71.8446959355673,67.05504953986281,76.63434233127191,"{'others': ['m1', 'm3', 'm12', 'e1', 'e2']}"
24,280,24,0.800799999999998,33.41293226861135,145.2929747949846,16.6640099890908,35.708592833765806,38.08916568935024,45.230884256103536,35.70859283376592,121.43255234153273,85.73367993738853,69.03661281194752,61.89489424519422,66.65603995636297,28.566874267012736,57.13374853402536,19.04458284467512,14.283437133506368,26.294286617646,26.294286617646,24.9960149836362,69.0366128119473,66.65603995636297,71.41718566753184,"{'others': ['m1', 'm3', 'm12', 'e1', 'e2']}"
25,280,25,0.8341666666666645,31.135491815734667,146.11693788960744,16.765264823857137,35.92556747969377,38.32060531167349,43.17715854939245,36.00531356556479,119.7758395827402,83.86053196568773,68.25857821141824,62.27098363146922,64.66602146344883,27.542935067765256,56.28338905152032,17.96278373984694,10.77767024390812,24.424689282113725,26.777337004950382,26.345416151775453,69.45609712740804,67.06105929542844,74.24617279136737,"{'others': ['m1', 'm3', 'm12', 'e1', 'e2']}"
26,280,26,0.867533333333331,30.95018784783622,145.24731782616544,14.284702083616708,33.330971528439136,38.09253888964463,40.47332257024755,38.16686586547188,116.68269153154908,83.3614330783062,67.8523348971795,61.900375695672665,64.28115937627535,24.998228646329267,53.5676328135628,17.85587760452097,10.71352656271256,26.296615256085687,23.926579870852454,24.99822864632938,69.04272673748085,66.66194305687804,73.80429409868657,"{'others': ['m1', 'm3', 'm12', 'e1', 'e2']}"
27,280,27,0.9008999999999976,26.294286617646,145.29297479498436,14.283437133506368,33.32801997818149,38.08916568935024,40.53969492998333,38.08916568935035,111.91224659011615,78.59496524340672,65.46575352857087,59.514321389609904,64.27546710077866,23.80572855584387,49.99202996727229,14.283437133506368,9.522291422337505,23.92446110563968,23.924461105639796,23.805728555843984,69.0366128119473,64.27546710077854,73.79775852311604,"{'others': ['m1', 'm3', 'm12', 'e1', 'e2']}"
28,280,28,0.934266666666664,28.56333353554669,142.83650194873815,14.478664580869614,30.943611330175717,35.70416691943342,42.91106819191416,38.15875589636111,111.8730563475582,80.92944501738248,66.64777824960913,59.5069448657224,61.88722266035131,22.61263904897453,51.17597258452133,15.471805665087912,8.33097228120107,23.921495779736365,23.921495779736365,23.802777946288984,69.02805604423793,64.26750045498022,73.78861163349575,"{'others': ['m1', 'm3', 'm12', 'e1', 'e2']}"
29,280,29,0.9676333333333308,28.48835009426737,149.06598357638677,16.560800926738352,30.75577314965699,37.85325926111637,42.5849166687558,35.566204084984406,111.19394907952916,80.43817592987216,66.24320370695352,56.77988889167443,59.14571759549426,22.47537268628776,53.23114583594486,17.743715278648324,8.28040046336912,26.450769024306062,23.776284214266365,23.658287038197614,70.97486111459307,66.24320370695352,75.74347557521364,"{'others': ['m1', 'm3', 'm12', 'e1', 'e2']}"
30,280,30,1.0009999999999972,30.760615858266533,149.14577543412238,16.73156928219605,28.394414638400008,37.85921951786668,40.2949547926357,35.571804229123046,111.21145733373316,82.81704269533316,67.43673476619983,54.42262805693326,59.15503049666654,21.295810978799977,54.42262805693326,23.662012198666616,7.09860365960003,24.13061238637431,23.78002795420448,23.662012198666616,68.61983537613321,66.25363415626657,75.71843903573335,"{'others': ['m1', 'm3', 'm12', 'e1', 'e2']}"
