,frame_seq,m1,m3,m4,m5,m6,m7,m8,m9,m10,m11,m12,m13,m14,m15,m16,m17,e1,e2,e3,b1,b2,b3,label_measures
0,193,4.0,38.05259518088089,5.0,7.0,10.0,11.0,11.04536101718726,27.018512172212592,20.024984394500787,18.0,18.0,16.0,6.0,10.0,2.0,2.0,5.0,5.0,4.5,15.0,16.0,15.0,{}
1,194,3.0,39.20459156782532,4.123105625617661,7.0,11.04536101718726,11.04536101718726,11.0,25.019992006393608,18.027756377319943,16.5,18.0,14.0,5.0,9.0,2.0,2.0,5.0,5.0,4.5,14.0,16.0,15.033296378372908,{}
2,195,2.23606797749979,38.11823710509184,4.0,7.0,10.04987562112089,11.04536101718726,11.0,24.020824298928627,17.029386365926403,16.0,18.0,15.0,5.5,7.5,0.5,2.5,3.0,3.0,3.0,15.0,17.0,17.029386365926403,{}
3,196,2.23606797749979,38.3275357934736,5.0,6.0,10.04987562112089,11.180339887498947,11.0,24.020824298928627,18.027756377319943,17.0,19.0,14.0,5.5,7.5,1.5,1.5,3.0,2.0,2.0,15.0,17.0,16.0,{}
4,197,2.0,40.19950248448356,4.123105625617661,7.0,10.198039027185567,11.180339887498947,12.041594578792296,25.0,18.0,17.0,18.0,14.0,4.0,9.0,3.0,1.0,2.0,2.0,2.0,14.0,16.0,16.0,"{'neutral': (['m1', 'm3', 'm12', 'e1', 'e2'], None, 23)}"
5,198,1.0,36.22154055254967,4.0,7.071067811865476,9.219544457292889,11.180339887498947,12.0,24.020824298928627,17.0,16.5,18.0,14.0,4.0,8.0,2.0,1.0,2.0,3.0,2.5,15.0,17.0,17.029386365926403,"{'neutral': (['m1', 'm3', 'm12', 'e1', 'e2'], None, 23)}"
6,199,0.0,37.33630940518894,4.123105625617661,6.082762530298219,11.180339887498947,11.180339887498947,13.0,23.08679276123039,17.029386365926403,17.0,20.0,15.0,4.5,5.5,0.5,2.5,2.0,2.0,2.0,16.0,17.0,16.0312195418814,"{'neutral': (['m1', 'm3', 'm12', 'e1', 'e2'], None, 23)}"
7,200,3.1622776601683795,38.3275357934736,4.0,6.0,10.198039027185567,12.16552506059644,12.0,25.019992006393608,19.026297590440446,17.5,18.0,13.0,3.5,9.5,3.5,0.5,3.0,2.0,2.0,15.0,17.0,17.029386365926403,"{'neutral': (['m1', 'm3', 'm12', 'e1', 'e2'], None, 23)}"
8,201,1.4142135623730951,38.47076812334269,4.0,6.082762530298219,12.16552506059644,13.038404810405298,12.041594578792296,23.194827009486403,17.11724276862369,16.5,20.0,14.0,5.0,6.0,0.0,3.0,4.123105625617661,3.0,3.0,14.0,16.0,17.0,"{'neutral': (['m1', 'm3', 'm12', 'e1', 'e2'], None, 23)}"
9,202,2.23606797749979,36.49657518178932,3.0,5.0990195135927845,11.180339887498947,11.180339887498947,13.038404810405298,23.194827009486403,18.110770276274835,17.0,20.0,14.0,4.0,6.0,1.0,3.0,3.0,3.0,3.0,14.0,17.0,16.0312195418814,"{'neutral': (['m1', 'm3', 'm12', 'e1', 'e2'], None, 23)}"
10,203,2.23606797749979,38.2099463490856,3.0,5.0,10.198039027185567,11.180339887498947,13.038404810405298,23.08679276123039,18.110770276274835,17.0,19.0,15.0,4.0,6.0,1.0,2.0,3.0,3.1622776601683795,3.0,14.0,16.0,15.0,"{'neutral': (['m1', 'm3', 'm12', 'e1', 'e2'], None, 23)}"
11,204,1.0,38.47076812334269,3.0,6.082762530298219,12.16552506059644,11.180339887498947,13.038404810405298,22.20360331117452,16.1245154965971,16.0,20.0,14.0,4.0,5.0,0.0,2.0,2.23606797749979,2.23606797749979,2.5,14.0,16.0,17.029386365926403,"{'neutral': (['m1', 'm3', 'm12', 'e1', 'e2'], None, 23)}"
12,205,1.0,37.65634076752546,3.0,4.123105625617661,12.16552506059644,12.16552506059644,13.038404810405298,20.223748416156685,16.1245154965971,16.0,21.0,14.0,4.5,2.5,1.5,3.5,2.23606797749979,1.0,1.0,14.0,17.0,17.029386365926403,"{'neutral': (['m1', 'm3', 'm12', 'e1', 'e2'], None, 23)}"
13,206,0.0,37.33630940518894,5.0990195135927845,6.082762530298219,10.198039027185567,11.180339887498947,12.0,23.08679276123039,17.029386365926403,17.0,18.0,13.0,3.5,7.5,1.5,0.5,6.0,7.071067811865476,6.5,13.0,17.0,17.0,"{'neutral': (['m1', 'm3', 'm12', 'e1', 'e2'], None, 23)}"
14,207,1.0,36.49657518178932,4.0,6.082762530298219,11.180339887498947,11.180339887498947,11.0,21.095023109728988,15.033296378372908,15.0,18.0,12.0,4.0,6.0,1.0,2.0,3.0,3.1622776601683795,2.5,15.0,19.0,17.11724276862369,"{'neutral': (['m1', 'm3', 'm12', 'e1', 'e2'], None, 23)}"
15,208,0.0,36.49657518178932,3.0,5.0990195135927845,10.198039027185567,11.180339887498947,13.0,21.02379604162864,16.0,16.0,18.0,12.0,2.0,6.0,1.0,1.0,3.1622776601683795,2.23606797749979,2.5,14.0,18.0,19.1049731745428,"{'neutral': (['m1', 'm3', 'm12', 'e1', 'e2'], None, 23)}"
16,209,1.0,37.33630940518894,3.0,6.082762530298219,12.16552506059644,12.36931687685298,11.0,20.09975124224178,14.0356688476182,14.0,16.0,11.0,2.5,6.5,1.5,0.5,4.0,3.1622776601683795,3.0,14.0,18.0,17.029386365926403,"{'neutral': (['m1', 'm3', 'm12', 'e1', 'e2'], None, 23)}"
17,210,1.0,38.3275357934736,3.1622776601683795,6.0,11.180339887498947,12.16552506059644,12.0,21.095023109728988,15.132745950421556,15.0,17.0,12.0,2.5,6.5,0.5,1.5,2.0,3.1622776601683795,2.5,14.0,18.0,18.110770276274835,"{'neutral': (['m1', 'm3', 'm12', 'e1', 'e2'], None, 23)}"
18,211,1.4142135623730951,34.713109915419565,3.1622776601683795,5.0990195135927845,11.180339887498947,11.180339887498947,12.041594578792296,21.37755832643195,16.278820596099706,15.5,20.0,13.0,4.5,4.5,0.5,2.5,4.123105625617661,4.123105625617661,3.5,15.0,19.0,15.033296378372908,"{'neutral': (['m1', 'm3', 'm12', 'e1', 'e2'], None, 23)}"
19,212,1.4142135623730951,35.6931365951495,2.0,5.0990195135927845,12.16552506059644,11.180339887498947,13.152946437965904,21.37755832643195,16.278820596099706,15.5,21.0,14.0,4.5,3.5,0.5,3.5,4.0,4.0,3.5,13.0,18.0,17.11724276862369,"{'neutral': (['m1', 'm3', 'm12', 'e1', 'e2'], None, 23)}"
20,213,1.0,36.6742416417845,3.0,5.0990195135927845,11.180339887498947,11.40175425099138,12.16552506059644,21.213203435596427,16.1245154965971,15.5,21.0,14.0,5.5,3.5,1.5,3.5,4.0,4.123105625617661,4.0,13.0,18.0,16.1245154965971,"{'neutral': (['m1', 'm3', 'm12', 'e1', 'e2'], None, 23)}"
21,214,0.0,37.33630940518894,3.0,5.0990195135927845,10.198039027185567,11.40175425099138,13.038404810405298,21.095023109728988,16.0312195418814,16.0,19.0,14.0,3.5,4.5,0.5,1.5,4.123105625617661,4.123105625617661,3.5,13.0,18.0,17.11724276862369,"{'neutral': (['m1', 'm3', 'm12', 'e1', 'e2'], None, 23)}"
22,215,1.0,37.48332962798263,3.0,4.0,12.041594578792296,12.36931687685298,13.038404810405298,20.09975124224178,16.1245154965971,16.0,20.0,14.0,4.0,3.0,1.0,2.0,3.1622776601683795,3.0,3.5,14.0,18.0,18.110770276274835,"{'neutral': (['m1', 'm3', 'm12', 'e1', 'e2'], None, 23)}"
23,216,1.0,38.47076812334269,3.0,5.0990195135927845,13.152946437965904,12.16552506059644,12.041594578792296,20.223748416156685,15.132745950421556,15.0,20.0,14.0,5.0,3.0,1.0,3.0,3.0,3.1622776601683795,3.0,13.0,17.0,15.033296378372908,"{'neutral': (['m1', 'm3', 'm12', 'e1', 'e2'], None, 23)}"
24,217,4.123105625617661,39.45883931389772,2.23606797749979,4.0,13.152946437965904,13.152946437965904,12.041594578792296,22.20360331117452,18.24828759089466,16.0,20.0,14.0,5.0,5.0,1.0,4.0,3.0,3.0,3.0,14.0,17.0,17.029386365926403,"{'neutral': (['m1', 'm3', 'm12', 'e1', 'e2'], None, 23)}"
25,218,4.123105625617661,38.3275357934736,3.0,4.123105625617661,12.16552506059644,12.16552506059644,11.04536101718726,22.20360331117452,18.110770276274835,16.0,20.0,15.0,6.5,4.5,0.5,4.5,4.123105625617661,4.0,4.0,14.0,18.0,15.033296378372908,"{'neutral': (['m1', 'm3', 'm12', 'e1', 'e2'], None, 23)}"
26,219,4.123105625617661,40.311288741492746,4.0,5.0990195135927845,12.16552506059644,12.16552506059644,10.04987562112089,23.194827009486403,18.110770276274835,16.0,20.0,15.0,7.5,5.5,0.5,4.5,4.123105625617661,4.0,4.0,13.0,17.0,16.1245154965971,"{'neutral': (['m1', 'm3', 'm12', 'e1', 'e2'], None, 23)}"
27,220,3.0,40.60788100849391,3.1622776601683795,3.1622776601683795,12.16552506059644,12.16552506059644,12.041594578792296,21.213203435596427,18.110770276274835,16.5,21.0,14.0,5.5,3.5,0.5,4.5,3.0,3.0,3.5,13.0,16.0,17.029386365926403,"{'neutral': (['m1', 'm3', 'm12', 'e1', 'e2'], None, 23)}"
28,221,3.1622776601683795,40.311288741492746,3.1622776601683795,4.0,13.152946437965904,14.142135623730953,12.0,22.09072203437452,18.110770276274835,16.5,20.0,15.0,5.5,4.5,0.5,4.5,4.0,5.0990195135927845,4.5,13.0,16.0,16.0312195418814,"{'neutral': (['m1', 'm3', 'm12', 'e1', 'e2'], None, 23)}"
29,222,4.123105625617661,39.319206502675,3.0,4.0,12.041594578792296,12.16552506059644,12.041594578792296,23.08679276123039,19.1049731745428,17.0,20.0,15.0,5.5,5.5,1.5,3.5,4.0,3.0,3.5,14.0,17.0,15.033296378372908,"{'neutral': (['m1', 'm3', 'm12', 'e1', 'e2'], None, 23)}"
30,223,5.0990195135927845,42.1070065428546,3.0,5.0,12.16552506059644,13.152946437965904,12.0,25.019992006393608,20.024984394500787,17.5,17.0,14.0,3.5,9.5,4.5,2.5,4.123105625617661,3.1622776601683795,3.5,13.0,17.0,16.0312195418814,"{'neutral': (['m1', 'm3', 'm12', 'e1', 'e2'], None, 23)}"
31,224,3.0,38.05259518088089,4.0,5.0,11.04536101718726,12.041594578792296,11.0,23.0,18.0,16.5,16.0,14.0,4.0,8.0,3.0,1.0,5.0,4.123105625617661,4.5,15.0,18.0,16.0,"{'neutral': (['m1', 'm3', 'm12', 'e1', 'e2'], None, 23)}"
32,225,0.0,35.12833614050059,4.0,5.0990195135927845,10.04987562112089,11.04536101718726,12.0,21.02379604162864,16.0,16.0,17.0,14.0,3.5,5.5,0.5,0.5,5.0990195135927845,4.0,4.5,13.0,16.0,18.027756377319943,"{'neutral': (['m1', 'm3', 'm12', 'e1', 'e2'], None, 23)}"
33,226,1.0,38.05259518088089,5.0,6.082762530298219,10.04987562112089,11.180339887498947,10.04987562112089,22.0,16.0312195418814,15.5,16.0,14.0,5.0,7.0,1.0,0.0,5.0,5.0990195135927845,4.5,15.0,17.0,18.027756377319943,"{'neutral': (['m1', 'm3', 'm12', 'e1', 'e2'], None, 23)}"
34,227,0.0,37.12142238654117,4.0,6.082762530298219,10.04987562112089,11.04536101718726,11.04536101718726,21.0,15.033296378372908,15.0,16.0,13.0,3.5,6.5,1.5,0.5,5.0,5.0990195135927845,5.0,13.0,17.0,17.029386365926403,{}
35,228,0.0,37.21558813185679,4.123105625617661,6.082762530298219,11.04536101718726,12.16552506059644,12.0,22.09072203437452,16.0312195418814,16.0,18.0,14.0,4.0,6.0,0.0,1.0,4.123105625617661,4.0,4.5,13.0,16.0,16.0312195418814,{}
36,229,0.0,38.3275357934736,4.0,6.082762530298219,12.16552506059644,12.16552506059644,11.04536101718726,21.095023109728988,15.033296378372908,15.0,18.0,13.0,4.5,5.5,0.5,2.5,5.0,4.123105625617661,4.5,13.0,16.0,17.029386365926403,{}
37,230,0.0,39.20459156782532,3.0,6.082762530298219,12.041594578792296,12.16552506059644,12.0,21.02379604162864,15.0,15.0,16.0,12.0,2.0,7.0,2.0,0.0,4.123105625617661,4.0,4.5,13.0,16.0,17.029386365926403,{}
38,231,1.4142135623730951,36.345563690772494,3.0,6.082762530298219,12.041594578792296,11.180339887498947,11.0,21.095023109728988,15.033296378372908,14.5,17.0,12.0,3.5,6.5,0.5,1.5,5.0,4.123105625617661,4.5,14.0,17.0,15.033296378372908,{}
39,232,1.0,38.3275357934736,3.0,6.082762530298219,12.041594578792296,12.16552506059644,11.0,20.09975124224178,14.0356688476182,14.0,18.0,13.0,4.5,4.5,1.5,2.5,4.0,4.123105625617661,4.5,14.0,17.0,17.11724276862369,{}
40,233,1.4142135623730951,39.319206502675,3.0,5.0990195135927845,12.041594578792296,13.152946437965904,11.0,20.09975124224178,15.033296378372908,14.5,17.0,12.0,3.5,5.5,0.5,1.5,5.0,4.123105625617661,4.5,13.0,16.0,16.0312195418814,{}
41,234,1.0,39.11521443121589,4.0,6.0,11.04536101718726,12.16552506059644,11.04536101718726,21.0,15.0,15.0,16.0,13.0,3.5,6.5,1.5,0.5,4.0,4.123105625617661,4.5,13.0,16.0,17.029386365926403,{}
42,235,1.0,39.20459156782532,3.0,6.0,12.16552506059644,12.16552506059644,12.0,21.02379604162864,15.033296378372908,15.0,17.0,13.0,3.0,6.0,1.0,2.0,5.0,5.0,4.5,14.0,16.0,15.033296378372908,{}
43,236,2.0,39.20459156782532,3.0,5.0990195135927845,12.041594578792296,12.041594578792296,12.041594578792296,22.09072203437452,17.029386365926403,16.0,18.0,14.0,4.0,6.0,1.0,2.0,5.0990195135927845,4.123105625617661,4.0,13.0,17.0,15.033296378372908,{}
44,237,3.0,42.1070065428546,4.0,6.082762530298219,12.16552506059644,12.041594578792296,11.04536101718726,24.08318915758459,18.027756377319943,16.5,16.0,13.0,3.5,9.5,3.5,1.5,5.0,6.0,6.0,14.0,17.0,16.0312195418814,{}
45,238,2.0,38.2099463490856,3.0,6.082762530298219,11.180339887498947,11.180339887498947,12.0,23.021728866442675,17.0,16.0,18.0,14.0,4.0,7.0,2.0,2.0,5.0,4.123105625617661,4.5,13.0,16.0,16.0,{}
46,239,2.0,41.10960958218893,4.0,6.082762530298219,12.16552506059644,12.041594578792296,12.0,24.020824298928627,18.0,17.0,18.0,15.0,4.5,7.5,1.5,2.5,4.0,4.123105625617661,4.0,14.0,17.0,18.027756377319943,{}
47,240,2.0,38.2099463490856,4.0,5.0,11.180339887498947,11.180339887498947,11.0,22.0,17.0,16.0,18.0,14.0,5.0,6.0,1.0,2.0,5.0,5.0990195135927845,4.5,14.0,17.0,19.026297590440446,{}
48,241,1.4142135623730951,39.20459156782532,4.0,5.0,11.180339887498947,12.041594578792296,12.0,22.02271554554524,17.029386365926403,16.5,18.0,14.0,4.0,6.0,1.0,1.0,4.0,4.123105625617661,4.5,13.0,16.0,17.029386365926403,{}
49,242,3.0,39.20459156782532,3.0,5.0990195135927845,11.04536101718726,11.04536101718726,12.041594578792296,23.08679276123039,18.027756377319943,16.5,18.0,14.0,4.0,7.0,2.0,2.0,5.0,4.0,4.5,15.0,18.0,17.0,{}
50,243,1.4142135623730951,39.319206502675,4.0,5.0,11.180339887498947,12.16552506059644,12.041594578792296,22.09072203437452,17.11724276862369,16.5,20.0,15.0,5.5,4.5,0.5,3.5,5.0990195135927845,4.0,4.0,14.0,17.0,17.029386365926403,{}
51,244,0.0,38.3275357934736,4.0,5.0990195135927845,11.180339887498947,12.16552506059644,12.041594578792296,21.095023109728988,16.0312195418814,16.0,19.0,14.0,4.5,4.5,0.5,2.5,5.0990195135927845,4.123105625617661,4.5,15.0,17.0,17.029386365926403,{}
52,245,2.0,39.319206502675,3.0,5.0990195135927845,10.198039027185567,11.180339887498947,12.0,22.02271554554524,17.0,16.0,19.0,14.0,4.5,5.5,1.5,2.5,5.0990195135927845,4.0,4.5,14.0,17.0,17.0,{}
53,246,2.23606797749979,38.2099463490856,4.0,5.0,11.180339887498947,12.16552506059644,11.04536101718726,22.09072203437452,17.11724276862369,16.0,19.0,15.0,6.0,5.0,0.0,3.0,5.0990195135927845,5.0990195135927845,5.0,14.0,18.0,17.029386365926403,{}
54,247,1.4142135623730951,38.3275357934736,3.0,5.0990195135927845,12.16552506059644,12.041594578792296,13.038404810405298,22.20360331117452,17.11724276862369,16.5,20.0,15.0,4.5,4.5,0.5,3.5,4.0,4.123105625617661,4.0,14.0,17.0,17.029386365926403,{}
55,248,4.123105625617661,38.3275357934736,3.0,5.0990195135927845,12.16552506059644,12.041594578792296,11.04536101718726,23.194827009486403,18.110770276274835,16.0,20.0,15.0,6.5,5.5,0.5,4.5,5.0990195135927845,5.0990195135927845,5.0,14.0,17.0,17.029386365926403,{}
56,249,3.0,43.10452412450461,4.0,6.082762530298219,12.16552506059644,12.041594578792296,11.04536101718726,24.08318915758459,18.027756377319943,16.5,16.0,13.0,3.5,9.5,3.5,1.5,5.0,5.0990195135927845,5.0,12.0,16.0,18.027756377319943,{}
57,250,6.0,40.311288741492746,2.23606797749979,5.0990195135927845,12.16552506059644,13.038404810405298,12.0,25.079872407968907,20.024984394500787,17.0,20.0,15.0,5.5,7.5,2.5,4.5,5.0,4.123105625617661,4.5,14.0,18.0,16.0,{}
58,251,5.0990195135927845,41.43669871020132,3.1622776601683795,6.0,13.152946437965904,14.142135623730953,12.0,26.0768096208106,20.09975124224178,17.5,21.0,15.0,6.0,8.0,3.0,4.0,6.0,6.082762530298219,6.0,14.0,17.0,16.0312195418814,{}
59,252,5.0990195135927845,39.319206502675,3.0,6.082762530298219,12.16552506059644,13.152946437965904,11.04536101718726,25.179356624028344,19.1049731745428,16.5,19.0,14.0,5.5,8.5,2.5,3.5,4.0,4.123105625617661,4.5,14.0,17.0,15.033296378372908,{}
60,253,5.0,41.19465984809196,3.1622776601683795,6.082762530298219,12.16552506059644,13.152946437965904,12.041594578792296,26.1725046566048,20.09975124224178,17.5,17.0,13.0,3.0,11.0,5.0,2.0,4.123105625617661,4.123105625617661,4.0,14.0,18.0,16.0312195418814,{}
61,254,5.0990195135927845,38.3275357934736,2.0,5.0,12.16552506059644,13.038404810405298,12.041594578792296,24.08318915758459,19.1049731745428,16.5,19.0,14.0,4.5,7.5,2.5,3.5,4.0,4.123105625617661,4.5,13.0,18.0,15.033296378372908,{}
62,255,2.0,39.20459156782532,3.1622776601683795,6.082762530298219,13.152946437965904,13.038404810405298,11.04536101718726,22.20360331117452,16.1245154965971,15.0,16.0,12.0,3.0,8.0,2.0,2.0,4.0,4.0,4.5,14.0,17.0,16.0312195418814,{}
63,256,1.0,40.311288741492746,4.0,6.082762530298219,12.16552506059644,13.038404810405298,11.04536101718726,21.213203435596427,15.132745950421556,15.0,18.0,13.0,4.5,5.5,0.5,2.5,4.0,5.0,4.5,13.0,16.0,16.0,{}
64,257,1.0,38.3275357934736,2.0,5.0,12.16552506059644,12.16552506059644,12.041594578792296,19.1049731745428,14.142135623730953,14.0,17.0,12.0,2.5,4.5,0.5,1.5,4.0,4.123105625617661,4.5,13.0,16.0,17.11724276862369,{}
65,258,0.0,38.2099463490856,3.0,5.0990195135927845,11.04536101718726,11.04536101718726,11.04536101718726,19.1049731745428,14.0356688476182,14.0,16.0,12.0,3.0,5.0,0.0,1.0,5.0,5.0990195135927845,5.0,14.0,17.0,16.0312195418814,{}
66,259,1.0,38.47076812334269,3.0,5.0,12.16552506059644,12.16552506059644,12.0,20.024984394500787,15.033296378372908,15.0,19.0,13.0,4.0,4.0,0.0,3.0,4.0,5.0990195135927845,4.5,14.0,17.0,17.029386365926403,{}
67,260,1.0,40.19950248448356,3.0,5.0,12.041594578792296,12.16552506059644,12.0,20.024984394500787,15.033296378372908,15.0,16.0,12.0,2.0,6.0,2.0,0.0,4.123105625617661,4.123105625617661,4.0,12.0,16.0,17.029386365926403,{}
68,261,0.0,40.19950248448356,3.0,5.0990195135927845,12.16552506059644,12.16552506059644,12.0,20.024984394500787,15.0,15.0,17.0,13.0,3.0,5.0,1.0,2.0,4.123105625617661,5.0990195135927845,4.5,13.0,16.0,15.033296378372908,{}
69,262,0.0,38.3275357934736,3.1622776601683795,5.0990195135927845,11.04536101718726,11.180339887498947,12.0,20.09975124224178,15.033296378372908,15.0,18.0,13.0,3.5,4.5,0.5,1.5,5.0,4.123105625617661,4.5,13.0,16.0,18.027756377319943,{}
70,263,0.0,38.3275357934736,3.0,4.123105625617661,11.180339887498947,11.180339887498947,12.0,19.026297590440446,15.0,15.0,18.0,13.0,3.5,3.5,0.5,1.5,4.0,4.123105625617661,4.5,14.0,17.0,16.0312195418814,{}
71,264,0.0,37.33630940518894,2.23606797749979,5.0990195135927845,11.180339887498947,12.16552506059644,12.0,19.1049731745428,14.0356688476182,14.0,17.0,12.0,2.5,4.5,0.5,1.5,5.0,5.0990195135927845,4.5,13.0,17.0,17.029386365926403,{}
72,265,1.0,39.45883931389772,3.0,5.0990195135927845,11.180339887498947,12.16552506059644,11.0,19.1049731745428,14.0356688476182,14.0,18.0,12.0,4.0,4.0,1.0,2.0,4.0,4.123105625617661,4.0,13.0,16.0,17.0,{}
73,266,1.0,39.20459156782532,3.0,4.123105625617661,12.041594578792296,11.180339887498947,11.04536101718726,18.24828759089466,14.142135623730953,14.0,17.0,13.0,4.0,3.0,1.0,2.0,4.0,4.123105625617661,4.5,14.0,17.0,17.029386365926403,{}
74,267,1.0,39.319206502675,3.0,5.0990195135927845,12.041594578792296,12.16552506059644,11.04536101718726,19.235384061671343,14.142135623730953,14.0,17.0,12.0,3.5,4.5,0.5,1.5,5.0990195135927845,5.0990195135927845,5.0,13.0,16.0,16.0312195418814,{}
75,268,1.0,40.44749683231337,2.0,5.0990195135927845,12.041594578792296,13.152946437965904,12.041594578792296,19.235384061671343,14.142135623730953,14.0,18.0,12.0,3.0,4.0,1.0,2.0,4.0,4.123105625617661,4.0,13.0,17.0,15.033296378372908,{}
76,269,1.0,41.43669871020132,3.0,4.123105625617661,12.16552506059644,12.16552506059644,11.0,18.110770276274835,14.0356688476182,14.0,17.0,11.0,3.0,4.0,0.0,1.0,5.0990195135927845,5.0990195135927845,4.5,13.0,16.0,17.029386365926403,{}
77,270,1.4142135623730951,40.311288741492746,2.0,5.0,11.180339887498947,11.04536101718726,12.041594578792296,18.110770276274835,13.152946437965904,13.5,17.0,12.0,2.5,3.5,0.5,1.5,5.0990195135927845,5.0,5.0,13.0,16.0,16.0312195418814,{}
78,271,1.0,41.30375285612676,3.1622776601683795,4.123105625617661,11.180339887498947,12.16552506059644,11.0,17.11724276862369,13.038404810405298,13.5,17.0,12.0,3.5,2.5,0.5,1.5,5.0,4.123105625617661,4.5,12.0,16.0,17.029386365926403,{}
79,272,1.4142135623730951,41.43669871020132,3.0,4.0,11.180339887498947,11.180339887498947,11.04536101718726,17.11724276862369,13.152946437965904,13.5,18.0,12.0,4.0,2.0,2.0,2.0,5.0,5.0990195135927845,5.0,14.0,18.0,16.0,{}
80,273,2.0,41.43669871020132,3.0,5.0990195135927845,12.16552506059644,12.16552506059644,11.04536101718726,17.11724276862369,12.041594578792296,13.0,17.0,11.0,3.0,3.0,1.0,2.0,5.0,4.0,4.5,13.0,16.0,15.033296378372908,{}
81,274,2.0,40.44749683231337,3.1622776601683795,4.123105625617661,12.16552506059644,12.16552506059644,11.0,16.1245154965971,12.041594578792296,13.0,17.0,11.0,3.0,2.0,1.0,2.0,5.0990195135927845,6.082762530298219,6.0,12.0,16.0,16.0312195418814,{}
82,275,2.23606797749979,40.44749683231337,3.0,4.123105625617661,12.16552506059644,11.180339887498947,11.0,16.1245154965971,12.041594578792296,13.0,17.0,11.0,3.0,2.0,1.0,2.0,6.0,5.0990195135927845,5.0,12.0,16.0,17.029386365926403,{}
83,276,1.0,41.43669871020132,2.23606797749979,4.123105625617661,12.16552506059644,12.16552506059644,11.0,16.1245154965971,12.041594578792296,12.5,17.0,11.0,3.0,2.0,1.0,2.0,4.0,5.0990195135927845,5.0,13.0,16.0,17.029386365926403,{}
84,277,1.4142135623730951,40.60788100849391,4.0,4.0,11.04536101718726,12.16552506059644,10.04987562112089,17.11724276862369,13.152946437965904,13.5,18.0,11.0,4.5,2.5,1.5,1.5,4.123105625617661,4.123105625617661,4.5,13.0,16.0,17.0,{}
85,278,2.23606797749979,39.45883931389772,4.0,5.0990195135927845,11.04536101718726,11.180339887498947,10.0,17.11724276862369,12.041594578792296,13.0,17.0,11.0,4.0,3.0,1.0,1.0,5.0,5.0990195135927845,5.0,14.0,17.0,16.0312195418814,{}
86,279,2.23606797749979,39.45883931389772,3.0,4.123105625617661,12.041594578792296,11.180339887498947,11.04536101718726,16.278820596099706,12.16552506059644,13.0,17.0,11.0,3.0,2.0,2.0,1.0,4.0,4.123105625617661,4.0,13.0,16.0,17.029386365926403,{}
87,280,1.4142135623730951,41.43669871020132,3.0,4.0,12.041594578792296,12.16552506059644,11.04536101718726,17.11724276862369,13.152946437965904,13.5,17.0,11.0,3.0,3.0,1.0,1.0,5.0,4.0,4.5,14.0,17.0,17.11724276862369,{}
88,281,1.4142135623730951,40.311288741492746,3.0,3.0,12.16552506059644,12.16552506059644,11.04536101718726,16.1245154965971,13.152946437965904,13.5,17.0,12.0,3.5,1.5,1.5,1.5,4.123105625617661,4.0,4.0,13.0,17.0,16.0312195418814,{}
89,282,1.0,41.43669871020132,4.123105625617661,5.0990195135927845,12.16552506059644,12.16552506059644,10.0,18.110770276274835,13.038404810405298,13.5,18.0,12.0,5.0,3.0,1.0,2.0,4.0,4.0,4.0,14.0,18.0,17.029386365926403,{}
90,283,1.0,41.10960958218893,4.123105625617661,5.0990195135927845,12.041594578792296,12.16552506059644,10.0,19.026297590440446,14.0,14.0,14.0,11.0,2.5,6.5,1.5,0.5,5.0,5.0,5.5,13.0,16.0,18.027756377319943,{}
91,284,1.0,39.45883931389772,3.0,5.0990195135927845,13.152946437965904,12.041594578792296,11.04536101718726,18.110770276274835,13.038404810405298,13.5,19.0,13.0,5.0,2.0,2.0,3.0,5.0,5.0990195135927845,4.5,13.0,16.0,16.0312195418814,{}
92,285,0.0,39.319206502675,3.1622776601683795,5.0990195135927845,13.152946437965904,14.0356688476182,12.041594578792296,20.223748416156685,15.132745950421556,15.0,18.0,13.0,3.5,4.5,0.5,2.5,4.123105625617661,4.123105625617661,4.0,14.0,18.0,16.0312195418814,{}
93,286,0.0,38.3275357934736,3.1622776601683795,6.082762530298219,12.16552506059644,12.16552506059644,11.04536101718726,20.223748416156685,14.142135623730953,14.0,18.0,13.0,4.5,4.5,0.5,2.5,4.0,4.0,4.0,14.0,18.0,17.029386365926403,{}
94,287,2.23606797749979,39.45883931389772,3.0,6.082762530298219,12.041594578792296,13.152946437965904,12.041594578792296,23.194827009486403,17.11724276862369,16.0,20.0,14.0,5.0,6.0,1.0,3.0,5.0,5.0990195135927845,5.0,14.0,17.0,18.110770276274835,{}
95,288,4.0,40.19950248448356,3.0,6.082762530298219,12.041594578792296,12.16552506059644,12.041594578792296,25.079872407968907,19.026297590440446,17.0,17.0,13.0,3.0,10.0,4.0,1.0,2.0,2.0,2.0,15.0,18.0,17.029386365926403,{}
96,289,3.0,42.1070065428546,4.123105625617661,5.0990195135927845,12.041594578792296,13.038404810405298,11.0,23.08679276123039,18.027756377319943,16.5,16.0,13.0,3.5,8.5,3.5,0.5,3.0,2.0,2.5,14.0,17.0,16.0312195418814,{}
97,290,5.0990195135927845,39.6232255123179,3.0,6.082762530298219,11.40175425099138,12.36931687685298,11.0,25.079872407968907,19.026297590440446,16.5,17.0,10.0,2.5,11.5,6.5,1.5,6.082762530298219,6.082762530298219,6.0,11.0,19.0,17.029386365926403,{}
98,291,4.123105625617661,40.311288741492746,3.0,6.082762530298219,12.16552506059644,12.16552506059644,12.041594578792296,25.179356624028344,19.1049731745428,17.0,17.0,12.0,2.5,10.5,4.5,0.5,7.0,6.082762530298219,6.5,12.0,18.0,18.027756377319943,{}
99,292,4.123105625617661,36.49657518178932,5.0,6.082762530298219,11.180339887498947,12.16552506059644,9.055385138137416,24.186773244895647,18.110770276274835,16.0,20.0,14.0,8.0,7.0,2.0,4.0,3.1622776601683795,3.0,3.0,14.0,18.0,17.11724276862369,{}
100,293,5.0990195135927845,38.47076812334269,5.0,6.082762530298219,12.16552506059644,12.16552506059644,9.055385138137416,25.179356624028344,19.1049731745428,16.5,21.0,15.0,9.0,7.0,2.0,5.0,3.1622776601683795,3.0,3.0,13.0,17.0,18.110770276274835,{}
101,293,6.0,26.30589287593181,3.1622776601683795,7.0,7.071067811865476,8.06225774829855,7.071067811865476,23.0,16.0,13.0,12.0,8.0,3.0,13.0,7.0,1.0,4.123105625617661,4.0,4.0,9.0,12.0,11.04536101718726,{}
102,294,5.0990195135927845,37.48332962798263,3.1622776601683795,5.0990195135927845,12.16552506059644,12.16552506059644,11.04536101718726,24.33105012119288,19.235384061671343,16.5,21.0,15.0,7.0,6.0,2.0,5.0,4.123105625617661,3.0,3.0,14.0,18.0,16.1245154965971,{}
103,295,4.123105625617661,36.49657518178932,3.0,6.082762530298219,12.16552506059644,12.041594578792296,12.041594578792296,25.179356624028344,19.1049731745428,17.0,20.0,14.0,5.0,8.0,3.0,3.0,4.0,4.123105625617661,3.5,13.0,18.0,16.1245154965971,{}
104,295,5.0,26.1725046566048,3.0,6.082762530298219,8.06225774829855,9.055385138137416,6.0,20.024984394500787,14.0,11.5,10.0,7.0,2.5,11.5,5.5,0.5,4.123105625617661,4.123105625617661,4.0,8.0,13.0,11.180339887498947,{}
105,296,5.385164807134504,37.48332962798263,4.0,6.082762530298219,12.16552506059644,13.038404810405298,10.04987562112089,25.317977802344327,19.235384061671343,16.5,20.0,14.0,7.0,8.0,3.0,4.0,3.1622776601683795,3.1622776601683795,3.0,13.0,18.0,17.11724276862369,{}
106,296,6.0,26.476404589747453,2.23606797749979,6.0,7.071067811865476,9.219544457292889,6.0,20.024984394500787,14.0356688476182,11.0,11.0,6.0,2.5,11.5,5.5,1.5,3.0,4.123105625617661,4.0,8.0,14.0,10.44030650891055,{}
107,297,5.0990195135927845,39.45883931389772,3.0,5.0990195135927845,11.180339887498947,12.16552506059644,12.041594578792296,25.179356624028344,20.09975124224178,17.5,20.0,14.0,5.0,8.0,3.0,3.0,4.0,3.1622776601683795,3.0,13.0,18.0,17.11724276862369,{}
108,297,5.0,25.317977802344327,3.0,5.0,8.06225774829855,9.055385138137416,6.082762530298219,19.026297590440446,14.0356688476182,11.5,11.0,7.0,3.0,10.0,5.0,1.0,4.0,4.123105625617661,4.0,8.0,12.0,9.219544457292889,{}
109,298,3.1622776601683795,39.45883931389772,3.1622776601683795,5.0990195135927845,13.341664064126334,13.152946437965904,12.041594578792296,23.345235059857504,18.24828759089466,16.5,21.0,15.0,6.0,5.0,0.0,5.0,4.0,4.0,3.5,14.0,18.0,16.278820596099706,{}
110,298,6.0,26.30589287593181,2.0,5.0,8.06225774829855,8.246211251235321,6.0,19.0,14.0,11.0,11.0,7.0,3.0,10.0,5.0,1.0,3.1622776601683795,3.0,3.5,7.0,12.0,10.198039027185567,{}
111,299,2.23606797749979,39.45883931389772,3.1622776601683795,5.0990195135927845,12.16552506059644,12.16552506059644,12.041594578792296,22.36067977499789,17.26267650163207,16.0,20.0,14.0,5.0,5.0,1.0,4.0,4.123105625617661,3.1622776601683795,3.0,14.0,18.0,17.11724276862369,{}
112,299,4.123105625617661,30.14962686336267,3.1622776601683795,5.0,9.055385138137416,10.04987562112089,9.0,21.095023109728988,16.1245154965971,14.0,13.0,10.0,2.5,9.5,4.5,0.5,3.0,4.0,3.5,7.0,11.0,8.246211251235321,{}
113,300,2.23606797749979,40.44749683231337,3.1622776601683795,5.0990195135927845,13.152946437965904,13.038404810405298,12.041594578792296,22.36067977499789,17.26267650163207,16.0,20.0,14.0,5.0,5.0,0.0,3.0,3.0,3.1622776601683795,3.0,13.0,18.0,15.132745950421556,{}
114,301,3.605551275463989,40.44749683231337,3.0,5.0990195135927845,13.152946437965904,14.0356688476182,11.04536101718726,22.36067977499789,17.26267650163207,15.5,20.0,14.0,6.0,5.0,0.0,4.0,3.1622776601683795,3.0,3.0,14.0,18.0,15.132745950421556,{}
115,301,2.23606797749979,27.073972741361768,3.0,5.0,8.06225774829855,9.055385138137416,9.0,19.026297590440446,14.0356688476182,13.0,12.0,10.0,2.0,8.0,2.0,0.0,4.123105625617661,4.0,3.5,8.0,11.0,8.06225774829855,{}
116,302,4.123105625617661,41.43669871020132,3.1622776601683795,5.0990195135927845,13.341664064126334,14.142135623730953,12.0,24.186773244895647,19.1049731745428,17.0,21.0,15.0,6.0,6.0,2.0,5.0,3.1622776601683795,3.1622776601683795,3.0,13.0,17.0,16.278820596099706,{}
117,302,5.0,27.29468812791236,2.23606797749979,5.0,7.071067811865476,9.055385138137416,9.055385138137416,21.0,16.0,13.5,13.0,9.0,2.0,10.0,5.0,0.0,4.0,5.0,4.5,8.0,11.0,9.055385138137416,{}
118,303,5.0990195135927845,40.44749683231337,3.0,4.123105625617661,13.341664064126334,13.152946437965904,12.041594578792296,24.186773244895647,20.09975124224178,17.5,21.0,15.0,6.0,6.0,2.0,5.0,3.1622776601683795,3.1622776601683795,3.0,13.0,17.0,15.132745950421556,{}
119,303,5.0,26.30589287593181,2.0,6.0,8.06225774829855,9.055385138137416,9.055385138137416,22.02271554554524,16.0312195418814,13.5,13.0,9.0,2.0,11.0,5.0,1.0,3.0,4.0,4.0,8.0,11.0,10.198039027185567,{}
120,304,5.0990195135927845,40.44749683231337,4.0,6.082762530298219,12.16552506059644,14.142135623730953,10.198039027185567,25.317977802344327,19.235384061671343,16.5,21.0,15.0,8.0,7.0,1.0,5.0,4.0,4.123105625617661,3.5,13.0,17.0,17.11724276862369,{}
121,304,5.0,29.154759474226505,3.0,6.082762530298219,9.055385138137416,9.055385138137416,9.055385138137416,23.0,17.029386365926403,14.5,13.0,10.0,2.5,11.5,5.5,0.5,4.0,4.0,4.0,10.0,13.0,11.04536101718726,{}
122,305,3.1622776601683795,40.311288741492746,3.0,3.1622776601683795,13.152946437965904,14.142135623730953,11.04536101718726,20.223748416156685,17.11724276862369,15.5,19.0,14.0,5.5,3.5,0.5,4.5,3.0,3.0,3.0,13.0,17.0,16.0312195418814,{}
123,305,4.123105625617661,28.16025568065745,2.0,6.082762530298219,8.06225774829855,9.055385138137416,9.055385138137416,21.02379604162864,15.0,13.0,12.0,9.0,1.5,10.5,4.5,0.5,3.0,4.0,4.0,9.0,12.0,11.04536101718726,{}
124,306,4.123105625617661,40.311288741492746,2.0,5.0990195135927845,13.152946437965904,14.142135623730953,12.041594578792296,23.194827009486403,18.110770276274835,16.0,20.0,15.0,5.5,5.5,0.5,4.5,3.0,4.0,3.5,13.0,18.0,16.1245154965971,{}
125,306,6.0,28.442925306655784,2.0,6.082762530298219,9.055385138137416,9.055385138137416,8.0,22.02271554554524,16.0,13.0,14.0,9.0,3.5,10.5,4.5,1.5,3.0,4.123105625617661,4.0,7.0,12.0,10.198039027185567,{}
126,307,4.123105625617661,41.43669871020132,4.0,5.0990195135927845,13.152946437965904,14.0356688476182,10.04987562112089,23.194827009486403,18.110770276274835,16.0,20.0,14.0,7.0,6.0,1.0,5.0,3.1622776601683795,4.0,3.5,13.0,18.0,16.1245154965971,{}
127,308,4.123105625617661,39.45883931389772,2.0,4.47213595499958,13.152946437965904,13.152946437965904,12.041594578792296,22.36067977499789,18.110770276274835,16.0,20.0,14.0,5.0,5.0,1.0,5.0,2.0,3.1622776601683795,3.0,12.0,17.0,16.1245154965971,{}
128,309,4.123105625617661,40.311288741492746,3.1622776601683795,5.0990195135927845,13.152946437965904,13.038404810405298,10.04987562112089,22.36067977499789,17.26267650163207,15.0,19.0,14.0,6.5,5.5,0.5,4.5,3.0,2.23606797749979,2.5,13.0,17.0,17.11724276862369,{}
129,310,3.0,38.3275357934736,4.123105625617661,5.0990195135927845,13.152946437965904,13.038404810405298,10.04987562112089,22.20360331117452,17.11724276862369,15.5,19.0,14.0,6.5,5.5,0.5,4.5,3.1622776601683795,3.1622776601683795,3.5,13.0,17.0,17.11724276862369,{}
130,311,1.0,37.48332962798263,3.1622776601683795,6.082762530298219,11.180339887498947,12.16552506059644,11.04536101718726,20.39607805437113,14.317821063276352,14.0,19.0,13.0,5.0,4.0,1.0,4.0,3.0,3.1622776601683795,3.5,13.0,17.0,16.0312195418814,{}
131,312,1.0,38.63935817272331,2.0,5.0990195135927845,12.16552506059644,13.341664064126334,12.041594578792296,19.235384061671343,14.142135623730953,14.0,19.0,12.0,3.5,3.5,0.5,2.5,4.123105625617661,3.0,3.0,13.0,17.0,17.029386365926403,{}
132,313,1.4142135623730951,38.47076812334269,3.0,5.0990195135927845,12.16552506059644,13.152946437965904,11.0,18.110770276274835,13.038404810405298,13.5,18.0,12.0,4.0,3.0,2.0,3.0,3.1622776601683795,3.1622776601683795,3.5,13.0,17.0,15.033296378372908,{}
133,314,0.0,36.345563690772494,2.0,4.123105625617661,11.180339887498947,11.180339887498947,13.038404810405298,19.1049731745428,15.033296378372908,15.0,18.0,13.0,2.5,3.5,0.5,1.5,3.1622776601683795,3.1622776601683795,3.5,13.0,17.0,17.029386365926403,{}
134,315,1.0,39.45883931389772,3.0,5.0,13.152946437965904,12.041594578792296,12.041594578792296,20.09975124224178,15.132745950421556,15.0,20.0,14.0,5.0,3.0,1.0,3.0,3.0,3.0,3.5,13.0,16.0,16.0312195418814,{}
135,316,3.1622776601683795,39.319206502675,4.123105625617661,5.0,13.038404810405298,12.041594578792296,11.0,23.08679276123039,18.110770276274835,16.5,19.0,14.0,5.5,6.5,1.5,2.5,3.0,3.1622776601683795,3.0,14.0,17.0,16.0312195418814,{}
136,317,2.0,39.319206502675,2.0,4.123105625617661,13.152946437965904,13.152946437965904,12.041594578792296,20.09975124224178,16.0312195418814,15.0,19.0,14.0,4.5,3.5,0.5,3.5,4.123105625617661,3.0,3.0,13.0,16.0,16.0312195418814,{}
137,318,1.4142135623730951,38.47076812334269,3.0,5.0990195135927845,12.16552506059644,13.038404810405298,12.041594578792296,21.213203435596427,16.1245154965971,15.5,20.0,14.0,5.0,4.0,1.0,3.0,3.1622776601683795,3.0,3.0,14.0,17.0,16.0312195418814,{}
138,319,2.23606797749979,39.319206502675,3.0,5.0990195135927845,13.152946437965904,13.152946437965904,12.041594578792296,22.20360331117452,17.11724276862369,16.0,19.0,14.0,4.5,5.5,0.5,3.5,3.0,4.123105625617661,3.5,13.0,16.0,16.0312195418814,{}
139,320,2.23606797749979,39.45883931389772,3.0,5.0990195135927845,12.16552506059644,13.038404810405298,12.041594578792296,22.20360331117452,17.11724276862369,16.0,20.0,14.0,5.0,5.0,0.0,4.0,3.0,3.0,3.0,14.0,17.0,16.0312195418814,{}
140,321,4.123105625617661,39.45883931389772,3.0,5.0990195135927845,12.16552506059644,13.038404810405298,12.041594578792296,24.186773244895647,19.1049731745428,17.0,21.0,15.0,6.0,6.0,1.0,4.0,4.0,3.0,3.5,14.0,17.0,16.0312195418814,{}
141,322,1.0,39.11521443121589,4.0,6.0,11.04536101718726,12.041594578792296,11.0,22.0,16.0,15.5,16.0,13.0,3.5,7.5,2.5,0.5,3.0,4.0,4.0,14.0,17.0,15.033296378372908,{}
142,323,1.4142135623730951,38.3275357934736,4.0,5.0,12.041594578792296,12.16552506059644,11.0,21.02379604162864,16.0312195418814,15.5,18.0,13.0,4.5,5.5,0.5,1.5,3.0,3.0,3.5,14.0,17.0,17.029386365926403,{}
143,324,1.4142135623730951,37.48332962798263,3.0,5.0990195135927845,12.16552506059644,11.180339887498947,12.041594578792296,19.235384061671343,14.142135623730953,14.5,19.0,13.0,4.0,3.0,2.0,3.0,4.0,3.1622776601683795,3.5,13.0,17.0,16.0312195418814,{}
144,325,1.0,38.47076812334269,3.0,5.0990195135927845,13.152946437965904,13.152946437965904,12.041594578792296,20.223748416156685,15.132745950421556,15.0,20.0,14.0,5.0,3.0,2.0,3.0,4.0,4.123105625617661,4.0,14.0,16.0,15.0,{}
145,326,1.0,39.6232255123179,2.0,5.0990195135927845,11.180339887498947,11.04536101718726,12.041594578792296,19.235384061671343,14.142135623730953,14.0,20.0,13.0,4.5,2.5,1.5,3.5,5.0,5.0,4.5,13.0,17.0,15.033296378372908,{}
146,327,1.0,40.44749683231337,2.23606797749979,5.0990195135927845,12.16552506059644,12.041594578792296,12.0,20.09975124224178,15.033296378372908,14.5,20.0,14.0,5.0,3.0,1.0,4.0,3.1622776601683795,3.1622776601683795,3.5,13.0,17.0,15.033296378372908,{}
147,328,1.4142135623730951,37.65634076752546,2.0,4.123105625617661,12.16552506059644,12.36931687685298,13.038404810405298,20.223748416156685,16.1245154965971,15.5,22.0,15.0,5.5,1.5,1.5,4.5,4.123105625617661,4.0,4.0,13.0,17.0,15.033296378372908,{}
148,329,3.0,38.47076812334269,2.23606797749979,4.123105625617661,12.16552506059644,12.16552506059644,12.041594578792296,21.213203435596427,17.11724276862369,15.5,20.0,14.0,5.0,4.0,0.0,4.0,3.0,3.0,3.0,13.0,17.0,15.033296378372908,{}
149,330,4.123105625617661,38.2099463490856,3.0,6.0,12.041594578792296,12.041594578792296,12.0,25.019992006393608,19.026297590440446,17.0,18.0,14.0,4.0,9.0,4.0,2.0,4.0,4.123105625617661,4.0,14.0,18.0,17.11724276862369,{}
150,331,5.0990195135927845,39.20459156782532,3.0,5.0,12.16552506059644,13.152946437965904,12.041594578792296,25.079872407968907,20.09975124224178,17.5,19.0,15.0,5.0,8.0,3.0,3.0,4.0,4.123105625617661,4.0,13.0,17.0,17.029386365926403,{}
151,332,5.0990195135927845,37.48332962798263,2.0,5.0990195135927845,12.16552506059644,12.16552506059644,13.038404810405298,25.179356624028344,20.09975124224178,17.5,21.0,15.0,5.0,7.0,2.0,4.0,4.123105625617661,4.123105625617661,4.0,14.0,17.0,16.0312195418814,{}
152,333,3.0,40.311288741492746,4.123105625617661,5.0990195135927845,12.041594578792296,12.16552506059644,11.0,23.08679276123039,18.027756377319943,16.5,18.0,13.0,4.5,7.5,3.5,1.5,6.0,6.082762530298219,5.5,12.0,16.0,15.033296378372908,{}
153,334,3.0,41.10960958218893,5.0990195135927845,5.0,12.041594578792296,12.041594578792296,10.0,23.021728866442675,18.027756377319943,16.5,16.0,13.0,4.5,8.5,3.5,0.5,5.0990195135927845,5.0990195135927845,5.0,13.0,16.0,16.0,{}
154,335,2.0,38.11823710509184,4.0,5.0990195135927845,10.198039027185567,11.04536101718726,11.0,22.02271554554524,17.0,16.0,17.0,14.0,4.5,6.5,1.5,1.5,4.0,4.123105625617661,4.5,14.0,17.0,16.0312195418814,{}
155,336,3.0,42.2965719651132,4.123105625617661,6.082762530298219,12.16552506059644,13.038404810405298,12.0,25.079872407968907,19.026297590440446,17.5,18.0,13.0,3.5,9.5,4.5,1.5,4.123105625617661,4.123105625617661,4.0,13.0,16.0,17.029386365926403,{}
156,337,3.1622776601683795,42.1070065428546,3.0,4.0,12.16552506059644,12.041594578792296,12.0,22.02271554554524,18.027756377319943,16.5,18.0,15.0,4.5,5.5,2.5,2.5,5.0,4.0,4.5,13.0,15.0,17.0,{}
157,338,2.0,39.11521443121589,3.0,4.0,11.04536101718726,12.16552506059644,12.041594578792296,21.02379604162864,17.029386365926403,16.0,17.0,14.0,3.5,5.5,1.5,0.5,3.0,4.0,4.0,14.0,16.0,16.0312195418814,{}
158,339,3.0,40.11234224026316,4.0,5.0990195135927845,11.04536101718726,11.04536101718726,11.0,23.021728866442675,18.0,16.5,17.0,14.0,4.5,7.5,2.5,0.5,4.0,3.0,3.5,14.0,16.0,16.0,{}
159,340,1.4142135623730951,38.2099463490856,3.0,4.123105625617661,11.180339887498947,12.16552506059644,13.0,21.095023109728988,17.029386365926403,16.5,20.0,16.0,5.0,3.0,1.0,4.0,3.0,3.0,3.0,15.0,16.0,16.0,{}
160,341,0.0,37.21558813185679,3.0,5.0990195135927845,11.04536101718726,11.180339887498947,13.0,21.02379604162864,16.0,16.0,19.0,15.0,4.0,4.0,0.0,2.0,4.0,3.0,3.5,15.0,16.0,15.0,{}
161,342,1.0,38.3275357934736,4.0,6.0,11.04536101718726,12.16552506059644,12.041594578792296,22.09072203437452,16.1245154965971,16.0,20.0,15.0,5.5,4.5,1.5,2.5,4.0,3.0,3.5,15.0,16.0,16.0,{}
162,343,0.0,37.21558813185679,3.0,6.082762530298219,11.04536101718726,11.180339887498947,12.041594578792296,21.095023109728988,15.033296378372908,15.0,19.0,15.0,5.0,4.0,2.0,3.0,4.123105625617661,3.1622776601683795,3.0,15.0,16.0,16.0,{}
163,344,1.0,36.22154055254967,4.0,6.0,11.04536101718726,11.180339887498947,12.0,22.02271554554524,16.0312195418814,16.0,19.0,15.0,5.0,5.0,1.0,2.0,4.0,3.0,3.5,14.0,15.0,15.033296378372908,{}
164,345,0.0,36.345563690772494,3.0,6.082762530298219,11.04536101718726,11.04536101718726,13.038404810405298,22.09072203437452,16.0312195418814,16.0,20.0,15.0,4.5,4.5,1.5,2.5,3.0,4.0,4.0,15.0,16.0,16.0,{}
165,346,0.0,36.22154055254967,4.123105625617661,6.082762530298219,11.04536101718726,11.04536101718726,12.0,22.09072203437452,16.0312195418814,16.0,18.0,14.0,4.0,6.0,0.0,1.0,4.123105625617661,4.0,4.5,14.0,16.0,16.0312195418814,{}
166,347,0.0,38.05259518088089,4.123105625617661,6.0,11.04536101718726,12.041594578792296,12.041594578792296,22.0,16.0,16.0,16.0,14.0,3.0,7.0,1.0,0.0,3.0,3.1622776601683795,3.0,15.0,17.0,16.0312195418814,{}
167,348,1.0,38.2099463490856,3.1622776601683795,6.0,11.04536101718726,12.16552506059644,12.041594578792296,22.0,16.0,15.5,17.0,13.0,3.0,7.0,1.0,1.0,3.0,4.123105625617661,4.0,14.0,17.0,17.029386365926403,{}
168,349,1.0,38.05259518088089,4.0,7.0,11.0,12.041594578792296,11.0,23.0,16.0,15.5,15.0,13.0,3.0,9.0,2.0,1.0,4.0,4.123105625617661,3.5,13.0,16.0,16.0312195418814,{}
169,350,1.0,38.01315561749642,4.0,7.071067811865476,11.04536101718726,11.04536101718726,12.0,24.020824298928627,17.0,16.5,15.0,14.0,2.5,9.5,2.5,0.5,3.0,3.1622776601683795,3.5,14.0,16.0,18.0,{}
170,351,1.4142135623730951,39.11521443121589,3.0,6.0,12.041594578792296,12.16552506059644,12.0,22.02271554554524,16.0312195418814,15.5,15.0,12.0,1.5,8.5,2.5,0.5,4.0,3.1622776601683795,3.5,13.0,16.0,17.029386365926403,{}
171,352,1.0,37.12142238654117,3.0,5.0,11.04536101718726,12.16552506059644,13.0,21.02379604162864,16.0312195418814,16.0,16.0,13.0,1.5,6.5,1.5,0.5,3.0,3.0,3.0,13.0,15.0,15.033296378372908,{}
172,353,0.0,35.22782990761707,4.123105625617661,5.0990195135927845,11.180339887498947,11.180339887498947,12.041594578792296,21.213203435596427,16.1245154965971,16.0,18.0,14.0,4.0,5.0,0.0,2.0,4.0,3.0,3.5,14.0,17.0,17.029386365926403,{}
173,354,0.0,40.19950248448356,4.0,6.0,12.041594578792296,12.16552506059644,12.041594578792296,22.02271554554524,16.0312195418814,16.0,17.0,13.0,3.0,7.0,1.0,0.0,5.0990195135927845,5.0990195135927845,5.0,14.0,16.0,16.0312195418814,{}
174,355,1.0,40.311288741492746,4.0,5.0,13.038404810405298,12.16552506059644,12.041594578792296,21.095023109728988,16.1245154965971,16.0,19.0,14.0,4.5,4.5,0.5,1.5,5.0,5.0990195135927845,5.0,13.0,17.0,16.0312195418814,{}
175,356,0.0,40.19950248448356,3.0,5.0990195135927845,12.041594578792296,13.152946437965904,13.0,21.02379604162864,16.0,16.0,18.0,14.0,3.0,5.0,0.0,1.0,5.0,6.082762530298219,6.0,12.0,15.0,17.029386365926403,{}
176,357,0.0,38.3275357934736,3.1622776601683795,6.082762530298219,12.041594578792296,13.152946437965904,12.0,21.095023109728988,15.033296378372908,15.0,18.0,13.0,3.5,5.5,0.5,1.5,4.123105625617661,4.123105625617661,4.0,13.0,16.0,16.0312195418814,{}
177,358,1.0,39.20459156782532,4.123105625617661,4.123105625617661,11.180339887498947,11.04536101718726,12.0,21.095023109728988,17.029386365926403,16.5,18.0,14.0,4.0,5.0,1.0,2.0,4.123105625617661,4.123105625617661,4.5,12.0,16.0,16.0312195418814,{}
178,359,1.0,39.319206502675,3.0,5.0,12.16552506059644,12.16552506059644,12.16552506059644,20.223748416156685,15.297058540778355,15.0,19.0,14.0,4.5,3.5,1.5,3.5,4.123105625617661,4.0,4.5,13.0,17.0,15.033296378372908,{}
179,360,1.4142135623730951,39.45883931389772,4.0,6.0,12.16552506059644,12.041594578792296,12.041594578792296,21.095023109728988,15.132745950421556,15.5,20.0,14.0,5.0,4.0,1.0,3.0,4.123105625617661,4.123105625617661,4.5,13.0,16.0,17.0,{}
180,361,1.0,38.47076812334269,3.0,4.123105625617661,12.16552506059644,12.16552506059644,13.038404810405298,20.223748416156685,16.1245154965971,16.0,20.0,14.0,4.0,3.0,1.0,3.0,4.0,4.0,4.0,12.0,16.0,15.033296378372908,{}
181,362,1.0,37.48332962798263,4.0,5.0990195135927845,11.04536101718726,12.041594578792296,12.0,21.095023109728988,16.0312195418814,16.0,20.0,14.0,5.0,4.0,1.0,2.0,4.123105625617661,4.123105625617661,4.0,13.0,16.0,15.033296378372908,{}
182,363,1.0,39.20459156782532,3.0,5.0,11.04536101718726,12.16552506059644,13.038404810405298,21.095023109728988,16.1245154965971,16.0,18.0,14.0,3.0,5.0,0.0,1.0,4.0,4.123105625617661,4.0,13.0,17.0,16.0312195418814,{}
183,364,0.0,38.2099463490856,5.0,6.082762530298219,11.180339887498947,11.180339887498947,11.04536101718726,22.09072203437452,16.0312195418814,16.0,18.0,14.0,5.0,6.0,0.0,1.0,4.0,4.123105625617661,4.0,13.0,16.0,17.029386365926403,{}
184,365,1.4142135623730951,38.63935817272331,2.23606797749979,5.0990195135927845,12.16552506059644,13.152946437965904,12.0,20.223748416156685,15.132745950421556,14.5,19.0,12.0,3.5,4.5,0.5,2.5,4.0,4.0,3.5,14.0,17.0,16.0312195418814,{}
185,366,0.0,40.44749683231337,3.1622776601683795,5.0990195135927845,12.16552506059644,12.16552506059644,12.041594578792296,20.223748416156685,15.132745950421556,15.0,19.0,13.0,4.0,4.0,1.0,3.0,5.0990195135927845,5.0990195135927845,4.5,13.0,17.0,17.029386365926403,{}
186,367,1.0,39.45883931389772,3.0,5.0990195135927845,13.152946437965904,14.142135623730953,12.041594578792296,20.223748416156685,15.132745950421556,15.0,20.0,14.0,5.0,3.0,1.0,4.0,3.0,4.0,3.5,12.0,16.0,17.029386365926403,{}
187,368,1.0,38.3275357934736,3.0,6.082762530298219,12.16552506059644,13.152946437965904,12.0,21.095023109728988,15.033296378372908,15.0,17.0,12.0,2.5,6.5,1.5,1.5,4.0,4.123105625617661,4.0,13.0,17.0,16.0312195418814,{}
188,369,1.0,41.43669871020132,3.0,6.082762530298219,13.152946437965904,13.152946437965904,11.04536101718726,20.223748416156685,14.142135623730953,14.0,19.0,13.0,5.0,4.0,1.0,3.0,5.0,5.0,5.0,13.0,16.0,16.1245154965971,{}
189,370,1.0,40.44749683231337,2.23606797749979,6.082762530298219,13.152946437965904,14.142135623730953,13.038404810405298,22.20360331117452,16.1245154965971,15.5,20.0,14.0,4.0,5.0,1.0,3.0,4.0,4.0,4.0,14.0,17.0,16.1245154965971,{}
190,371,0.0,40.19950248448356,3.1622776601683795,6.082762530298219,13.038404810405298,13.341664064126334,12.0,21.095023109728988,15.033296378372908,15.0,16.0,12.0,2.0,7.0,1.0,0.0,4.123105625617661,4.123105625617661,4.0,13.0,18.0,16.1245154965971,{}
191,372,0.0,38.11823710509184,5.0,6.0,11.04536101718726,12.16552506059644,10.04987562112089,21.02379604162864,15.033296378372908,15.0,15.0,12.0,3.5,7.5,2.5,0.5,4.0,4.0,4.0,14.0,18.0,17.11724276862369,{}
192,373,0.0,42.190046219457976,3.0,6.082762530298219,13.152946437965904,13.152946437965904,11.0,20.024984394500787,14.0,14.0,15.0,11.0,2.0,7.0,2.0,0.0,4.0,4.123105625617661,4.0,13.0,18.0,16.0312195418814,{}
193,374,1.0,38.47076812334269,3.0,5.0990195135927845,12.041594578792296,12.16552506059644,12.0,20.09975124224178,15.033296378372908,15.0,17.0,11.0,2.0,6.0,1.0,0.0,4.123105625617661,4.0,4.0,14.0,18.0,16.1245154965971,{}
194,375,1.0,38.47076812334269,3.0,5.0990195135927845,12.16552506059644,12.16552506059644,11.04536101718726,19.235384061671343,14.142135623730953,14.0,18.0,12.0,4.0,4.0,1.0,3.0,4.123105625617661,4.0,4.0,14.0,17.0,16.0312195418814,{}
195,376,1.0,38.63935817272331,2.0,5.0990195135927845,12.16552506059644,12.16552506059644,12.041594578792296,19.235384061671343,14.142135623730953,14.0,20.0,13.0,4.5,2.5,2.5,3.5,4.123105625617661,4.123105625617661,3.5,13.0,17.0,16.0312195418814,{}
196,377,0.0,38.47076812334269,3.0,5.385164807134504,12.16552506059644,13.152946437965904,11.180339887498947,19.4164878389476,14.142135623730953,14.0,19.0,13.0,5.0,3.0,2.0,4.0,5.0,4.0,4.5,13.0,17.0,16.0312195418814,{}
197,378,1.0,37.48332962798263,3.1622776601683795,4.0,11.180339887498947,12.16552506059644,12.0,19.1049731745428,15.132745950421556,15.0,19.0,13.0,4.0,3.0,1.0,3.0,3.0,4.0,4.0,12.0,16.0,16.0312195418814,{}
198,379,1.4142135623730951,38.47076812334269,3.0,4.123105625617661,12.16552506059644,13.152946437965904,11.04536101718726,17.26267650163207,13.152946437965904,13.5,19.0,13.0,5.0,1.0,2.0,4.0,5.0990195135927845,4.123105625617661,4.0,13.0,17.0,15.033296378372908,{}
199,380,1.0,38.63935817272331,3.0,4.123105625617661,13.152946437965904,13.152946437965904,12.041594578792296,19.235384061671343,15.132745950421556,15.0,21.0,14.0,5.5,1.5,2.5,4.5,4.123105625617661,4.123105625617661,4.5,13.0,17.0,15.033296378372908,{}
200,381,0.0,37.48332962798263,3.1622776601683795,6.082762530298219,11.180339887498947,12.16552506059644,11.04536101718726,20.223748416156685,14.142135623730953,14.0,20.0,14.0,6.0,3.0,2.0,4.0,5.0,4.123105625617661,4.0,13.0,18.0,15.0,{}
201,382,1.0,37.48332962798263,3.1622776601683795,4.123105625617661,11.04536101718726,12.16552506059644,12.0,18.110770276274835,14.0356688476182,14.5,20.0,14.0,5.0,1.0,2.0,3.0,4.123105625617661,4.123105625617661,4.5,13.0,18.0,15.132745950421556,{}
202,383,1.0,37.48332962798263,3.0,4.123105625617661,11.180339887498947,11.180339887498947,12.0,19.1049731745428,15.033296378372908,15.0,20.0,14.0,5.0,2.0,1.0,3.0,4.123105625617661,4.123105625617661,4.0,12.0,17.0,15.132745950421556,{}
203,384,2.0,36.345563690772494,3.0,4.123105625617661,10.198039027185567,11.180339887498947,12.0,21.02379604162864,17.0,16.0,18.0,13.0,3.5,5.5,1.5,1.5,4.0,4.123105625617661,4.0,13.0,17.0,15.033296378372908,{}
204,385,1.0,35.22782990761707,3.0,4.123105625617661,10.04987562112089,10.198039027185567,12.041594578792296,20.09975124224178,16.0312195418814,15.5,17.0,13.0,3.0,5.0,1.0,1.0,4.123105625617661,5.0990195135927845,4.5,13.0,17.0,17.029386365926403,{}
205,386,1.0,37.33630940518894,3.1622776601683795,4.123105625617661,11.180339887498947,11.180339887498947,13.038404810405298,21.02379604162864,17.0,16.5,18.0,13.0,2.5,5.5,1.5,1.5,4.0,4.123105625617661,4.0,13.0,18.0,15.132745950421556,{}
206,387,0.0,36.345563690772494,3.1622776601683795,4.123105625617661,10.198039027185567,10.198039027185567,12.0,19.1049731745428,15.033296378372908,15.0,18.0,13.0,3.5,3.5,0.5,1.5,4.123105625617661,3.1622776601683795,3.5,12.0,17.0,16.0312195418814,{}
207,388,0.0,37.65634076752546,2.23606797749979,4.123105625617661,12.16552506059644,12.16552506059644,12.041594578792296,18.24828759089466,14.142135623730953,14.0,20.0,13.0,4.5,1.5,1.5,3.5,4.123105625617661,5.0990195135927845,4.5,12.0,17.0,15.033296378372908,{}
208,389,1.0,37.65634076752546,3.0,5.0990195135927845,12.36931687685298,12.16552506059644,11.04536101718726,19.235384061671343,14.142135623730953,14.0,20.0,13.0,5.5,2.5,2.5,4.5,4.0,4.123105625617661,4.0,14.0,18.0,15.033296378372908,{}
209,390,0.0,36.6742416417845,2.23606797749979,4.47213595499958,12.16552506059644,12.16552506059644,12.041594578792296,18.43908891458577,14.142135623730953,14.0,20.0,13.0,4.5,1.5,1.5,3.5,3.1622776601683795,4.123105625617661,4.0,13.0,17.0,16.0312195418814,{}
210,391,0.0,38.63935817272331,2.23606797749979,5.0990195135927845,12.16552506059644,12.16552506059644,12.0,19.1049731745428,14.0356688476182,14.0,20.0,13.0,4.5,2.5,1.5,3.5,4.0,4.0,4.0,14.0,18.0,18.027756377319943,{}
211,392,1.0,39.45883931389772,3.1622776601683795,5.0990195135927845,13.152946437965904,12.16552506059644,11.04536101718726,20.223748416156685,15.132745950421556,14.5,20.0,14.0,6.0,3.0,2.0,5.0,5.0,5.0990195135927845,5.0,15.0,19.0,18.027756377319943,{}
212,393,1.0,38.63935817272331,4.123105625617661,5.385164807134504,12.16552506059644,12.16552506059644,10.0,20.223748416156685,15.033296378372908,14.5,20.0,13.0,6.5,3.5,1.5,3.5,5.0,5.0990195135927845,5.0,14.0,18.0,17.029386365926403,{}
213,394,1.0,36.345563690772494,3.0,6.082762530298219,11.180339887498947,12.16552506059644,11.04536101718726,21.095023109728988,15.033296378372908,14.5,19.0,14.0,5.5,4.5,0.5,3.5,5.0990195135927845,4.0,4.0,14.0,18.0,16.1245154965971,{}
214,395,1.4142135623730951,36.49657518178932,2.0,4.123105625617661,11.180339887498947,11.180339887498947,12.041594578792296,19.235384061671343,15.132745950421556,14.5,20.0,14.0,5.0,2.0,2.0,4.0,4.123105625617661,5.0990195135927845,4.5,15.0,19.0,15.132745950421556,{}
215,396,0.0,36.49657518178932,3.0,5.0990195135927845,10.198039027185567,10.44030650891055,13.0,21.02379604162864,16.0,16.0,19.0,13.0,3.0,5.0,1.0,1.0,5.0990195135927845,4.0,4.5,15.0,19.0,17.029386365926403,{}
216,397,1.0,36.49657518178932,3.1622776601683795,6.082762530298219,11.180339887498947,11.04536101718726,12.0,22.09072203437452,16.0312195418814,15.5,21.0,15.0,6.0,4.0,1.0,4.0,4.0,4.123105625617661,4.0,15.0,18.0,17.26267650163207,{}
217,398,3.0,37.48332962798263,2.0,4.123105625617661,12.16552506059644,12.16552506059644,12.041594578792296,21.095023109728988,17.029386365926403,15.5,21.0,15.0,6.0,3.0,0.0,5.0,4.0,4.123105625617661,4.0,14.0,18.0,17.029386365926403,{}
218,399,4.0,39.319206502675,2.23606797749979,4.123105625617661,13.152946437965904,13.152946437965904,12.0,22.09072203437452,18.027756377319943,16.0,20.0,15.0,5.5,4.5,0.5,5.5,4.123105625617661,4.123105625617661,3.5,14.0,17.0,17.029386365926403,{}
219,400,3.1622776601683795,38.47076812334269,4.0,6.082762530298219,12.16552506059644,12.041594578792296,10.04987562112089,23.194827009486403,17.11724276862369,15.5,20.0,14.0,7.0,6.0,0.0,4.0,7.071067811865476,6.082762530298219,6.5,14.0,17.0,17.029386365926403,{}
220,401,2.23606797749979,39.45883931389772,3.0,6.082762530298219,12.041594578792296,13.152946437965904,11.04536101718726,22.20360331117452,16.1245154965971,15.0,20.0,14.0,6.0,5.0,0.0,4.0,6.0,5.0990195135927845,5.5,14.0,18.0,18.027756377319943,{}
221,402,2.23606797749979,39.45883931389772,4.0,6.082762530298219,12.16552506059644,13.152946437965904,10.04987562112089,22.20360331117452,16.1245154965971,15.0,20.0,14.0,7.0,5.0,0.0,4.0,4.123105625617661,4.123105625617661,4.5,13.0,16.0,15.033296378372908,{}
222,403,3.1622776601683795,38.3275357934736,3.0,4.123105625617661,11.180339887498947,12.16552506059644,11.04536101718726,21.213203435596427,17.11724276862369,15.5,20.0,15.0,6.5,3.5,0.5,4.5,4.0,4.123105625617661,4.0,14.0,17.0,17.11724276862369,{}
223,404,3.1622776601683795,38.47076812334269,2.0,5.0990195135927845,12.16552506059644,12.16552506059644,12.041594578792296,22.20360331117452,17.11724276862369,15.5,20.0,14.0,5.0,5.0,0.0,4.0,5.0990195135927845,4.123105625617661,4.5,14.0,18.0,17.11724276862369,{}
224,405,2.23606797749979,38.2099463490856,3.0,4.123105625617661,12.16552506059644,12.16552506059644,11.04536101718726,20.223748416156685,16.1245154965971,15.0,17.0,13.0,4.0,5.0,1.0,2.0,5.0990195135927845,5.0990195135927845,5.5,13.0,17.0,16.0312195418814,{}
225,406,0.0,38.3275357934736,4.0,5.0990195135927845,11.04536101718726,11.180339887498947,11.04536101718726,20.09975124224178,15.033296378372908,15.0,18.0,13.0,4.5,4.5,0.5,1.5,5.0990195135927845,5.0990195135927845,5.0,13.0,17.0,16.0312195418814,{}
226,407,0.0,39.45883931389772,4.123105625617661,5.0990195135927845,13.038404810405298,12.16552506059644,11.0,20.09975124224178,15.033296378372908,15.0,19.0,13.0,5.0,4.0,1.0,2.0,8.06225774829855,7.071067811865476,7.5,14.0,18.0,15.033296378372908,{}
227,408,1.0,38.47076812334269,2.0,5.0990195135927845,12.16552506059644,12.16552506059644,12.0,19.1049731745428,14.0356688476182,14.0,20.0,14.0,5.0,2.0,2.0,4.0,8.06225774829855,8.246211251235321,8.0,12.0,17.0,16.0312195418814,{}
228,409,1.4142135623730951,39.319206502675,2.0,5.0,13.152946437965904,13.152946437965904,12.041594578792296,20.09975124224178,15.132745950421556,14.5,19.0,14.0,4.5,3.5,1.5,3.5,5.0990195135927845,5.0,5.5,14.0,17.0,18.110770276274835,{}
229,410,1.4142135623730951,40.311288741492746,2.0,4.123105625617661,12.16552506059644,12.16552506059644,12.041594578792296,19.235384061671343,15.132745950421556,14.5,19.0,14.0,4.5,2.5,1.5,3.5,7.0,7.071067811865476,7.0,14.0,18.0,15.033296378372908,{}
230,411,1.0,40.311288741492746,3.0,6.082762530298219,11.04536101718726,12.16552506059644,11.04536101718726,20.223748416156685,14.142135623730953,14.0,19.0,14.0,5.5,3.5,1.5,3.5,7.071067811865476,7.071067811865476,7.0,13.0,16.0,16.0312195418814,{}
231,412,1.4142135623730951,38.47076812334269,3.0,5.0990195135927845,12.16552506059644,12.041594578792296,12.041594578792296,21.213203435596427,16.1245154965971,15.5,19.0,13.0,4.0,5.0,0.0,3.0,6.082762530298219,6.082762530298219,5.5,14.0,18.0,18.110770276274835,{}
232,413,0.0,39.319206502675,4.123105625617661,6.082762530298219,12.16552506059644,13.152946437965904,11.04536101718726,21.213203435596427,15.132745950421556,15.0,19.0,14.0,5.5,4.5,1.5,3.5,5.0,5.0990195135927845,5.0,14.0,18.0,17.11724276862369,{}
233,414,0.0,39.319206502675,5.0990195135927845,5.0990195135927845,12.041594578792296,13.152946437965904,9.055385138137416,19.235384061671343,14.142135623730953,14.0,19.0,14.0,7.5,2.5,1.5,3.5,6.082762530298219,6.082762530298219,6.0,14.0,18.0,15.132745950421556,{}
234,415,1.0,39.319206502675,4.0,5.0990195135927845,12.16552506059644,13.152946437965904,11.04536101718726,20.223748416156685,15.132745950421556,15.0,19.0,14.0,5.5,3.5,1.5,3.5,5.0990195135927845,5.0990195135927845,5.0,14.0,17.0,16.0312195418814,{}
235,416,1.4142135623730951,40.44749683231337,3.0,6.082762530298219,11.180339887498947,12.041594578792296,10.198039027185567,20.39607805437113,14.317821063276352,13.5,19.0,13.0,6.0,4.0,1.0,4.0,8.0,8.06225774829855,7.5,14.0,17.0,16.0312195418814,{}
236,417,3.1622776601683795,40.311288741492746,3.0,5.0990195135927845,12.16552506059644,12.16552506059644,10.04987562112089,21.213203435596427,16.1245154965971,14.5,19.0,14.0,6.5,4.5,0.5,4.5,6.082762530298219,7.071067811865476,7.0,13.0,18.0,16.0312195418814,{}
237,418,4.0,38.3275357934736,4.123105625617661,6.082762530298219,11.180339887498947,12.16552506059644,9.055385138137416,23.194827009486403,17.11724276862369,15.0,19.0,14.0,7.5,6.5,0.5,4.5,4.123105625617661,5.0990195135927845,5.0,14.0,18.0,16.0312195418814,{}
238,419,3.1622776601683795,38.47076812334269,5.0990195135927845,6.0,13.152946437965904,13.152946437965904,9.055385138137416,23.194827009486403,17.26267650163207,15.5,20.0,14.0,8.0,6.0,0.0,4.0,5.0990195135927845,4.123105625617661,4.5,14.0,17.0,17.029386365926403,{}
239,420,4.123105625617661,40.44749683231337,4.0,6.082762530298219,12.16552506059644,13.038404810405298,9.055385138137416,23.194827009486403,17.11724276862369,15.0,20.0,14.0,8.0,6.0,1.0,5.0,4.0,4.123105625617661,4.0,13.0,17.0,17.11724276862369,{}
240,421,3.1622776601683795,38.3275357934736,4.0,5.0990195135927845,12.16552506059644,13.152946437965904,9.219544457292889,21.37755832643195,16.278820596099706,14.5,19.0,14.0,7.5,4.5,0.5,4.5,5.0990195135927845,4.123105625617661,4.0,14.0,17.0,15.033296378372908,{}
241,422,1.0,37.48332962798263,3.0,6.082762530298219,12.16552506059644,12.16552506059644,10.198039027185567,19.4164878389476,13.341664064126334,13.0,19.0,13.0,6.0,3.0,2.0,4.0,5.0,4.123105625617661,4.0,14.0,17.0,16.1245154965971,{}
242,423,1.0,39.6232255123179,4.123105625617661,5.0990195135927845,11.180339887498947,12.16552506059644,10.04987562112089,18.24828759089466,13.152946437965904,13.5,19.0,12.0,5.5,2.5,1.5,3.5,5.0,4.123105625617661,4.0,14.0,18.0,16.0312195418814,{}
243,424,1.4142135623730951,40.44749683231337,4.123105625617661,5.0990195135927845,11.180339887498947,11.180339887498947,9.055385138137416,17.46424919657298,12.36931687685298,12.5,18.0,12.0,6.0,2.0,2.0,3.0,6.082762530298219,5.0990195135927845,5.5,13.0,17.0,17.029386365926403,{}
244,425,1.4142135623730951,37.48332962798263,4.0,4.123105625617661,11.180339887498947,12.16552506059644,10.04987562112089,17.26267650163207,13.152946437965904,13.5,18.0,12.0,5.0,2.0,2.0,3.0,4.0,4.123105625617661,4.5,13.0,17.0,17.029386365926403,{}
245,426,2.23606797749979,41.593268686170845,3.0,4.123105625617661,13.152946437965904,13.152946437965904,11.04536101718726,16.278820596099706,12.16552506059644,13.0,18.0,11.0,3.5,1.5,1.5,2.5,5.0,4.123105625617661,4.5,14.0,18.0,15.033296378372908,{}
246,427,1.0,38.47076812334269,3.0,4.123105625617661,12.16552506059644,11.04536101718726,10.198039027185567,17.46424919657298,13.341664064126334,13.0,18.0,12.0,5.0,2.0,2.0,3.0,4.123105625617661,5.0990195135927845,5.0,13.0,17.0,18.027756377319943,{}
247,428,1.0,40.60788100849391,4.123105625617661,5.0990195135927845,11.180339887498947,12.36931687685298,9.055385138137416,17.26267650163207,12.16552506059644,12.5,18.0,11.0,5.5,2.5,1.5,2.5,5.0990195135927845,5.0990195135927845,5.0,14.0,17.0,16.0312195418814,{}
248,429,1.4142135623730951,39.45883931389772,4.0,5.0,12.16552506059644,13.152946437965904,9.055385138137416,17.11724276862369,12.16552506059644,12.5,17.0,11.0,5.0,3.0,1.0,2.0,5.0,4.123105625617661,4.5,13.0,17.0,16.0312195418814,{}
249,430,1.0,40.19950248448356,4.0,5.0990195135927845,12.16552506059644,12.16552506059644,12.041594578792296,20.09975124224178,15.033296378372908,15.5,18.0,14.0,4.0,4.0,0.0,2.0,4.0,4.0,4.0,14.0,17.0,15.033296378372908,{}
250,431,1.0,37.48332962798263,3.0,5.0,12.36931687685298,12.16552506059644,12.16552506059644,20.223748416156685,15.297058540778355,15.0,20.0,14.0,5.0,3.0,1.0,4.0,4.0,3.0,3.0,14.0,16.0,16.0,{}
251,432,0.0,35.22782990761707,3.0,4.123105625617661,11.180339887498947,10.198039027185567,13.038404810405298,20.09975124224178,16.0312195418814,16.0,18.0,14.0,3.0,4.0,1.0,2.0,3.1622776601683795,3.0,3.0,14.0,16.0,16.0,{}
252,433,1.0,36.87817782917155,3.0,4.123105625617661,11.180339887498947,11.40175425099138,12.041594578792296,19.235384061671343,15.132745950421556,15.0,21.0,13.0,5.0,2.0,2.0,4.0,3.1622776601683795,2.0,2.5,13.0,16.0,15.033296378372908,{}
253,434,1.0,38.63935817272331,3.0,5.0990195135927845,13.152946437965904,13.152946437965904,11.180339887498947,19.4164878389476,14.317821063276352,14.0,20.0,13.0,5.5,2.5,1.5,3.5,4.123105625617661,3.1622776601683795,2.5,13.0,16.0,15.033296378372908,{}
254,435,3.1622776601683795,38.63935817272331,3.0,5.0990195135927845,12.16552506059644,12.16552506059644,12.041594578792296,23.194827009486403,18.110770276274835,16.5,20.0,13.0,4.5,6.5,2.5,3.5,3.1622776601683795,3.1622776601683795,3.0,13.0,17.0,14.0356688476182,{}
255,436,2.23606797749979,39.6232255123179,3.1622776601683795,5.0990195135927845,13.152946437965904,14.142135623730953,12.041594578792296,22.36067977499789,17.26267650163207,16.0,21.0,14.0,5.5,4.5,0.5,3.5,3.0,3.1622776601683795,3.0,13.0,17.0,15.033296378372908,{}
256,437,1.4142135623730951,38.63935817272331,3.0,5.0990195135927845,12.16552506059644,11.180339887498947,12.041594578792296,21.213203435596427,16.1245154965971,15.5,20.0,13.0,4.5,4.5,0.5,2.5,2.23606797749979,2.23606797749979,1.5,14.0,18.0,16.0312195418814,{}
257,438,0.0,39.6232255123179,2.23606797749979,5.0990195135927845,12.36931687685298,12.16552506059644,12.041594578792296,19.235384061671343,14.142135623730953,14.0,19.0,12.0,3.5,3.5,1.5,3.5,3.1622776601683795,3.0,3.0,13.0,18.0,15.033296378372908,{}
258,439,0.0,42.2965719651132,5.0,6.082762530298219,12.041594578792296,12.16552506059644,10.04987562112089,21.095023109728988,15.033296378372908,15.0,16.0,11.0,3.5,7.5,1.5,0.5,3.1622776601683795,3.0,2.5,13.0,18.0,15.132745950421556,{}
259,440,1.4142135623730951,39.319206502675,4.0,6.082762530298219,12.16552506059644,12.16552506059644,11.04536101718726,22.20360331117452,16.1245154965971,15.5,17.0,12.0,3.5,7.5,1.5,0.5,3.0,3.1622776601683795,2.5,13.0,19.0,16.1245154965971,{}
260,441,1.4142135623730951,37.8549864614954,3.1622776601683795,5.0990195135927845,13.152946437965904,13.341664064126334,12.041594578792296,21.37755832643195,16.278820596099706,15.5,20.0,12.0,4.0,5.0,0.0,3.0,3.1622776601683795,3.1622776601683795,3.0,12.0,18.0,15.132745950421556,{}
261,442,1.4142135623730951,38.8329756778952,2.23606797749979,6.082762530298219,13.152946437965904,12.36931687685298,12.16552506059644,21.587033144922906,15.524174696260024,14.5,20.0,12.0,4.0,5.0,0.0,3.0,4.0,3.0,3.0,11.0,17.0,15.132745950421556,{}
262,443,1.0,39.81205847478876,3.0,6.082762530298219,12.36931687685298,12.36931687685298,12.16552506059644,21.37755832643195,15.297058540778355,15.0,20.0,12.0,4.0,5.0,0.0,3.0,3.1622776601683795,3.1622776601683795,3.0,12.0,18.0,16.278820596099706,{}
263,444,1.0,39.319206502675,3.1622776601683795,6.082762530298219,12.16552506059644,12.16552506059644,12.041594578792296,22.20360331117452,16.1245154965971,15.5,16.0,11.0,1.5,8.5,2.5,0.5,3.0,3.0,3.0,12.0,18.0,15.132745950421556,{}
264,445,1.0,39.6232255123179,3.1622776601683795,5.0990195135927845,11.180339887498947,12.36931687685298,12.041594578792296,20.39607805437113,15.297058540778355,15.0,18.0,11.0,2.5,5.5,0.5,1.5,2.23606797749979,3.1622776601683795,2.5,13.0,18.0,16.1245154965971,{}
265,446,1.0,36.87817782917155,2.0,5.0990195135927845,12.36931687685298,12.36931687685298,12.16552506059644,19.4164878389476,14.317821063276352,14.0,19.0,11.0,3.0,4.0,0.0,3.0,3.1622776601683795,3.1622776601683795,3.0,12.0,18.0,14.142135623730953,{}
266,447,1.0,36.87817782917155,4.123105625617661,6.082762530298219,11.40175425099138,11.40175425099138,10.04987562112089,20.39607805437113,14.317821063276352,14.0,18.0,10.0,4.0,6.0,0.0,2.0,3.1622776601683795,3.1622776601683795,3.5,12.0,17.0,16.278820596099706,{}
267,448,1.0,36.87817782917155,3.1622776601683795,5.0990195135927845,12.16552506059644,12.36931687685298,11.04536101718726,19.4164878389476,14.317821063276352,14.0,19.0,11.0,4.0,4.0,0.0,2.0,3.0,3.1622776601683795,3.0,11.0,17.0,16.1245154965971,{}
268,449,1.0,38.8329756778952,4.0,5.0990195135927845,12.16552506059644,12.36931687685298,11.40175425099138,20.615528128088304,15.524174696260024,15.0,20.0,12.0,5.0,4.0,1.0,3.0,3.1622776601683795,3.1622776601683795,2.5,13.0,18.0,16.1245154965971,{}
269,450,1.0,37.65634076752546,4.123105625617661,5.0990195135927845,12.16552506059644,13.152946437965904,11.04536101718726,20.39607805437113,15.297058540778355,15.0,19.0,12.0,4.5,4.5,0.5,2.5,4.123105625617661,3.0,3.0,13.0,17.0,15.033296378372908,{}
270,451,1.0,40.19950248448356,4.123105625617661,6.082762530298219,12.16552506059644,12.16552506059644,11.0,22.09072203437452,16.0312195418814,15.5,17.0,13.0,4.0,7.0,1.0,1.0,4.0,4.0,4.0,12.0,17.0,16.1245154965971,{}
271,452,1.4142135623730951,40.60788100849391,4.0,5.0990195135927845,13.152946437965904,13.152946437965904,12.041594578792296,22.20360331117452,17.11724276862369,16.5,21.0,14.0,5.5,4.5,0.5,3.5,4.0,4.123105625617661,3.5,12.0,17.0,16.1245154965971,{}
272,453,3.1622776601683795,38.2099463490856,4.0,5.0990195135927845,11.180339887498947,12.16552506059644,11.0,23.08679276123039,18.027756377319943,16.5,17.0,13.0,4.0,8.0,3.0,1.0,4.0,4.123105625617661,4.0,13.0,18.0,15.132745950421556,{}
273,454,3.0,38.47076812334269,4.123105625617661,5.0990195135927845,12.16552506059644,12.16552506059644,12.0,24.08318915758459,19.026297590440446,17.5,20.0,14.0,5.0,7.0,2.0,3.0,3.1622776601683795,4.0,3.5,13.0,18.0,15.132745950421556,{}
274,455,4.123105625617661,38.2099463490856,4.123105625617661,5.0990195135927845,12.16552506059644,13.152946437965904,12.0,25.179356624028344,20.09975124224178,18.0,19.0,15.0,5.0,8.0,3.0,3.0,3.1622776601683795,3.0,3.0,13.0,17.0,15.033296378372908,{}
275,456,4.0,39.20459156782532,3.1622776601683795,5.0990195135927845,13.152946437965904,13.152946437965904,12.041594578792296,24.186773244895647,19.1049731745428,17.0,18.0,14.0,4.0,8.0,3.0,3.0,3.0,3.1622776601683795,3.0,13.0,17.0,16.1245154965971,{}
276,457,3.1622776601683795,39.20459156782532,4.0,5.0990195135927845,12.16552506059644,12.16552506059644,11.04536101718726,23.194827009486403,18.110770276274835,16.5,18.0,14.0,5.0,7.0,2.0,2.0,2.23606797749979,2.0,2.0,13.0,18.0,17.26267650163207,{}
277,458,3.1622776601683795,36.345563690772494,2.23606797749979,4.123105625617661,11.180339887498947,12.16552506059644,12.041594578792296,21.37755832643195,17.26267650163207,15.5,18.0,13.0,3.5,5.5,1.5,2.5,2.23606797749979,2.23606797749979,2.0,13.0,17.0,15.033296378372908,{}
278,459,3.1622776601683795,38.3275357934736,4.0,6.082762530298219,11.04536101718726,12.16552506059644,11.0,24.08318915758459,18.027756377319943,16.5,18.0,13.0,4.5,8.5,3.5,1.5,2.23606797749979,2.0,1.5,14.0,19.0,16.1245154965971,{}
279,460,5.385164807134504,39.6232255123179,2.0,4.123105625617661,13.152946437965904,13.152946437965904,12.041594578792296,23.345235059857504,19.235384061671343,16.5,21.0,14.0,5.5,5.5,2.5,4.5,3.1622776601683795,2.23606797749979,2.5,12.0,18.0,15.132745950421556,{}
280,461,5.0990195135927845,38.63935817272331,4.123105625617661,5.0990195135927845,13.341664064126334,13.152946437965904,10.04987562112089,24.33105012119288,19.235384061671343,16.5,21.0,14.0,7.5,6.5,1.5,5.5,3.0,4.0,3.5,12.0,17.0,17.11724276862369,{}
281,462,5.0990195135927845,39.6232255123179,3.1622776601683795,4.123105625617661,13.341664064126334,13.341664064126334,12.041594578792296,24.33105012119288,20.223748416156685,17.5,22.0,15.0,6.5,5.5,1.5,5.5,3.1622776601683795,4.0,4.0,12.0,17.0,16.1245154965971,{}
282,463,5.0990195135927845,39.81205847478876,3.1622776601683795,5.0990195135927845,12.36931687685298,12.36931687685298,11.04536101718726,24.33105012119288,19.235384061671343,16.5,21.0,13.0,6.0,7.0,3.0,5.0,3.1622776601683795,4.0,3.5,11.0,16.0,15.132745950421556,{}
283,464,6.082762530298219,39.45883931389772,2.23606797749979,4.123105625617661,13.152946437965904,14.317821063276352,11.04536101718726,23.345235059857504,19.235384061671343,16.0,20.0,14.0,6.0,6.0,2.0,5.0,4.123105625617661,4.123105625617661,4.0,12.0,17.0,16.1245154965971,{}
284,465,2.8284271247461903,36.6742416417845,3.0,5.0990195135927845,12.16552506059644,12.16552506059644,12.0,22.20360331117452,17.11724276862369,16.0,21.0,14.0,5.5,4.5,0.5,3.5,4.123105625617661,3.1622776601683795,3.5,12.0,17.0,16.1245154965971,{}
285,466,1.4142135623730951,35.6931365951495,3.0,5.0990195135927845,11.180339887498947,11.180339887498947,12.041594578792296,21.213203435596427,16.1245154965971,15.5,21.0,14.0,5.5,3.5,1.5,3.5,4.0,4.0,4.5,11.0,18.0,16.0312195418814,{}
286,467,1.0,35.510561809129406,3.0,4.123105625617661,11.180339887498947,10.44030650891055,12.041594578792296,20.09975124224178,16.0312195418814,15.5,18.0,12.0,3.0,5.0,2.0,1.0,4.123105625617661,4.0,4.0,11.0,18.0,16.1245154965971,{}
287,468,1.0,34.52535300326414,3.0,5.0990195135927845,10.198039027185567,11.40175425099138,12.041594578792296,20.223748416156685,15.132745950421556,15.0,18.0,12.0,3.0,5.0,1.0,2.0,4.123105625617661,4.123105625617661,4.0,12.0,18.0,15.132745950421556,{}
288,469,1.4142135623730951,35.6931365951495,3.0,6.082762530298219,11.180339887498947,12.36931687685298,12.0,22.09072203437452,16.0312195418814,15.5,19.0,12.0,3.5,6.5,1.5,1.5,4.0,4.123105625617661,4.0,12.0,19.0,15.132745950421556,{}
289,470,0.0,34.36568055487916,3.1622776601683795,6.0,10.198039027185567,10.44030650891055,12.0,21.02379604162864,15.033296378372908,15.0,18.0,13.0,3.5,5.5,0.5,1.5,4.123105625617661,4.123105625617661,4.5,11.0,18.0,16.1245154965971,{}
290,471,0.0,36.87817782917155,3.1622776601683795,6.082762530298219,12.16552506059644,12.16552506059644,13.038404810405298,22.20360331117452,16.1245154965971,16.0,22.0,14.0,5.0,4.0,1.0,4.0,5.0990195135927845,5.0990195135927845,4.5,11.0,17.0,17.26267650163207,{}
291,472,1.0,35.22782990761707,4.123105625617661,7.071067811865476,11.180339887498947,12.16552506059644,11.04536101718726,23.194827009486403,16.1245154965971,15.5,17.0,13.0,4.0,8.0,1.0,1.0,4.123105625617661,5.0990195135927845,4.5,13.0,19.0,16.278820596099706,{}
292,473,1.4142135623730951,34.713109915419565,3.1622776601683795,6.082762530298219,11.180339887498947,12.16552506059644,12.041594578792296,22.36067977499789,16.278820596099706,15.5,21.0,14.0,5.5,4.5,1.5,3.5,4.123105625617661,4.123105625617661,4.5,12.0,17.0,15.132745950421556,{}
293,474,1.4142135623730951,35.90264614203248,3.1622776601683795,5.0990195135927845,11.180339887498947,12.36931687685298,12.0,21.213203435596427,16.1245154965971,15.5,21.0,13.0,5.0,4.0,0.0,4.0,4.123105625617661,4.123105625617661,4.0,11.0,16.0,15.132745950421556,{}
294,475,3.0,38.3275357934736,5.0990195135927845,7.071067811865476,11.04536101718726,12.16552506059644,10.0,25.079872407968907,18.027756377319943,16.5,17.0,12.0,4.5,10.5,4.5,0.5,5.0,4.123105625617661,4.0,12.0,19.0,16.1245154965971,{}
295,476,3.0,39.20459156782532,4.123105625617661,5.0990195135927845,11.04536101718726,11.180339887498947,11.0,23.08679276123039,18.027756377319943,16.5,17.0,13.0,4.0,8.0,3.0,1.0,4.0,4.47213595499958,4.5,11.0,17.0,16.1245154965971,{}
296,477,4.47213595499958,40.44749683231337,3.0,5.0990195135927845,13.152946437965904,13.152946437965904,11.04536101718726,23.345235059857504,18.24828759089466,16.0,18.0,12.0,4.0,8.0,3.0,2.0,4.0,4.123105625617661,4.0,10.0,17.0,15.132745950421556,{}
297,478,0.0,42.42640687119285,4.123105625617661,3.1622776601683795,11.180339887498947,12.36931687685298,12.0,19.1049731745428,16.0312195418814,16.0,17.0,11.0,2.0,5.0,2.0,1.0,4.123105625617661,4.123105625617661,4.0,11.0,18.0,16.1245154965971,{}
298,479,1.0,38.63935817272331,2.23606797749979,4.123105625617661,12.36931687685298,11.40175425099138,12.041594578792296,18.43908891458577,14.317821063276352,14.0,18.0,11.0,2.5,3.5,0.5,2.5,4.123105625617661,4.123105625617661,4.0,12.0,18.0,14.142135623730953,{}
299,480,1.4142135623730951,38.63935817272331,2.0,4.123105625617661,12.36931687685298,12.16552506059644,12.041594578792296,17.26267650163207,13.152946437965904,13.5,17.0,10.0,1.5,3.5,0.5,1.5,4.123105625617661,4.123105625617661,4.0,12.0,18.0,15.297058540778355,{}
300,481,2.23606797749979,39.81205847478876,4.123105625617661,5.0990195135927845,12.16552506059644,12.36931687685298,10.04987562112089,17.46424919657298,12.36931687685298,13.0,18.0,10.0,4.0,3.0,1.0,2.0,4.123105625617661,4.123105625617661,4.0,12.0,18.0,16.278820596099706,{}
301,482,1.4142135623730951,40.79215610874228,3.1622776601683795,5.0990195135927845,13.152946437965904,12.36931687685298,10.04987562112089,17.46424919657298,12.36931687685298,12.5,18.0,10.0,4.0,3.0,1.0,2.0,5.0990195135927845,4.123105625617661,4.0,12.0,18.0,16.1245154965971,{}
302,483,1.0,40.79215610874228,3.0,4.123105625617661,12.16552506059644,12.36931687685298,10.04987562112089,17.26267650163207,13.152946437965904,13.0,17.0,9.0,3.0,4.0,0.0,1.0,4.0,4.123105625617661,4.0,12.0,18.0,16.1245154965971,{}
303,484,1.4142135623730951,39.45883931389772,4.0,6.082762530298219,12.36931687685298,12.36931687685298,10.04987562112089,19.235384061671343,13.152946437965904,13.5,16.0,10.0,3.0,6.0,1.0,1.0,4.0,4.123105625617661,4.0,12.0,18.0,17.11724276862369,{}
304,485,1.4142135623730951,40.79215610874228,4.0,5.0990195135927845,12.16552506059644,12.36931687685298,10.04987562112089,18.24828759089466,13.152946437965904,13.5,17.0,9.0,3.0,5.0,1.0,1.0,4.123105625617661,4.123105625617661,4.0,11.0,17.0,16.1245154965971,{}
305,486,1.4142135623730951,42.2965719651132,3.0,5.0990195135927845,12.16552506059644,11.40175425099138,11.04536101718726,20.223748416156685,15.132745950421556,14.5,15.0,10.0,1.5,7.5,2.5,0.5,4.0,4.123105625617661,4.0,12.0,18.0,17.11724276862369,{}
306,487,1.0,41.593268686170845,3.0,4.47213595499958,12.36931687685298,13.341664064126334,11.04536101718726,18.43908891458577,14.142135623730953,14.0,17.0,10.0,2.5,4.5,0.5,1.5,5.0990195135927845,5.0990195135927845,4.5,13.0,19.0,16.278820596099706,{}
307,488,1.4142135623730951,41.593268686170845,4.123105625617661,4.123105625617661,12.36931687685298,12.16552506059644,10.0,17.26267650163207,13.152946437965904,13.5,18.0,11.0,4.5,2.5,0.5,2.5,4.123105625617661,4.123105625617661,4.5,12.0,18.0,15.132745950421556,{}
308,489,1.0,42.2965719651132,3.0,4.123105625617661,12.36931687685298,12.16552506059644,12.0,19.1049731745428,15.033296378372908,15.0,16.0,11.0,1.5,5.5,2.5,0.5,4.0,3.1622776601683795,3.5,11.0,18.0,18.24828759089466,{}
309,490,1.4142135623730951,41.77319714841085,3.1622776601683795,5.0990195135927845,12.36931687685298,13.152946437965904,12.041594578792296,19.4164878389476,14.317821063276352,14.5,20.0,12.0,4.0,3.0,1.0,3.0,3.1622776601683795,4.123105625617661,4.0,12.0,16.0,16.1245154965971,{}
310,491,2.23606797749979,40.79215610874228,3.0,5.0990195135927845,12.16552506059644,13.152946437965904,12.0,19.235384061671343,14.142135623730953,14.5,20.0,12.0,4.0,3.0,1.0,2.0,3.1622776601683795,4.123105625617661,3.5,11.0,17.0,15.132745950421556,{}
311,492,1.4142135623730951,40.60788100849391,3.1622776601683795,5.0990195135927845,13.341664064126334,13.341664064126334,12.041594578792296,19.4164878389476,14.317821063276352,14.5,19.0,12.0,3.5,3.5,0.5,2.5,4.0,3.1622776601683795,3.0,11.0,16.0,15.132745950421556,{}
312,493,1.0,42.2965719651132,3.1622776601683795,5.0990195135927845,11.180339887498947,12.16552506059644,12.0,19.1049731745428,14.0356688476182,14.5,15.0,10.0,0.5,6.5,1.5,0.5,4.0,4.123105625617661,4.0,11.0,16.0,15.132745950421556,{}
313,494,1.4142135623730951,39.6232255123179,3.1622776601683795,5.0990195135927845,11.180339887498947,12.16552506059644,11.0,18.24828759089466,13.152946437965904,13.5,19.0,12.0,4.5,2.5,1.5,2.5,3.0,3.1622776601683795,3.0,12.0,18.0,17.029386365926403,{}
314,495,1.0,39.6232255123179,3.1622776601683795,4.123105625617661,12.16552506059644,12.16552506059644,11.04536101718726,18.43908891458577,14.317821063276352,14.0,19.0,12.0,4.5,2.5,1.5,2.5,4.123105625617661,4.123105625617661,4.5,12.0,17.0,16.1245154965971,{}
315,496,1.0,39.81205847478876,2.0,5.0990195135927845,13.152946437965904,13.341664064126334,12.16552506059644,19.4164878389476,14.317821063276352,14.0,20.0,12.0,4.0,3.0,1.0,3.0,4.123105625617661,4.123105625617661,4.0,11.0,16.0,16.1245154965971,{}
316,497,1.0,39.6232255123179,3.0,5.0990195135927845,12.16552506059644,12.36931687685298,11.04536101718726,19.235384061671343,14.142135623730953,14.0,19.0,12.0,4.5,3.5,1.5,2.5,5.0,4.0,4.5,12.0,17.0,15.033296378372908,{}
317,498,1.4142135623730951,40.79215610874228,2.23606797749979,5.0990195135927845,13.152946437965904,13.152946437965904,12.041594578792296,20.39607805437113,15.297058540778355,14.5,20.0,12.0,4.0,4.0,0.0,3.0,4.0,4.123105625617661,4.0,12.0,18.0,16.1245154965971,{}
318,499,1.4142135623730951,39.6232255123179,3.0,4.123105625617661,12.16552506059644,12.16552506059644,11.04536101718726,19.235384061671343,15.132745950421556,14.5,19.0,12.0,4.5,3.5,0.5,2.5,5.0,4.123105625617661,4.5,12.0,18.0,16.1245154965971,{}
319,500,1.4142135623730951,39.81205847478876,2.23606797749979,5.385164807134504,13.341664064126334,13.341664064126334,12.0,20.39607805437113,15.132745950421556,14.5,20.0,12.0,4.0,4.0,0.0,4.0,4.123105625617661,4.123105625617661,4.5,12.0,17.0,16.1245154965971,{}
320,501,1.4142135623730951,39.6232255123179,3.1622776601683795,5.0990195135927845,13.341664064126334,14.317821063276352,12.041594578792296,21.37755832643195,16.278820596099706,15.5,20.0,13.0,4.5,4.5,0.5,3.5,4.123105625617661,4.123105625617661,4.5,13.0,17.0,15.033296378372908,{}
321,502,2.23606797749979,39.6232255123179,4.123105625617661,6.082762530298219,13.038404810405298,13.152946437965904,11.04536101718726,23.345235059857504,17.26267650163207,16.0,20.0,13.0,5.5,6.5,0.5,2.5,4.123105625617661,4.123105625617661,4.5,12.0,17.0,17.11724276862369,{}
322,503,2.23606797749979,38.63935817272331,3.1622776601683795,4.123105625617661,12.16552506059644,12.16552506059644,12.0,21.213203435596427,17.11724276862369,16.0,20.0,13.0,4.5,4.5,0.5,3.5,4.123105625617661,4.123105625617661,4.0,12.0,17.0,16.1245154965971,{}
323,504,3.1622776601683795,35.90264614203248,3.1622776601683795,6.082762530298219,12.16552506059644,12.16552506059644,11.0,23.194827009486403,17.11724276862369,15.5,20.0,12.0,5.0,7.0,2.0,3.0,4.0,3.1622776601683795,3.5,13.0,18.0,16.1245154965971,{}
324,505,3.1622776601683795,37.8549864614954,3.0,5.0990195135927845,12.16552506059644,13.152946437965904,11.04536101718726,22.20360331117452,17.11724276862369,15.5,21.0,13.0,6.0,5.0,1.0,4.0,3.1622776601683795,4.0,4.0,13.0,17.0,15.132745950421556,{}
325,506,3.1622776601683795,39.6232255123179,4.0,6.082762530298219,12.36931687685298,12.36931687685298,11.04536101718726,24.186773244895647,18.110770276274835,16.5,21.0,14.0,6.5,6.5,1.5,4.5,4.123105625617661,4.123105625617661,4.0,13.0,18.0,16.1245154965971,{}
326,507,3.1622776601683795,37.33630940518894,3.0,5.0990195135927845,11.180339887498947,11.180339887498947,12.041594578792296,23.194827009486403,18.110770276274835,16.5,18.0,13.0,3.5,7.5,2.5,1.5,4.0,4.123105625617661,3.5,14.0,19.0,17.11724276862369,{}
327,508,4.0,35.510561809129406,4.123105625617661,6.082762530298219,12.16552506059644,12.16552506059644,10.04987562112089,24.186773244895647,18.110770276274835,16.0,19.0,13.0,6.0,8.0,2.0,3.0,5.0990195135927845,4.123105625617661,4.0,13.0,18.0,17.11724276862369,{}
328,509,3.1622776601683795,38.63935817272331,4.123105625617661,6.082762530298219,12.16552506059644,13.341664064126334,10.04987562112089,23.345235059857504,17.26267650163207,15.5,21.0,14.0,7.5,5.5,0.5,4.5,4.123105625617661,5.0,4.5,14.0,18.0,15.132745950421556,{}
329,510,3.1622776601683795,35.6931365951495,4.123105625617661,7.071067811865476,12.16552506059644,12.36931687685298,10.04987562112089,24.33105012119288,17.26267650163207,15.5,20.0,13.0,6.5,7.5,1.5,3.5,4.123105625617661,4.0,4.0,13.0,17.0,16.0312195418814,{}
330,511,4.123105625617661,38.47076812334269,2.23606797749979,5.0990195135927845,13.152946437965904,13.152946437965904,12.041594578792296,23.345235059857504,18.24828759089466,16.0,20.0,14.0,5.0,6.0,1.0,4.0,4.0,4.123105625617661,4.0,13.0,18.0,16.0312195418814,{}
331,512,3.1622776601683795,38.47076812334269,3.0,6.082762530298219,12.041594578792296,12.16552506059644,12.041594578792296,24.186773244895647,18.110770276274835,16.5,19.0,13.0,4.0,8.0,2.0,2.0,4.123105625617661,4.0,4.0,12.0,16.0,15.132745950421556,{}
332,513,4.123105625617661,35.6931365951495,2.0,6.082762530298219,11.180339887498947,11.180339887498947,12.041594578792296,24.186773244895647,18.110770276274835,16.0,20.0,13.0,4.5,7.5,1.5,3.5,4.0,4.123105625617661,4.0,12.0,17.0,15.132745950421556,{}
333,514,2.23606797749979,35.6931365951495,3.0,5.0990195135927845,11.180339887498947,12.16552506059644,12.041594578792296,22.20360331117452,17.11724276862369,16.0,20.0,13.0,4.5,5.5,0.5,3.5,4.123105625617661,4.123105625617661,4.0,13.0,17.0,17.11724276862369,{}
334,515,1.4142135623730951,39.319206502675,4.0,7.071067811865476,12.16552506059644,12.16552506059644,11.0,23.08679276123039,16.0312195418814,15.5,17.0,12.0,3.5,8.5,2.5,0.5,5.0990195135927845,4.123105625617661,4.0,14.0,18.0,17.11724276862369,{}
335,516,2.23606797749979,38.63935817272331,2.0,5.0990195135927845,12.16552506059644,12.16552506059644,12.041594578792296,21.213203435596427,16.1245154965971,15.0,20.0,13.0,4.5,4.5,0.5,3.5,4.0,4.123105625617661,4.0,13.0,17.0,16.0312195418814,{}
336,517,1.4142135623730951,37.65634076752546,3.0,6.082762530298219,12.16552506059644,12.16552506059644,12.16552506059644,22.36067977499789,16.278820596099706,15.5,20.0,13.0,4.5,5.5,0.5,3.5,4.123105625617661,4.123105625617661,4.0,13.0,17.0,17.11724276862369,{}
337,518,1.0,38.63935817272331,3.0,5.385164807134504,12.16552506059644,13.152946437965904,12.041594578792296,20.39607805437113,15.132745950421556,15.0,21.0,14.0,5.5,2.5,1.5,3.5,4.0,3.1622776601683795,3.5,12.0,17.0,16.1245154965971,{}
338,519,1.0,38.8329756778952,4.0,5.0990195135927845,12.16552506059644,13.341664064126334,12.041594578792296,21.213203435596427,16.1245154965971,16.0,21.0,13.0,5.0,4.0,1.0,3.0,4.0,4.0,4.0,13.0,17.0,18.110770276274835,{}
339,520,1.0,39.6232255123179,3.1622776601683795,5.0990195135927845,13.341664064126334,13.341664064126334,12.041594578792296,21.213203435596427,16.1245154965971,15.5,21.0,14.0,5.5,3.5,1.5,4.5,4.0,4.0,4.0,13.0,17.0,17.11724276862369,{}
340,521,1.4142135623730951,38.47076812334269,4.0,6.082762530298219,12.16552506059644,12.36931687685298,11.04536101718726,22.20360331117452,16.1245154965971,15.5,20.0,14.0,6.0,5.0,1.0,3.0,3.0,3.1622776601683795,3.5,13.0,18.0,17.11724276862369,{}
341,522,1.4142135623730951,39.6232255123179,3.0,5.385164807134504,13.152946437965904,13.341664064126334,11.04536101718726,20.39607805437113,15.132745950421556,14.5,20.0,13.0,5.5,3.5,1.5,3.5,3.1622776601683795,3.1622776601683795,3.0,13.0,17.0,16.1245154965971,{}
342,523,1.4142135623730951,40.60788100849391,3.0,6.082762530298219,12.36931687685298,13.152946437965904,12.041594578792296,22.20360331117452,16.1245154965971,15.5,21.0,14.0,5.5,4.5,0.5,4.5,4.123105625617661,4.123105625617661,4.0,12.0,17.0,16.1245154965971,{}
343,524,1.0,38.47076812334269,3.0,5.0990195135927845,12.16552506059644,12.16552506059644,12.0,20.09975124224178,15.033296378372908,15.0,20.0,14.0,5.0,3.0,1.0,4.0,6.082762530298219,6.082762530298219,6.0,11.0,16.0,17.029386365926403,{}
344,525,1.0,37.65634076752546,3.0,6.082762530298219,11.180339887498947,12.16552506059644,12.0,21.095023109728988,15.033296378372908,15.0,20.0,13.0,4.5,4.5,0.5,2.5,5.0990195135927845,6.0,5.5,15.0,18.0,16.0312195418814,{}
345,526,1.0,39.20459156782532,3.0,4.0,12.041594578792296,12.16552506059644,12.041594578792296,19.0,15.0,15.0,16.0,12.0,2.0,5.0,1.0,0.0,3.0,3.1622776601683795,3.0,15.0,17.0,18.0,{}
346,527,1.0,39.11521443121589,4.0,6.0,12.041594578792296,12.041594578792296,11.0,21.02379604162864,15.033296378372908,15.0,17.0,14.0,4.5,5.5,0.5,1.5,3.0,2.0,2.5,15.0,17.0,19.026297590440446,{}
347,528,1.0,36.345563690772494,3.0,6.082762530298219,12.041594578792296,11.180339887498947,11.04536101718726,20.223748416156685,14.142135623730953,14.0,17.0,12.0,3.5,5.5,0.5,1.5,3.1622776601683795,3.0,2.5,15.0,16.0,17.11724276862369,{}
348,529,0.0,38.47076812334269,4.123105625617661,6.082762530298219,12.16552506059644,12.16552506059644,10.0,20.09975124224178,14.0356688476182,14.0,18.0,12.0,5.0,5.0,0.0,3.0,4.123105625617661,3.0,3.0,16.0,17.0,18.110770276274835,{}
349,530,1.4142135623730951,38.3275357934736,3.0,6.082762530298219,12.041594578792296,13.152946437965904,11.0,21.095023109728988,15.033296378372908,14.5,18.0,13.0,4.5,5.5,0.5,2.5,3.0,3.0,3.0,15.0,17.0,18.027756377319943,{}
350,531,1.0,38.47076812334269,3.0,6.0,12.041594578792296,12.16552506059644,11.04536101718726,20.09975124224178,14.142135623730953,14.0,18.0,12.0,4.0,5.0,1.0,2.0,3.0,3.0,2.5,14.0,17.0,19.026297590440446,{}
351,532,1.0,37.21558813185679,3.0,6.082762530298219,12.16552506059644,11.180339887498947,11.0,20.09975124224178,14.0356688476182,14.0,16.0,12.0,3.0,6.0,1.0,2.0,3.0,3.0,3.0,15.0,18.0,19.026297590440446,{}
352,533,1.0,40.19950248448356,3.0,5.0990195135927845,12.041594578792296,12.16552506059644,11.04536101718726,20.0,15.033296378372908,14.5,16.0,12.0,3.0,6.0,1.0,1.0,3.1622776601683795,3.1622776601683795,3.0,14.0,17.0,18.027756377319943,{}
353,534,1.4142135623730951,38.11823710509184,3.0,6.082762530298219,11.04536101718726,12.16552506059644,12.041594578792296,22.02271554554524,16.0,15.5,16.0,13.0,2.5,7.5,1.5,0.5,3.1622776601683795,2.23606797749979,2.5,15.0,18.0,19.026297590440446,{}
354,535,1.4142135623730951,38.11823710509184,3.0,6.0,11.04536101718726,12.041594578792296,11.0,21.02379604162864,15.033296378372908,14.5,16.0,13.0,3.5,6.5,0.5,1.5,3.1622776601683795,2.0,2.0,14.0,18.0,18.110770276274835,{}
355,536,1.0,41.19465984809196,3.0,6.0,11.04536101718726,12.16552506059644,11.04536101718726,20.0,14.0,14.0,16.0,12.0,3.0,6.0,1.0,1.0,5.0990195135927845,5.0990195135927845,5.0,14.0,19.0,16.0312195418814,{}
356,537,0.0,39.6232255123179,3.1622776601683795,5.0990195135927845,11.180339887498947,12.16552506059644,11.0,19.1049731745428,14.0356688476182,14.0,19.0,12.0,4.5,3.5,1.5,3.5,1.4142135623730951,1.0,1.0,15.0,19.0,18.110770276274835,{}
357,538,0.0,38.47076812334269,3.1622776601683795,5.0990195135927845,11.180339887498947,12.16552506059644,12.041594578792296,20.223748416156685,15.132745950421556,15.0,19.0,13.0,4.0,4.0,0.0,2.0,3.0,2.23606797749979,2.0,15.0,19.0,19.1049731745428,{}
358,539,3.1622776601683795,40.311288741492746,3.1622776601683795,4.123105625617661,13.341664064126334,13.152946437965904,12.041594578792296,22.36067977499789,18.24828759089466,16.5,19.0,14.0,4.5,5.5,2.5,3.5,2.0,3.1622776601683795,3.0,14.0,19.0,18.110770276274835,{}
359,540,4.123105625617661,41.593268686170845,3.1622776601683795,4.123105625617661,13.341664064126334,13.152946437965904,12.041594578792296,23.345235059857504,19.235384061671343,17.0,21.0,14.0,5.5,5.5,2.5,4.5,3.1622776601683795,3.0,3.0,13.0,18.0,18.027756377319943,{}
360,541,5.385164807134504,39.45883931389772,3.0,5.0990195135927845,13.341664064126334,13.152946437965904,12.16552506059644,25.495097567963924,20.39607805437113,17.5,21.0,15.0,6.0,7.0,2.0,5.0,3.1622776601683795,3.1622776601683795,2.5,14.0,19.0,17.029386365926403,{}
361,542,4.0,40.311288741492746,3.1622776601683795,4.47213595499958,11.180339887498947,12.16552506059644,12.041594578792296,23.345235059857504,19.1049731745428,17.0,19.0,14.0,4.5,6.5,2.5,3.5,3.1622776601683795,3.1622776601683795,3.0,14.0,18.0,18.110770276274835,{}
362,543,3.1622776601683795,42.42640687119285,3.0,5.0990195135927845,12.16552506059644,12.36931687685298,12.0,23.08679276123039,18.027756377319943,16.5,19.0,13.0,4.0,7.0,3.0,3.0,3.1622776601683795,2.23606797749979,2.0,13.0,17.0,17.11724276862369,{}
363,544,2.23606797749979,40.60788100849391,3.0,4.123105625617661,12.16552506059644,13.152946437965904,11.180339887498947,20.39607805437113,16.278820596099706,15.0,20.0,13.0,5.5,3.5,0.5,4.5,3.1622776601683795,3.0,3.0,13.0,18.0,17.11724276862369,{}
364,545,2.23606797749979,39.6232255123179,4.123105625617661,6.082762530298219,12.16552506059644,12.16552506059644,10.04987562112089,22.36067977499789,16.278820596099706,15.0,20.0,13.0,6.5,5.5,0.5,3.5,3.1622776601683795,2.0,2.5,13.0,18.0,17.11724276862369,{}
365,546,2.23606797749979,40.44749683231337,4.123105625617661,5.0990195135927845,12.16552506059644,12.36931687685298,11.0,22.20360331117452,17.11724276862369,16.0,18.0,12.0,4.0,7.0,2.0,2.0,3.0,3.1622776601683795,3.0,13.0,19.0,17.11724276862369,{}
366,547,4.0,39.20459156782532,3.1622776601683795,4.123105625617661,11.180339887498947,12.16552506059644,11.0,22.09072203437452,18.027756377319943,16.0,16.0,12.0,3.0,8.0,4.0,1.0,3.1622776601683795,3.1622776601683795,3.0,14.0,19.0,16.1245154965971,{}
367,548,2.23606797749979,36.6742416417845,2.0,5.385164807134504,11.180339887498947,12.36931687685298,12.041594578792296,21.37755832643195,16.1245154965971,15.0,19.0,12.0,3.5,5.5,1.5,2.5,3.1622776601683795,3.1622776601683795,3.0,13.0,18.0,16.1245154965971,{}
368,549,3.1622776601683795,40.311288741492746,4.0,6.082762530298219,12.16552506059644,12.16552506059644,11.04536101718726,24.186773244895647,18.110770276274835,16.5,18.0,13.0,4.5,8.5,2.5,2.5,3.1622776601683795,3.0,3.0,12.0,18.0,17.11724276862369,{}
369,550,4.123105625617661,39.45883931389772,3.0,5.0990195135927845,12.36931687685298,12.16552506059644,12.041594578792296,24.186773244895647,19.1049731745428,17.0,19.0,13.0,4.0,8.0,3.0,3.0,3.1622776601683795,3.0,3.0,13.0,19.0,16.1245154965971,{}
370,551,4.0,40.311288741492746,4.123105625617661,5.0990195135927845,12.16552506059644,12.16552506059644,11.0,24.08318915758459,19.026297590440446,17.0,18.0,13.0,4.5,8.5,3.5,2.5,3.1622776601683795,3.1622776601683795,3.0,13.0,19.0,18.110770276274835,{}
371,552,5.0990195135927845,38.63935817272331,3.0,4.47213595499958,12.16552506059644,13.152946437965904,11.04536101718726,23.345235059857504,19.1049731745428,16.5,22.0,15.0,7.5,4.5,1.5,5.5,3.1622776601683795,3.1622776601683795,3.0,14.0,18.0,17.11724276862369,{}
372,553,4.123105625617661,39.319206502675,3.0,4.0,12.16552506059644,13.152946437965904,12.041594578792296,23.08679276123039,19.1049731745428,17.0,19.0,14.0,4.5,6.5,2.5,3.5,3.0,3.0,3.0,13.0,19.0,17.11724276862369,{}
373,554,1.4142135623730951,37.65634076752546,3.0,4.123105625617661,12.16552506059644,12.16552506059644,13.038404810405298,19.235384061671343,15.132745950421556,15.5,21.0,14.0,4.5,1.5,1.5,3.5,3.0,2.23606797749979,2.5,13.0,17.0,16.1245154965971,{}
374,555,0.0,40.311288741492746,3.0,5.0990195135927845,12.041594578792296,12.36931687685298,12.0,20.024984394500787,15.0,15.0,18.0,13.0,3.5,4.5,0.5,1.5,3.0,3.1622776601683795,3.0,13.0,17.0,16.0312195418814,{}
375,556,0.0,36.22154055254967,3.1622776601683795,5.0990195135927845,11.180339887498947,11.40175425099138,12.0,20.09975124224178,15.033296378372908,15.0,18.0,14.0,4.0,4.0,1.0,3.0,3.1622776601683795,4.123105625617661,3.5,13.0,17.0,16.1245154965971,{}
376,557,1.0,38.11823710509184,3.0,5.0990195135927845,11.180339887498947,11.04536101718726,12.041594578792296,21.095023109728988,16.0312195418814,15.5,17.0,14.0,3.5,5.5,0.5,1.5,4.0,4.123105625617661,3.5,13.0,17.0,16.1245154965971,{}
377,558,0.0,40.44749683231337,3.0,6.082762530298219,11.180339887498947,11.180339887498947,12.0,21.02379604162864,15.0,15.0,19.0,13.0,4.0,5.0,0.0,2.0,3.1622776601683795,4.123105625617661,3.5,13.0,17.0,16.1245154965971,{}
378,559,0.0,37.21558813185679,4.123105625617661,5.0990195135927845,11.180339887498947,10.198039027185567,12.0,21.095023109728988,16.0312195418814,16.0,18.0,14.0,4.0,5.0,0.0,2.0,3.0,4.0,3.5,14.0,18.0,16.1245154965971,{}
379,560,1.4142135623730951,35.510561809129406,3.0,6.082762530298219,11.180339887498947,12.16552506059644,13.0,21.095023109728988,15.033296378372908,15.5,20.0,14.0,4.0,4.0,1.0,3.0,3.1622776601683795,3.1622776601683795,3.0,12.0,16.0,16.1245154965971,{}
380,561,1.0,37.48332962798263,3.0,5.0990195135927845,12.16552506059644,12.16552506059644,13.038404810405298,21.213203435596427,16.1245154965971,16.0,21.0,15.0,5.0,3.0,2.0,4.0,4.123105625617661,4.123105625617661,3.5,13.0,17.0,16.0312195418814,{}
381,562,2.23606797749979,38.63935817272331,4.0,5.0,12.16552506059644,12.16552506059644,11.04536101718726,21.213203435596427,16.278820596099706,15.5,21.0,14.0,6.5,3.5,1.5,4.5,3.0,3.0,3.0,13.0,17.0,16.0312195418814,{}
382,563,1.0,39.45883931389772,3.0,6.082762530298219,12.16552506059644,13.152946437965904,12.16552506059644,21.37755832643195,15.297058540778355,15.0,20.0,14.0,5.0,4.0,2.0,4.0,3.0,3.1622776601683795,3.0,13.0,17.0,15.033296378372908,{}
383,564,1.4142135623730951,40.44749683231337,3.1622776601683795,5.0990195135927845,13.152946437965904,13.152946437965904,12.0,21.213203435596427,16.1245154965971,15.5,21.0,15.0,6.0,3.0,2.0,4.0,4.123105625617661,3.0,3.5,13.0,17.0,16.1245154965971,{}
384,565,1.4142135623730951,37.65634076752546,3.0,5.0990195135927845,12.36931687685298,13.152946437965904,12.041594578792296,21.213203435596427,16.1245154965971,15.5,21.0,14.0,5.5,3.5,1.5,4.5,3.1622776601683795,3.0,2.5,13.0,16.0,15.033296378372908,{}
385,566,1.4142135623730951,38.63935817272331,3.0,6.082762530298219,13.152946437965904,13.152946437965904,12.041594578792296,22.20360331117452,16.1245154965971,15.5,22.0,15.0,6.5,3.5,1.5,4.5,4.123105625617661,3.1622776601683795,3.5,13.0,17.0,17.11724276862369,{}
386,567,4.123105625617661,38.63935817272331,2.23606797749979,4.123105625617661,11.180339887498947,12.16552506059644,12.0,22.20360331117452,18.110770276274835,16.0,22.0,15.0,6.5,3.5,0.5,5.5,4.123105625617661,3.1622776601683795,3.0,13.0,17.0,15.033296378372908,{}
387,568,4.123105625617661,39.319206502675,2.0,4.123105625617661,12.16552506059644,12.16552506059644,12.041594578792296,22.20360331117452,18.110770276274835,16.0,20.0,15.0,5.5,4.5,0.5,4.5,4.123105625617661,3.0,3.0,13.0,17.0,16.1245154965971,{}
388,569,3.1622776601683795,38.47076812334269,2.0,4.123105625617661,12.16552506059644,13.152946437965904,12.041594578792296,21.213203435596427,17.11724276862369,15.5,20.0,14.0,5.0,4.0,0.0,4.0,4.123105625617661,3.0,3.0,13.0,16.0,15.132745950421556,{}
389,570,1.4142135623730951,38.63935817272331,2.0,4.123105625617661,13.152946437965904,12.16552506059644,12.041594578792296,19.235384061671343,15.132745950421556,14.5,21.0,14.0,5.5,1.5,2.5,4.5,4.123105625617661,3.0,3.5,13.0,17.0,14.0356688476182,{}
390,571,1.0,39.45883931389772,3.0,5.0990195135927845,13.152946437965904,13.152946437965904,12.041594578792296,20.223748416156685,15.132745950421556,15.0,21.0,15.0,6.0,2.0,2.0,5.0,4.0,3.0,3.5,12.0,16.0,14.0356688476182,{}
391,572,3.1622776601683795,40.44749683231337,2.0,4.123105625617661,12.16552506059644,13.038404810405298,12.041594578792296,21.213203435596427,17.11724276862369,15.5,20.0,14.0,5.0,4.0,0.0,4.0,3.1622776601683795,3.0,3.0,13.0,17.0,14.0356688476182,{}
392,573,4.123105625617661,38.3275357934736,3.0,4.123105625617661,12.16552506059644,12.16552506059644,11.04536101718726,22.20360331117452,18.110770276274835,16.0,20.0,15.0,6.5,4.5,1.5,4.5,3.0,4.0,4.0,13.0,17.0,16.0312195418814,{}
393,574,4.123105625617661,40.311288741492746,4.0,4.123105625617661,12.16552506059644,13.152946437965904,12.041594578792296,24.186773244895647,20.09975124224178,18.0,20.0,15.0,5.5,6.5,2.5,3.5,3.1622776601683795,3.0,3.0,13.0,17.0,15.033296378372908,{}
394,575,4.0,40.44749683231337,3.1622776601683795,4.123105625617661,12.16552506059644,12.16552506059644,12.041594578792296,23.194827009486403,19.1049731745428,17.0,21.0,15.0,6.0,5.0,2.0,5.0,3.1622776601683795,3.0,3.5,14.0,16.0,15.132745950421556,{}
395,576,5.0990195135927845,39.45883931389772,3.0,4.123105625617661,12.36931687685298,13.152946437965904,12.041594578792296,24.186773244895647,20.09975124224178,17.5,21.0,15.0,6.0,6.0,2.0,5.0,4.0,3.1622776601683795,3.0,14.0,17.0,15.033296378372908,{}
396,577,4.123105625617661,38.47076812334269,3.1622776601683795,4.123105625617661,13.152946437965904,13.152946437965904,12.0,23.194827009486403,19.1049731745428,17.0,21.0,15.0,6.0,5.0,2.0,5.0,4.123105625617661,3.0,3.5,13.0,17.0,14.0356688476182,{}
397,578,3.1622776601683795,39.6232255123179,3.1622776601683795,4.123105625617661,13.341664064126334,13.152946437965904,12.0,22.20360331117452,18.110770276274835,16.5,22.0,15.0,6.5,3.5,0.5,5.5,4.0,3.1622776601683795,3.5,13.0,16.0,15.033296378372908,{}
398,579,1.0,40.44749683231337,4.0,5.0990195135927845,12.16552506059644,12.041594578792296,11.0,20.09975124224178,15.033296378372908,15.0,20.0,14.0,6.0,3.0,2.0,4.0,3.0,3.0,3.0,13.0,17.0,15.033296378372908,{}
399,580,1.0,39.6232255123179,4.123105625617661,5.0990195135927845,12.16552506059644,12.16552506059644,11.0,20.223748416156685,15.132745950421556,15.0,20.0,13.0,5.5,3.5,1.5,2.5,4.123105625617661,3.0,3.0,13.0,16.0,15.132745950421556,{}
400,581,2.0,38.63935817272331,2.0,4.123105625617661,12.16552506059644,13.152946437965904,12.0,18.24828759089466,14.142135623730953,14.0,20.0,13.0,4.5,1.5,2.5,3.5,3.1622776601683795,3.0,3.0,12.0,16.0,15.033296378372908,{}
401,582,1.4142135623730951,39.45883931389772,3.0,4.123105625617661,12.16552506059644,12.16552506059644,12.16552506059644,20.39607805437113,16.278820596099706,15.5,21.0,15.0,6.0,2.0,2.0,4.0,4.123105625617661,3.1622776601683795,3.5,13.0,17.0,16.1245154965971,{}
402,583,4.123105625617661,41.43669871020132,2.23606797749979,3.0,13.152946437965904,13.038404810405298,12.041594578792296,21.213203435596427,18.24828759089466,16.0,21.0,15.0,6.0,3.0,0.0,5.0,3.1622776601683795,3.1622776601683795,2.5,13.0,17.0,14.0356688476182,{}
403,584,6.082762530298219,40.44749683231337,3.1622776601683795,5.0,13.038404810405298,13.038404810405298,10.04987562112089,24.186773244895647,19.235384061671343,16.0,21.0,15.0,8.0,6.0,2.0,5.0,4.0,3.1622776601683795,3.0,12.0,16.0,14.142135623730953,{}
404,585,5.0990195135927845,41.30375285612676,4.0,4.123105625617661,13.152946437965904,13.038404810405298,10.04987562112089,23.194827009486403,19.1049731745428,16.5,20.0,15.0,7.5,5.5,1.5,4.5,2.23606797749979,3.0,2.5,13.0,17.0,15.033296378372908,{}
405,586,2.23606797749979,41.30375285612676,4.0,5.0990195135927845,13.038404810405298,13.152946437965904,11.04536101718726,22.20360331117452,17.11724276862369,16.0,20.0,15.0,6.5,4.5,0.5,3.5,1.0,2.0,1.5,12.0,16.0,15.033296378372908,{}
406,587,1.0,39.45883931389772,4.0,5.0990195135927845,12.16552506059644,13.038404810405298,11.04536101718726,20.223748416156685,15.132745950421556,15.0,19.0,13.0,5.0,4.0,1.0,3.0,3.0,2.0,2.0,12.0,16.0,15.132745950421556,{}
407,588,1.4142135623730951,40.60788100849391,2.0,4.123105625617661,12.16552506059644,13.152946437965904,11.04536101718726,18.24828759089466,14.142135623730953,13.5,19.0,12.0,4.5,2.5,1.5,3.5,3.1622776601683795,2.0,2.0,12.0,16.0,14.0356688476182,{}
408,589,1.4142135623730951,37.48332962798263,3.0,5.0990195135927845,12.16552506059644,13.152946437965904,11.04536101718726,20.223748416156685,15.132745950421556,14.5,20.0,14.0,6.0,3.0,2.0,4.0,2.23606797749979,2.0,2.5,12.0,15.0,16.1245154965971,{}
409,590,1.4142135623730951,40.44749683231337,3.0,4.123105625617661,13.152946437965904,13.152946437965904,11.04536101718726,19.235384061671343,15.132745950421556,14.5,20.0,14.0,6.0,2.0,2.0,5.0,3.0,3.0,3.0,12.0,16.0,16.0312195418814,{}
410,591,4.123105625617661,39.319206502675,4.0,5.0,12.041594578792296,13.152946437965904,10.198039027185567,23.194827009486403,18.24828759089466,16.0,21.0,16.0,8.5,4.5,0.5,5.5,3.1622776601683795,3.0,3.5,12.0,16.0,16.1245154965971,{}
411,592,3.1622776601683795,40.44749683231337,4.0,6.082762530298219,12.16552506059644,13.152946437965904,10.198039027185567,23.345235059857504,17.26267650163207,15.5,22.0,16.0,9.0,4.0,1.0,6.0,4.0,3.1622776601683795,3.5,13.0,17.0,16.1245154965971,{}
412,593,3.1622776601683795,40.44749683231337,2.23606797749979,4.123105625617661,13.152946437965904,13.152946437965904,11.0,20.223748416156685,16.1245154965971,14.5,20.0,14.0,6.0,3.0,1.0,5.0,4.123105625617661,3.1622776601683795,3.0,12.0,17.0,16.1245154965971,{}
413,594,4.123105625617661,40.44749683231337,3.0,5.0990195135927845,13.152946437965904,14.142135623730953,10.04987562112089,22.20360331117452,17.11724276862369,15.0,21.0,15.0,8.0,4.0,1.0,6.0,4.0,4.123105625617661,4.0,12.0,18.0,16.1245154965971,{}
414,595,4.123105625617661,40.44749683231337,3.0,5.385164807134504,12.16552506059644,12.16552506059644,11.0,23.194827009486403,18.027756377319943,16.0,21.0,15.0,7.0,5.0,0.0,5.0,4.0,4.123105625617661,4.0,12.0,17.0,15.132745950421556,{}
415,596,5.0990195135927845,37.65634076752546,4.0,6.082762530298219,12.36931687685298,12.16552506059644,9.055385138137416,24.186773244895647,18.110770276274835,15.5,21.0,14.0,8.5,6.5,1.5,5.5,4.123105625617661,4.0,4.5,12.0,18.0,16.1245154965971,{}
416,597,5.0990195135927845,41.43669871020132,4.0,5.0990195135927845,12.16552506059644,13.038404810405298,9.055385138137416,23.194827009486403,18.110770276274835,15.5,21.0,15.0,9.0,5.0,1.0,6.0,4.123105625617661,4.123105625617661,4.0,13.0,18.0,16.1245154965971,{}
417,598,5.0990195135927845,40.44749683231337,2.0,3.1622776601683795,12.16552506059644,13.152946437965904,11.04536101718726,21.213203435596427,18.110770276274835,15.5,21.0,15.0,7.0,3.0,0.0,6.0,5.0,4.123105625617661,4.5,12.0,17.0,15.132745950421556,{}
418,599,1.0,39.45883931389772,3.1622776601683795,4.123105625617661,11.180339887498947,11.180339887498947,11.0,19.1049731745428,15.033296378372908,14.5,20.0,14.0,6.0,2.0,2.0,4.0,4.123105625617661,4.123105625617661,4.0,12.0,17.0,15.132745950421556,{}
419,600,1.0,38.63935817272331,3.0,4.123105625617661,12.16552506059644,13.152946437965904,12.041594578792296,19.235384061671343,15.132745950421556,15.0,21.0,14.0,5.5,1.5,2.5,4.5,4.123105625617661,4.0,4.0,11.0,16.0,16.1245154965971,{}
420,601,0.0,37.65634076752546,3.1622776601683795,5.0990195135927845,12.16552506059644,12.16552506059644,12.041594578792296,20.223748416156685,15.132745950421556,15.0,22.0,15.0,6.5,1.5,2.5,5.5,4.123105625617661,5.0,4.5,12.0,17.0,15.132745950421556,{}
421,602,1.0,39.45883931389772,4.123105625617661,4.123105625617661,12.16552506059644,12.16552506059644,11.0,20.09975124224178,16.0312195418814,15.5,21.0,15.0,7.0,2.0,2.0,5.0,4.0,4.0,4.0,12.0,17.0,17.11724276862369,{}
422,603,0.0,35.510561809129406,3.1622776601683795,5.0990195135927845,11.180339887498947,12.36931687685298,12.0,20.09975124224178,15.033296378372908,15.0,20.0,14.0,5.0,3.0,2.0,3.0,4.123105625617661,4.123105625617661,3.5,12.0,17.0,16.1245154965971,{}
423,604,1.4142135623730951,37.33630940518894,3.0,5.0,12.16552506059644,12.16552506059644,12.041594578792296,21.095023109728988,16.1245154965971,15.5,20.0,15.0,5.5,3.5,1.5,3.5,3.1622776601683795,4.0,4.0,13.0,18.0,16.278820596099706,{}
424,605,0.0,36.345563690772494,4.123105625617661,5.0990195135927845,11.180339887498947,11.180339887498947,11.0,20.09975124224178,15.033296378372908,15.0,18.0,13.0,4.5,4.5,0.5,1.5,4.0,4.123105625617661,4.5,12.0,17.0,16.1245154965971,{}
425,606,1.4142135623730951,36.6742416417845,3.1622776601683795,6.082762530298219,11.180339887498947,12.16552506059644,13.0,21.213203435596427,15.132745950421556,15.5,22.0,15.0,5.5,2.5,2.5,4.5,3.1622776601683795,4.123105625617661,4.0,11.0,16.0,16.1245154965971,{}
426,607,4.123105625617661,37.48332962798263,2.0,5.0990195135927845,12.16552506059644,12.16552506059644,12.041594578792296,23.194827009486403,18.110770276274835,16.0,21.0,15.0,6.0,5.0,1.0,5.0,4.123105625617661,4.0,4.0,12.0,18.0,16.1245154965971,{}
427,608,6.082762530298219,37.65634076752546,2.23606797749979,5.0990195135927845,12.16552506059644,13.038404810405298,12.041594578792296,25.317977802344327,20.223748416156685,17.0,22.0,15.0,6.5,6.5,1.5,5.5,4.0,3.1622776601683795,3.5,12.0,18.0,14.142135623730953,{}
428,609,4.123105625617661,38.47076812334269,2.23606797749979,5.0990195135927845,12.16552506059644,13.152946437965904,11.04536101718726,22.36067977499789,17.26267650163207,15.0,20.0,14.0,6.0,5.0,1.0,5.0,4.123105625617661,4.0,4.0,12.0,18.0,16.278820596099706,{}
429,610,4.47213595499958,39.6232255123179,3.0,6.082762530298219,12.16552506059644,13.152946437965904,10.198039027185567,23.53720459187964,17.46424919657298,15.0,20.0,13.0,6.5,6.5,1.5,4.5,3.1622776601683795,3.1622776601683795,3.0,11.0,17.0,15.132745950421556,{}
430,611,4.123105625617661,39.319206502675,3.0,6.082762530298219,11.40175425099138,12.16552506059644,12.0,25.079872407968907,19.026297590440446,17.0,18.0,13.0,3.5,9.5,4.5,2.5,4.0,4.123105625617661,4.0,11.0,18.0,16.278820596099706,{}
431,612,4.123105625617661,39.319206502675,3.0,6.082762530298219,12.16552506059644,13.152946437965904,12.041594578792296,25.179356624028344,19.1049731745428,17.0,18.0,13.0,3.5,9.5,4.5,2.5,4.0,4.123105625617661,4.0,10.0,18.0,16.278820596099706,{}
432,613,4.123105625617661,36.6742416417845,3.0,4.123105625617661,11.180339887498947,12.16552506059644,11.04536101718726,22.20360331117452,18.110770276274835,16.0,19.0,12.0,4.5,6.5,2.5,3.5,4.123105625617661,3.1622776601683795,3.0,12.0,19.0,16.278820596099706,{}
433,614,3.0,39.45883931389772,4.123105625617661,5.0990195135927845,11.180339887498947,12.36931687685298,11.0,23.08679276123039,18.027756377319943,16.5,18.0,12.0,4.0,8.0,3.0,2.0,3.0,3.1622776601683795,3.0,11.0,18.0,16.1245154965971,{}
434,615,1.0,38.47076812334269,4.0,6.082762530298219,12.041594578792296,11.180339887498947,12.041594578792296,22.20360331117452,16.1245154965971,16.0,18.0,12.0,3.0,7.0,1.0,0.0,4.0,4.123105625617661,4.0,11.0,18.0,16.278820596099706,{}
435,616,0.0,37.48332962798263,3.1622776601683795,3.1622776601683795,11.180339887498947,11.180339887498947,12.0,18.110770276274835,15.033296378372908,15.0,18.0,12.0,3.0,3.0,0.0,1.0,4.123105625617661,3.1622776601683795,3.0,10.0,18.0,14.317821063276352,{}
436,617,0.0,40.60788100849391,3.1622776601683795,5.0990195135927845,11.40175425099138,12.36931687685298,13.0,21.095023109728988,16.0312195418814,16.0,20.0,13.0,3.5,4.5,0.5,2.5,3.0,4.123105625617661,4.0,10.0,17.0,16.1245154965971,{}
437,618,2.23606797749979,37.33630940518894,5.0,6.082762530298219,11.04536101718726,12.16552506059644,10.04987562112089,23.194827009486403,17.11724276862369,16.0,18.0,13.0,5.5,7.5,1.5,1.5,3.1622776601683795,3.1622776601683795,3.5,11.0,19.0,16.278820596099706,{}
438,619,3.1622776601683795,37.48332962798263,3.0,4.123105625617661,12.16552506059644,12.16552506059644,12.16552506059644,22.36067977499789,18.24828759089466,16.5,20.0,14.0,5.0,5.0,1.0,3.0,4.0,3.1622776601683795,3.5,11.0,18.0,15.132745950421556,{}
439,620,5.0,38.47076812334269,3.1622776601683795,5.0990195135927845,12.16552506059644,12.36931687685298,11.04536101718726,24.186773244895647,19.1049731745428,16.5,18.0,12.0,4.0,9.0,4.0,2.0,4.123105625617661,4.123105625617661,4.0,12.0,19.0,16.278820596099706,{}
440,621,3.1622776601683795,38.63935817272331,3.0,5.0990195135927845,12.36931687685298,12.36931687685298,11.180339887498947,22.36067977499789,17.26267650163207,15.5,19.0,12.0,4.5,6.5,2.5,3.5,4.123105625617661,3.1622776601683795,3.5,11.0,17.0,16.1245154965971,{}
441,622,3.1622776601683795,39.81205847478876,3.1622776601683795,5.0990195135927845,13.341664064126334,12.36931687685298,11.04536101718726,22.36067977499789,17.26267650163207,15.5,21.0,13.0,6.0,5.0,1.0,5.0,4.123105625617661,4.123105625617661,4.0,11.0,18.0,16.278820596099706,{}
442,623,1.0,37.8549864614954,3.0,4.47213595499958,11.180339887498947,11.180339887498947,11.04536101718726,18.43908891458577,14.142135623730953,14.0,20.0,12.0,5.0,2.0,2.0,3.0,4.123105625617661,4.123105625617661,4.0,11.0,17.0,15.297058540778355,{}
443,624,0.0,41.30375285612676,4.123105625617661,5.0990195135927845,11.180339887498947,12.36931687685298,10.0,19.1049731745428,14.0356688476182,14.0,15.0,10.0,2.5,6.5,2.5,0.5,4.0,4.0,4.0,11.0,18.0,16.278820596099706,{}
444,625,0.0,41.30375285612676,4.123105625617661,5.0990195135927845,11.180339887498947,12.36931687685298,10.0,19.1049731745428,14.0356688476182,14.0,15.0,10.0,2.5,6.5,2.5,0.5,5.0,5.0990195135927845,5.0,11.0,18.0,16.278820596099706,{}
445,626,1.0,41.43669871020132,4.123105625617661,5.0990195135927845,11.40175425099138,11.40175425099138,10.0,18.110770276274835,13.038404810405298,13.5,16.0,10.0,3.0,5.0,1.0,1.0,4.0,4.123105625617661,4.0,11.0,18.0,16.278820596099706,{}
446,627,1.4142135623730951,40.024992192379,3.1622776601683795,4.123105625617661,12.16552506059644,12.36931687685298,11.04536101718726,17.46424919657298,13.341664064126334,13.5,19.0,10.0,3.5,2.5,0.5,1.5,4.0,4.123105625617661,4.0,10.0,16.0,15.132745950421556,{}
447,628,1.0,39.319206502675,3.0,4.123105625617661,11.180339887498947,11.180339887498947,11.04536101718726,18.24828759089466,14.142135623730953,14.0,15.0,10.0,1.5,5.5,2.5,0.5,4.0,4.123105625617661,4.0,11.0,18.0,16.278820596099706,{}
448,629,1.4142135623730951,39.81205847478876,3.1622776601683795,4.123105625617661,12.16552506059644,12.36931687685298,11.04536101718726,17.46424919657298,13.341664064126334,13.5,19.0,11.0,4.0,2.0,1.0,2.0,4.123105625617661,3.1622776601683795,3.5,11.0,17.0,16.1245154965971,{}
449,630,1.4142135623730951,39.81205847478876,3.1622776601683795,4.123105625617661,11.40175425099138,12.36931687685298,10.04987562112089,16.492422502470642,12.36931687685298,12.5,18.0,10.0,4.0,2.0,1.0,3.0,4.123105625617661,4.123105625617661,4.0,11.0,17.0,14.142135623730953,{}
450,631,1.4142135623730951,38.8329756778952,3.1622776601683795,4.123105625617661,12.36931687685298,12.16552506059644,11.04536101718726,17.46424919657298,13.341664064126334,13.5,19.0,11.0,4.0,2.0,1.0,3.0,4.0,4.123105625617661,4.0,11.0,17.0,16.1245154965971,{}
451,632,1.4142135623730951,39.81205847478876,3.0,4.123105625617661,12.36931687685298,12.36931687685298,10.04987562112089,16.278820596099706,12.16552506059644,12.5,18.0,10.0,4.0,2.0,1.0,3.0,4.123105625617661,4.123105625617661,4.0,11.0,17.0,15.132745950421556,{}
452,633,1.0,39.81205847478876,4.123105625617661,5.0990195135927845,11.40175425099138,12.36931687685298,9.055385138137416,17.26267650163207,12.16552506059644,12.5,18.0,10.0,5.0,3.0,1.0,3.0,4.123105625617661,4.0,4.0,11.0,17.0,16.1245154965971,{}
453,634,1.4142135623730951,40.024992192379,4.0,5.385164807134504,13.341664064126334,13.341664064126334,9.219544457292889,17.72004514666935,12.36931687685298,12.5,19.0,10.0,5.5,2.5,1.5,3.5,4.123105625617661,3.1622776601683795,3.0,11.0,17.0,17.26267650163207,{}
454,635,1.4142135623730951,39.81205847478876,5.0,5.0990195135927845,12.16552506059644,12.36931687685298,9.055385138137416,18.24828759089466,13.152946437965904,13.5,18.0,10.0,5.0,4.0,1.0,2.0,3.0,4.123105625617661,4.0,12.0,18.0,16.1245154965971,{}
455,636,1.0,41.30375285612676,3.1622776601683795,3.1622776601683795,11.180339887498947,11.180339887498947,11.0,16.1245154965971,13.038404810405298,13.5,15.0,10.0,1.5,3.5,1.5,0.5,4.123105625617661,5.0990195135927845,5.0,11.0,18.0,17.26267650163207,{}
456,637,1.4142135623730951,40.44749683231337,4.0,5.0,12.16552506059644,12.36931687685298,10.04987562112089,20.09975124224178,15.132745950421556,14.5,16.0,10.0,3.0,7.0,3.0,0.0,4.0,4.0,4.0,12.0,18.0,16.278820596099706,{}
457,638,1.0,41.30375285612676,4.0,5.0990195135927845,11.04536101718726,12.36931687685298,9.0,19.026297590440446,14.0,13.5,13.0,8.0,1.5,8.5,3.5,1.5,4.123105625617661,4.123105625617661,4.0,11.0,18.0,16.1245154965971,{}
458,639,1.0,39.81205847478876,4.123105625617661,6.082762530298219,12.16552506059644,12.16552506059644,10.04987562112089,20.39607805437113,14.317821063276352,14.0,18.0,10.0,4.0,6.0,1.0,2.0,4.123105625617661,3.1622776601683795,3.5,10.0,17.0,16.1245154965971,{}
459,640,0.0,41.30375285612676,4.0,6.082762530298219,10.04987562112089,10.198039027185567,11.04536101718726,21.095023109728988,15.033296378372908,15.0,16.0,11.0,2.5,7.5,2.5,0.5,4.0,3.0,3.5,11.0,17.0,17.11724276862369,{}
460,641,2.23606797749979,42.579337712087536,4.0,6.082762530298219,12.041594578792296,12.16552506059644,10.198039027185567,22.36067977499789,16.278820596099706,15.0,18.0,11.0,4.5,7.5,2.5,1.5,5.0990195135927845,5.0990195135927845,5.0,9.0,17.0,17.11724276862369,{}
461,1294,5.0,35.0142828000232,3.0,6.0,10.04987562112089,11.0,10.04987562112089,24.020824298928627,18.027756377319943,15.5,12.0,13.0,2.5,11.5,4.5,0.5,2.0,3.0,3.0,15.0,14.0,12.041594578792296,{}
462,1295,3.0,33.06055050963308,3.0,7.0,9.055385138137416,10.04987562112089,12.041594578792296,25.019992006393608,18.027756377319943,16.5,15.0,13.0,2.0,11.0,4.0,0.0,2.0,2.0,2.5,16.0,17.0,14.0356688476182,{}
463,1296,1.4142135623730951,35.35533905932738,4.0,6.0,10.04987562112089,10.198039027185567,12.0,23.021728866442675,17.029386365926403,16.5,19.0,14.0,4.5,6.5,0.5,1.5,3.0,3.1622776601683795,3.0,16.0,18.0,16.0312195418814,{}
464,1297,1.0,35.35533905932738,3.0,6.082762530298219,10.04987562112089,11.04536101718726,13.0,23.021728866442675,17.0,16.5,19.0,14.0,3.5,6.5,0.5,1.5,2.0,2.0,2.5,17.0,19.0,16.0,{}
465,1298,1.0,35.12833614050059,4.0,7.0,9.055385138137416,10.04987562112089,12.0,24.0,17.0,16.5,18.0,15.0,4.5,7.5,1.5,1.5,1.0,1.0,1.0,18.0,18.0,15.033296378372908,{}
466,1299,1.0,35.05709628591621,3.0,8.0,10.04987562112089,11.04536101718726,13.0,25.0,17.0,16.5,17.0,15.0,3.0,9.0,1.0,1.0,1.0,2.0,2.0,19.0,18.0,14.0356688476182,{}
467,1300,1.0,33.0,3.0,7.0,10.04987562112089,11.04536101718726,12.041594578792296,23.021728866442675,16.0312195418814,15.5,15.0,15.0,3.0,8.0,1.0,1.0,1.4142135623730951,2.0,1.5,18.0,15.0,14.0356688476182,{}
468,1301,0.0,36.22154055254967,4.0,8.0,11.04536101718726,12.16552506059644,12.041594578792296,24.020824298928627,16.0312195418814,16.0,19.0,15.0,5.0,7.0,1.0,2.0,2.0,1.0,1.0,19.0,18.0,17.0,{}
469,1302,2.0,36.12478373637688,3.0,7.0,11.04536101718726,12.041594578792296,12.0,24.0,17.0,16.0,18.0,15.0,4.5,7.5,0.5,2.5,2.0,1.0,1.0,21.0,20.0,19.026297590440446,{}
470,1303,0.0,38.01315561749642,4.0,7.071067811865476,11.04536101718726,12.041594578792296,12.041594578792296,23.08679276123039,16.0312195418814,16.0,16.0,15.0,3.5,7.5,0.5,0.5,2.0,2.23606797749979,2.0,20.0,18.0,19.026297590440446,{}
471,1304,0.0,38.05259518088089,4.0,7.071067811865476,11.04536101718726,12.041594578792296,11.0,22.02271554554524,15.0,15.0,17.0,15.0,5.0,6.0,1.0,2.0,1.0,2.0,2.0,20.0,18.0,18.027756377319943,{}
472,1305,1.0,37.0,5.0,8.0,10.04987562112089,11.04536101718726,11.0,24.020824298928627,16.0312195418814,16.0,15.0,15.0,4.0,9.0,1.0,0.0,2.0,1.0,1.5,20.0,18.0,18.027756377319943,{}
473,1306,0.0,36.05551275463989,4.0,7.071067811865476,10.0,11.04536101718726,13.0,24.020824298928627,17.0,17.0,18.0,16.0,4.0,7.0,0.0,1.0,1.0,1.0,1.0,22.0,20.0,18.0,{}
474,1307,1.0,38.0,3.0,8.06225774829855,11.0,12.041594578792296,13.038404810405298,25.079872407968907,17.029386365926403,16.5,15.0,15.0,2.0,10.0,2.0,1.0,1.0,1.0,1.5,21.0,19.0,17.029386365926403,{}
475,1308,0.0,38.05259518088089,5.0,9.055385138137416,11.04536101718726,12.041594578792296,11.0,25.019992006393608,16.0,16.0,16.0,14.0,4.0,10.0,1.0,0.0,2.0,2.0,2.0,21.0,19.0,17.029386365926403,{}
476,1309,1.0,35.0142828000232,6.0,8.0,10.04987562112089,11.04536101718726,10.04987562112089,25.019992006393608,17.029386365926403,16.5,16.0,15.0,5.5,9.5,1.5,0.5,2.23606797749979,2.0,2.0,20.0,19.0,18.027756377319943,{}
477,1310,0.0,37.05401462729781,5.0990195135927845,8.0,10.04987562112089,11.04536101718726,11.0,24.020824298928627,16.0312195418814,16.0,16.0,14.0,4.0,9.0,1.0,0.0,4.0,4.0,4.0,19.0,18.0,18.027756377319943,{}
478,1311,0.0,36.12478373637688,4.0,7.0,10.04987562112089,11.180339887498947,12.041594578792296,23.021728866442675,16.0312195418814,16.0,16.0,13.0,2.5,8.5,1.5,0.5,1.0,1.0,1.5,19.0,19.0,19.0,{}
479,1312,0.0,37.33630940518894,3.0,6.082762530298219,11.180339887498947,12.16552506059644,13.0,22.02271554554524,16.0,16.0,20.0,15.0,4.5,4.5,0.5,2.5,3.0,2.0,2.0,19.0,18.0,18.027756377319943,{}
480,1313,0.0,36.12478373637688,4.0,7.0,9.219544457292889,11.180339887498947,12.041594578792296,23.021728866442675,16.0312195418814,16.0,17.0,14.0,3.5,7.5,1.5,0.5,2.0,2.0,2.0,19.0,19.0,18.0,{}
481,1314,0.0,34.132096331752024,4.0,8.0,9.055385138137416,10.198039027185567,11.0,23.0,15.0,15.0,16.0,13.0,3.5,8.5,1.5,0.5,2.0,2.0,2.5,19.0,19.0,17.0,{}
482,1315,1.0,36.12478373637688,3.0,7.0,11.04536101718726,11.180339887498947,12.0,22.02271554554524,15.033296378372908,15.0,16.0,13.0,2.5,7.5,0.5,0.5,2.0,3.1622776601683795,3.0,18.0,19.0,18.0,{}
483,1316,1.0,36.22154055254967,4.0,7.0,11.180339887498947,12.16552506059644,12.041594578792296,22.02271554554524,15.033296378372908,15.5,17.0,13.0,3.0,7.0,1.0,1.0,3.0,3.0,3.0,19.0,19.0,17.0,{}
484,1317,0.0,36.22154055254967,3.0,7.071067811865476,11.04536101718726,11.180339887498947,13.038404810405298,23.08679276123039,16.0312195418814,16.0,18.0,14.0,3.0,7.0,1.0,1.0,3.0,2.0,2.5,19.0,19.0,17.0,{}
485,1318,2.23606797749979,36.12478373637688,4.0,8.0,10.04987562112089,11.180339887498947,12.0,26.019223662515376,18.027756377319943,17.0,17.0,14.0,3.5,10.5,2.5,0.5,4.0,3.0,3.0,19.0,20.0,17.0,{}
486,1319,2.0,39.319206502675,3.0,7.071067811865476,11.04536101718726,12.041594578792296,13.038404810405298,25.079872407968907,18.027756377319943,17.0,19.0,14.0,3.5,8.5,1.5,1.5,3.0,3.1622776601683795,3.0,18.0,19.0,17.0,{}
487,1320,1.0,36.22154055254967,5.0,7.0,9.219544457292889,10.198039027185567,11.04536101718726,24.020824298928627,17.029386365926403,16.5,17.0,13.0,4.0,9.0,2.0,1.0,3.0,3.0,3.0,19.0,19.0,17.029386365926403,{}
488,1321,0.0,36.12478373637688,4.0,6.082762530298219,9.055385138137416,10.198039027185567,12.041594578792296,22.0,16.0312195418814,16.0,16.0,13.0,2.5,7.5,1.5,0.5,3.0,3.0,3.0,19.0,19.0,17.0,{}
489,1322,2.0,39.20459156782532,3.0,6.0,11.04536101718726,12.041594578792296,13.038404810405298,20.024984394500787,14.0356688476182,15.0,17.0,13.0,2.0,5.0,0.0,0.0,3.0,3.1622776601683795,3.0,19.0,17.0,17.11724276862369,{}
490,1323,1.0,45.0,4.0,6.0,11.04536101718726,12.041594578792296,10.04987562112089,20.09975124224178,14.142135623730953,14.0,11.0,11.0,1.0,9.0,3.0,2.0,3.1622776601683795,3.0,2.5,21.0,19.0,18.027756377319943,{}
491,1324,1.0,43.0,3.0,5.0,11.04536101718726,12.041594578792296,10.04987562112089,18.110770276274835,13.152946437965904,13.0,10.0,10.0,0.0,8.0,3.0,2.0,2.0,2.0,2.0,21.0,19.0,18.027756377319943,{}
492,1325,1.4142135623730951,40.0,3.0,6.0,11.04536101718726,12.041594578792296,11.0,19.026297590440446,13.038404810405298,13.5,11.0,11.0,0.0,8.0,2.0,2.0,5.0990195135927845,5.0,5.0,19.0,17.0,18.110770276274835,{}
493,1326,2.0,40.11234224026316,5.0,7.071067811865476,12.041594578792296,13.038404810405298,10.04987562112089,20.09975124224178,13.038404810405298,14.0,16.0,13.0,4.5,5.5,0.5,0.5,4.0,5.0,4.5,20.0,18.0,17.029386365926403,{}
494,1327,2.0,42.190046219457976,5.0,7.071067811865476,13.152946437965904,13.038404810405298,10.0,20.024984394500787,13.0,14.0,16.0,12.0,4.0,6.0,0.0,1.0,3.0,3.0,3.0,19.0,17.0,19.1049731745428,{}
495,1328,1.4142135623730951,39.20459156782532,5.0,6.0,12.16552506059644,12.16552506059644,11.0,21.02379604162864,15.033296378372908,15.5,17.0,13.0,4.0,6.0,0.0,1.0,4.0,3.0,3.0,20.0,18.0,18.110770276274835,{}
496,1329,0.0,41.0,4.0,7.071067811865476,11.04536101718726,11.04536101718726,12.041594578792296,23.0,16.0312195418814,16.0,13.0,13.0,1.0,10.0,3.0,2.0,3.0,3.0,3.0,20.0,19.0,19.026297590440446,{}
497,1330,3.0,42.01190307520001,3.0,6.0,12.041594578792296,13.038404810405298,12.0,24.0,18.0,16.5,14.0,13.0,1.5,10.5,4.5,0.5,4.0,4.0,4.0,19.0,18.0,18.027756377319943,{}
498,1331,6.0,47.042533945356304,3.0,6.082762530298219,14.0,14.0,11.04536101718726,26.0768096208106,20.024984394500787,17.0,11.0,13.0,1.0,14.0,7.0,1.0,3.1622776601683795,3.0,3.0,18.0,17.0,19.0,{}
499,1332,7.0,48.010415536631214,3.0,6.0,14.0356688476182,15.0,11.04536101718726,27.018512172212592,21.02379604162864,17.5,11.0,12.0,0.5,15.5,8.5,1.5,5.0,5.0,4.5,17.0,16.0,18.0,{}
500,1333,5.0,42.01190307520001,5.0,6.0,13.0,14.0356688476182,11.0,27.0,21.0,18.5,14.0,13.0,2.5,13.5,6.5,1.5,4.0,3.1622776601683795,3.5,19.0,19.0,19.0,{}
501,1334,5.0,41.04875150354759,5.0,6.082762530298219,12.041594578792296,13.038404810405298,11.0,27.018512172212592,21.0,18.5,16.0,14.0,4.0,12.0,5.0,0.0,4.0,4.0,3.5,19.0,20.0,18.0,{}
502,1335,6.0,43.04648650006177,4.0,7.0,13.038404810405298,13.038404810405298,12.041594578792296,29.017236257093817,22.02271554554524,19.0,16.0,14.0,3.0,14.0,7.0,0.0,3.0,3.1622776601683795,3.5,19.0,20.0,19.0,{}
503,1336,7.071067811865476,42.01190307520001,4.0,6.0,12.0,13.038404810405298,11.0,28.0178514522438,22.02271554554524,18.5,15.0,14.0,3.5,13.5,6.5,0.5,3.1622776601683795,3.0,2.5,17.0,19.0,18.0,{}
504,1337,7.071067811865476,46.01086828130936,4.0,5.0,14.0,15.033296378372908,9.055385138137416,25.079872407968907,20.09975124224178,16.5,11.0,12.0,2.5,13.5,7.5,0.5,2.0,1.0,1.5,18.0,20.0,19.0,{}
505,1338,4.0,45.0111097397076,2.0,5.0,13.038404810405298,13.038404810405298,11.180339887498947,22.09072203437452,17.11724276862369,15.0,11.0,12.0,0.5,10.5,5.5,0.5,1.0,1.0,1.0,17.0,20.0,18.110770276274835,{}
506,1339,0.0,38.11823710509184,3.0,6.0,11.04536101718726,10.198039027185567,13.0,22.0,16.0,16.0,16.0,13.0,1.5,7.5,2.5,0.5,2.0,1.4142135623730951,1.5,16.0,21.0,17.029386365926403,{}
