,video_id,frame_seq,gap,time_seconds,m1,m3,m4,m5,m6,m7,m8,m9,m10,m11,m12,m13,m14,m15,m16,m17,e1,e2,e3,b1,b2,b3
0,51,193,1,6.4397666666666735,4.0,38.05259518088089,5.0,7.0,10.0,11.0,11.045361017187261,27.018512172212592,20.024984394500787,18.0,18.0,16.0,6.0,10.0,2.0,2.0,5.0,5.0,4.5,15.0,16.0,15.0
1,51,194,0,6.47313333333334,3.0,39.20459156782532,4.123105625617661,7.0,11.045361017187261,11.045361017187261,11.0,25.019992006393608,18.027756377319946,16.5,18.0,14.0,5.0,9.0,2.0,2.0,5.0,5.0,4.5,14.0,16.0,15.033296378372908
2,51,195,0,6.506500000000007,2.23606797749979,38.118237105091836,4.0,7.0,10.04987562112089,11.045361017187261,11.0,24.020824298928627,17.029386365926403,16.0,18.0,15.0,5.5,7.5,0.5,2.5,3.0,3.0,3.0,15.0,17.0,17.029386365926403
3,51,196,0,6.539866666666674,2.23606797749979,38.3275357934736,5.0,6.0,10.04987562112089,11.180339887498949,11.0,24.020824298928627,18.027756377319946,17.0,19.0,14.0,5.5,7.5,1.5,1.5,3.0,2.0,2.0,15.0,17.0,16.0
4,51,197,0,6.573233333333341,2.0,40.19950248448356,4.123105625617661,7.0,10.198039027185569,11.180339887498949,12.041594578792296,25.0,18.0,17.0,18.0,14.0,4.0,9.0,3.0,1.0,2.0,2.0,2.0,14.0,16.0,16.0
5,51,198,0,6.606600000000007,1.0,36.22154055254967,4.0,7.0710678118654755,9.219544457292887,11.180339887498949,12.0,24.020824298928627,17.0,16.5,18.0,14.0,4.0,8.0,2.0,1.0,2.0,3.0,2.5,15.0,17.0,17.029386365926403
6,51,199,0,6.639966666666674,0.0,37.33630940518894,4.123105625617661,6.082762530298219,11.180339887498949,11.180339887498949,13.0,23.08679276123039,17.029386365926403,17.0,20.0,15.0,4.5,5.5,0.5,2.5,2.0,2.0,2.0,16.0,17.0,16.0312195418814
7,51,200,0,6.673333333333341,3.1622776601683795,38.3275357934736,4.0,6.0,10.198039027185569,12.165525060596439,12.0,25.019992006393608,19.026297590440446,17.5,18.0,13.0,3.5,9.5,3.5,0.5,3.0,2.0,2.0,15.0,17.0,17.029386365926403
8,51,201,0,6.706700000000008,1.4142135623730951,38.47076812334269,4.0,6.082762530298219,12.165525060596439,13.038404810405298,12.041594578792296,23.194827009486403,17.11724276862369,16.5,20.0,14.0,5.0,6.0,0.0,3.0,4.123105625617661,3.0,3.0,14.0,16.0,17.0
9,51,202,0,6.740066666666674,2.23606797749979,36.49657518178932,3.0,5.0990195135927845,11.180339887498949,11.180339887498949,13.038404810405298,23.194827009486403,18.110770276274835,17.0,20.0,14.0,4.0,6.0,1.0,3.0,3.0,3.0,3.0,14.0,17.0,16.0312195418814
10,51,203,0,6.773433333333341,2.23606797749979,38.2099463490856,3.0,5.0,10.198039027185569,11.180339887498949,13.038404810405298,23.08679276123039,18.110770276274835,17.0,19.0,15.0,4.0,6.0,1.0,2.0,3.0,3.1622776601683795,3.0,14.0,16.0,15.0
11,51,204,0,6.806800000000008,1.0,38.47076812334269,3.0,6.082762530298219,12.165525060596439,11.180339887498949,13.038404810405298,22.20360331117452,16.1245154965971,16.0,20.0,14.0,4.0,5.0,0.0,2.0,2.23606797749979,2.23606797749979,2.5,14.0,16.0,17.029386365926403
12,51,205,0,6.840166666666675,1.0,37.656340767525464,3.0,4.123105625617661,12.165525060596439,12.165525060596439,13.038404810405298,20.223748416156685,16.1245154965971,16.0,21.0,14.0,4.5,2.5,1.5,3.5,2.23606797749979,1.0,1.0,14.0,17.0,17.029386365926403
13,51,206,0,6.8735333333333415,0.0,37.33630940518894,5.0990195135927845,6.082762530298219,10.198039027185569,11.180339887498949,12.0,23.08679276123039,17.029386365926403,17.0,18.0,13.0,3.5,7.5,1.5,0.5,6.0,7.0710678118654755,6.5,13.0,17.0,17.0
14,51,207,0,6.906900000000008,1.0,36.49657518178932,4.0,6.082762530298219,11.180339887498949,11.180339887498949,11.0,21.095023109728988,15.033296378372908,15.0,18.0,12.0,4.0,6.0,1.0,2.0,3.0,3.1622776601683795,2.5,15.0,19.0,17.11724276862369
15,51,208,0,6.940266666666675,0.0,36.49657518178932,3.0,5.0990195135927845,10.198039027185569,11.180339887498949,13.0,21.02379604162864,16.0,16.0,18.0,12.0,2.0,6.0,1.0,1.0,3.1622776601683795,2.23606797749979,2.5,14.0,18.0,19.1049731745428
16,51,209,0,6.973633333333342,1.0,37.33630940518894,3.0,6.082762530298219,12.165525060596439,12.36931687685298,11.0,20.09975124224178,14.035668847618199,14.0,16.0,11.0,2.5,6.5,1.5,0.5,4.0,3.1622776601683795,3.0,14.0,18.0,17.029386365926403
17,51,210,0,7.0070000000000086,1.0,38.3275357934736,3.1622776601683795,6.0,11.180339887498949,12.165525060596439,12.0,21.095023109728988,15.132745950421556,15.0,17.0,12.0,2.5,6.5,0.5,1.5,2.0,3.1622776601683795,2.5,14.0,18.0,18.110770276274835
18,51,211,0,7.040366666666675,1.4142135623730951,34.713109915419565,3.1622776601683795,5.0990195135927845,11.180339887498949,11.180339887498949,12.041594578792296,21.37755832643195,16.278820596099706,15.5,20.0,13.0,4.5,4.5,0.5,2.5,4.123105625617661,4.123105625617661,3.5,15.0,19.0,15.033296378372908
19,51,212,0,7.073733333333342,1.4142135623730951,35.6931365951495,2.0,5.0990195135927845,12.165525060596439,11.180339887498949,13.152946437965905,21.37755832643195,16.278820596099706,15.5,21.0,14.0,4.5,3.5,0.5,3.5,4.0,4.0,3.5,13.0,18.0,17.11724276862369
20,51,213,0,7.107100000000009,1.0,36.6742416417845,3.0,5.0990195135927845,11.180339887498949,11.40175425099138,12.165525060596439,21.213203435596427,16.1245154965971,15.5,21.0,14.0,5.5,3.5,1.5,3.5,4.0,4.123105625617661,4.0,13.0,18.0,16.1245154965971
21,51,214,0,7.140466666666676,0.0,37.33630940518894,3.0,5.0990195135927845,10.198039027185569,11.40175425099138,13.038404810405298,21.095023109728988,16.0312195418814,16.0,19.0,14.0,3.5,4.5,0.5,1.5,4.123105625617661,4.123105625617661,3.5,13.0,18.0,17.11724276862369
22,51,215,0,7.173833333333342,1.0,37.48332962798263,3.0,4.0,12.041594578792296,12.36931687685298,13.038404810405298,20.09975124224178,16.1245154965971,16.0,20.0,14.0,4.0,3.0,1.0,2.0,3.1622776601683795,3.0,3.5,14.0,18.0,18.110770276274835
23,51,216,0,7.207200000000009,1.0,38.47076812334269,3.0,5.0990195135927845,13.152946437965905,12.165525060596439,12.041594578792296,20.223748416156685,15.132745950421556,15.0,20.0,14.0,5.0,3.0,1.0,3.0,3.0,3.1622776601683795,3.0,13.0,17.0,15.033296378372908
24,51,217,0,7.240566666666676,4.123105625617661,39.45883931389772,2.23606797749979,4.0,13.152946437965905,13.152946437965905,12.041594578792296,22.20360331117452,18.24828759089466,16.0,20.0,14.0,5.0,5.0,1.0,4.0,3.0,3.0,3.0,14.0,17.0,17.029386365926403
25,51,218,0,7.273933333333343,4.123105625617661,38.3275357934736,3.0,4.123105625617661,12.165525060596439,12.165525060596439,11.045361017187261,22.20360331117452,18.110770276274835,16.0,20.0,15.0,6.5,4.5,0.5,4.5,4.123105625617661,4.0,4.0,14.0,18.0,15.033296378372908
26,51,219,0,7.3073000000000095,4.123105625617661,40.311288741492746,4.0,5.0990195135927845,12.165525060596439,12.165525060596439,10.04987562112089,23.194827009486403,18.110770276274835,16.0,20.0,15.0,7.5,5.5,0.5,4.5,4.123105625617661,4.0,4.0,13.0,17.0,16.1245154965971
27,51,220,0,7.340666666666676,3.0,40.607881008493905,3.1622776601683795,3.1622776601683795,12.165525060596439,12.165525060596439,12.041594578792296,21.213203435596427,18.110770276274835,16.5,21.0,14.0,5.5,3.5,0.5,4.5,3.0,3.0,3.5,13.0,16.0,17.029386365926403
28,51,221,0,7.374033333333343,3.1622776601683795,40.311288741492746,3.1622776601683795,4.0,13.152946437965905,14.142135623730951,12.0,22.090722034374522,18.110770276274835,16.5,20.0,15.0,5.5,4.5,0.5,4.5,4.0,5.0990195135927845,4.5,13.0,16.0,16.0312195418814
29,51,222,0,7.40740000000001,4.123105625617661,39.319206502675,3.0,4.0,12.041594578792296,12.165525060596439,12.041594578792296,23.08679276123039,19.1049731745428,17.0,20.0,15.0,5.5,5.5,1.5,3.5,4.0,3.0,3.5,14.0,17.0,15.033296378372908
30,51,223,0,7.440766666666676,5.0990195135927845,42.1070065428546,3.0,5.0,12.165525060596439,13.152946437965905,12.0,25.019992006393608,20.024984394500787,17.5,17.0,14.0,3.5,9.5,4.5,2.5,4.123105625617661,3.1622776601683795,3.5,13.0,17.0,16.0312195418814
31,51,224,0,7.474133333333343,3.0,38.05259518088089,4.0,5.0,11.045361017187261,12.041594578792296,11.0,23.0,18.0,16.5,16.0,14.0,4.0,8.0,3.0,1.0,5.0,4.123105625617661,4.5,15.0,18.0,16.0
32,51,225,0,7.50750000000001,0.0,35.12833614050059,4.0,5.0990195135927845,10.04987562112089,11.045361017187261,12.0,21.02379604162864,16.0,16.0,17.0,14.0,3.5,5.5,0.5,0.5,5.0990195135927845,4.0,4.5,13.0,16.0,18.027756377319946
33,51,226,0,7.540866666666677,1.0,38.05259518088089,5.0,6.082762530298219,10.04987562112089,11.180339887498949,10.04987562112089,22.0,16.0312195418814,15.5,16.0,14.0,5.0,7.0,1.0,0.0,5.0,5.0990195135927845,4.5,15.0,17.0,18.027756377319946
34,51,227,0,7.574233333333344,0.0,37.12142238654117,4.0,6.082762530298219,10.04987562112089,11.045361017187261,11.045361017187261,21.0,15.033296378372908,15.0,16.0,13.0,3.5,6.5,1.5,0.5,5.0,5.0990195135927845,5.0,13.0,17.0,17.029386365926403
35,51,228,0,7.60760000000001,0.0,37.21558813185679,4.123105625617661,6.082762530298219,11.045361017187261,12.165525060596439,12.0,22.090722034374522,16.0312195418814,16.0,18.0,14.0,4.0,6.0,0.0,1.0,4.123105625617661,4.0,4.5,13.0,16.0,16.0312195418814
36,51,229,0,7.640966666666677,0.0,38.3275357934736,4.0,6.082762530298219,12.165525060596439,12.165525060596439,11.045361017187261,21.095023109728988,15.033296378372908,15.0,18.0,13.0,4.5,5.5,0.5,2.5,5.0,4.123105625617661,4.5,13.0,16.0,17.029386365926403
37,51,230,0,7.674333333333344,0.0,39.20459156782532,3.0,6.082762530298219,12.041594578792296,12.165525060596439,12.0,21.02379604162864,15.0,15.0,16.0,12.0,2.0,7.0,2.0,0.0,4.123105625617661,4.0,4.5,13.0,16.0,17.029386365926403
38,51,231,0,7.707700000000011,1.4142135623730951,36.345563690772494,3.0,6.082762530298219,12.041594578792296,11.180339887498949,11.0,21.095023109728988,15.033296378372908,14.5,17.0,12.0,3.5,6.5,0.5,1.5,5.0,4.123105625617661,4.5,14.0,17.0,15.033296378372908
39,51,232,0,7.741066666666677,1.0,38.3275357934736,3.0,6.082762530298219,12.041594578792296,12.165525060596439,11.0,20.09975124224178,14.035668847618199,14.0,18.0,13.0,4.5,4.5,1.5,2.5,4.0,4.123105625617661,4.5,14.0,17.0,17.11724276862369
40,51,233,0,7.774433333333344,1.4142135623730951,39.319206502675,3.0,5.0990195135927845,12.041594578792296,13.152946437965905,11.0,20.09975124224178,15.033296378372908,14.5,17.0,12.0,3.5,5.5,0.5,1.5,5.0,4.123105625617661,4.5,13.0,16.0,16.0312195418814
41,51,234,0,7.807800000000011,1.0,39.11521443121589,4.0,6.0,11.045361017187261,12.165525060596439,11.045361017187261,21.0,15.0,15.0,16.0,13.0,3.5,6.5,1.5,0.5,4.0,4.123105625617661,4.5,13.0,16.0,17.029386365926403
42,51,235,0,7.841166666666678,1.0,39.20459156782532,3.0,6.0,12.165525060596439,12.165525060596439,12.0,21.02379604162864,15.033296378372908,15.0,17.0,13.0,3.0,6.0,1.0,2.0,5.0,5.0,4.5,14.0,16.0,15.033296378372908
43,51,236,0,7.874533333333344,2.0,39.20459156782532,3.0,5.0990195135927845,12.041594578792296,12.041594578792296,12.041594578792296,22.090722034374522,17.029386365926403,16.0,18.0,14.0,4.0,6.0,1.0,2.0,5.0990195135927845,4.123105625617661,4.0,13.0,17.0,15.033296378372908
44,51,237,0,7.907900000000011,3.0,42.1070065428546,4.0,6.082762530298219,12.165525060596439,12.041594578792296,11.045361017187261,24.08318915758459,18.027756377319946,16.5,16.0,13.0,3.5,9.5,3.5,1.5,5.0,6.0,6.0,14.0,17.0,16.0312195418814
45,51,238,0,7.941266666666678,2.0,38.2099463490856,3.0,6.082762530298219,11.180339887498949,11.180339887498949,12.0,23.021728866442675,17.0,16.0,18.0,14.0,4.0,7.0,2.0,2.0,5.0,4.123105625617661,4.5,13.0,16.0,16.0
46,51,239,0,7.974633333333345,2.0,41.10960958218893,4.0,6.082762530298219,12.165525060596439,12.041594578792296,12.0,24.020824298928627,18.0,17.0,18.0,15.0,4.5,7.5,1.5,2.5,4.0,4.123105625617661,4.0,14.0,17.0,18.027756377319946
47,51,240,0,8.008000000000012,2.0,38.2099463490856,4.0,5.0,11.180339887498949,11.180339887498949,11.0,22.0,17.0,16.0,18.0,14.0,5.0,6.0,1.0,2.0,5.0,5.0990195135927845,4.5,14.0,17.0,19.026297590440446
48,51,241,0,8.041366666666677,1.4142135623730951,39.20459156782532,4.0,5.0,11.180339887498949,12.041594578792296,12.0,22.02271554554524,17.029386365926403,16.5,18.0,14.0,4.0,6.0,1.0,1.0,4.0,4.123105625617661,4.5,13.0,16.0,17.029386365926403
49,51,242,0,8.074733333333343,3.0,39.20459156782532,3.0,5.0990195135927845,11.045361017187261,11.045361017187261,12.041594578792296,23.08679276123039,18.027756377319946,16.5,18.0,14.0,4.0,7.0,2.0,2.0,5.0,4.0,4.5,15.0,18.0,17.0
50,51,243,0,8.10810000000001,1.4142135623730951,39.319206502675,4.0,5.0,11.180339887498949,12.165525060596439,12.041594578792296,22.090722034374522,17.11724276862369,16.5,20.0,15.0,5.5,4.5,0.5,3.5,5.0990195135927845,4.0,4.0,14.0,17.0,17.029386365926403
51,51,244,0,8.141466666666675,0.0,38.3275357934736,4.0,5.0990195135927845,11.180339887498949,12.165525060596439,12.041594578792296,21.095023109728988,16.0312195418814,16.0,19.0,14.0,4.5,4.5,0.5,2.5,5.0990195135927845,4.123105625617661,4.5,15.0,17.0,17.029386365926403
52,51,245,0,8.174833333333341,2.0,39.319206502675,3.0,5.0990195135927845,10.198039027185569,11.180339887498949,12.0,22.02271554554524,17.0,16.0,19.0,14.0,4.5,5.5,1.5,2.5,5.0990195135927845,4.0,4.5,14.0,17.0,17.0
53,51,246,0,8.208200000000007,2.23606797749979,38.2099463490856,4.0,5.0,11.180339887498949,12.165525060596439,11.045361017187261,22.090722034374522,17.11724276862369,16.0,19.0,15.0,6.0,5.0,0.0,3.0,5.0990195135927845,5.0990195135927845,5.0,14.0,18.0,17.029386365926403
54,51,247,0,8.241566666666673,1.4142135623730951,38.3275357934736,3.0,5.0990195135927845,12.165525060596439,12.041594578792296,13.038404810405298,22.20360331117452,17.11724276862369,16.5,20.0,15.0,4.5,4.5,0.5,3.5,4.0,4.123105625617661,4.0,14.0,17.0,17.029386365926403
55,51,248,0,8.274933333333339,4.123105625617661,38.3275357934736,3.0,5.0990195135927845,12.165525060596439,12.041594578792296,11.045361017187261,23.194827009486403,18.110770276274835,16.0,20.0,15.0,6.5,5.5,0.5,4.5,5.0990195135927845,5.0990195135927845,5.0,14.0,17.0,17.029386365926403
56,51,249,0,8.308300000000004,3.0,43.104524124504614,4.0,6.082762530298219,12.165525060596439,12.041594578792296,11.045361017187261,24.08318915758459,18.027756377319946,16.5,16.0,13.0,3.5,9.5,3.5,1.5,5.0,5.0990195135927845,5.0,12.0,16.0,18.027756377319946
57,51,250,0,8.34166666666667,6.0,40.311288741492746,2.23606797749979,5.0990195135927845,12.165525060596439,13.038404810405298,12.0,25.079872407968907,20.024984394500787,17.0,20.0,15.0,5.5,7.5,2.5,4.5,5.0,4.123105625617661,4.5,14.0,18.0,16.0
58,51,251,0,8.375033333333336,5.0990195135927845,41.43669871020132,3.1622776601683795,6.0,13.152946437965905,14.142135623730951,12.0,26.076809620810597,20.09975124224178,17.5,21.0,15.0,6.0,8.0,3.0,4.0,6.0,6.082762530298219,6.0,14.0,17.0,16.0312195418814
59,51,252,0,8.408400000000002,5.0990195135927845,39.319206502675,3.0,6.082762530298219,12.165525060596439,13.152946437965905,11.045361017187261,25.179356624028344,19.1049731745428,16.5,19.0,14.0,5.5,8.5,2.5,3.5,4.0,4.123105625617661,4.5,14.0,17.0,15.033296378372908
60,51,253,0,8.441766666666668,5.0,41.19465984809196,3.1622776601683795,6.082762530298219,12.165525060596439,13.152946437965905,12.041594578792296,26.1725046566048,20.09975124224178,17.5,17.0,13.0,3.0,11.0,5.0,2.0,4.123105625617661,4.123105625617661,4.0,14.0,18.0,16.0312195418814
61,51,254,0,8.475133333333334,5.0990195135927845,38.3275357934736,2.0,5.0,12.165525060596439,13.038404810405298,12.041594578792296,24.08318915758459,19.1049731745428,16.5,19.0,14.0,4.5,7.5,2.5,3.5,4.0,4.123105625617661,4.5,13.0,18.0,15.033296378372908
62,51,255,0,8.5085,2.0,39.20459156782532,3.1622776601683795,6.082762530298219,13.152946437965905,13.038404810405298,11.045361017187261,22.20360331117452,16.1245154965971,15.0,16.0,12.0,3.0,8.0,2.0,2.0,4.0,4.0,4.5,14.0,17.0,16.0312195418814
63,51,256,0,8.541866666666666,1.0,40.311288741492746,4.0,6.082762530298219,12.165525060596439,13.038404810405298,11.045361017187261,21.213203435596427,15.132745950421556,15.0,18.0,13.0,4.5,5.5,0.5,2.5,4.0,5.0,4.5,13.0,16.0,16.0
64,51,257,0,8.575233333333331,1.0,38.3275357934736,2.0,5.0,12.165525060596439,12.165525060596439,12.041594578792296,19.1049731745428,14.142135623730951,14.0,17.0,12.0,2.5,4.5,0.5,1.5,4.0,4.123105625617661,4.5,13.0,16.0,17.11724276862369
65,51,258,0,8.608599999999997,0.0,38.2099463490856,3.0,5.0990195135927845,11.045361017187261,11.045361017187261,11.045361017187261,19.1049731745428,14.035668847618199,14.0,16.0,12.0,3.0,5.0,0.0,1.0,5.0,5.0990195135927845,5.0,14.0,17.0,16.0312195418814
66,51,259,0,8.641966666666663,1.0,38.47076812334269,3.0,5.0,12.165525060596439,12.165525060596439,12.0,20.024984394500787,15.033296378372908,15.0,19.0,13.0,4.0,4.0,0.0,3.0,4.0,5.0990195135927845,4.5,14.0,17.0,17.029386365926403
67,51,260,0,8.67533333333333,1.0,40.19950248448356,3.0,5.0,12.041594578792296,12.165525060596439,12.0,20.024984394500787,15.033296378372908,15.0,16.0,12.0,2.0,6.0,2.0,0.0,4.123105625617661,4.123105625617661,4.0,12.0,16.0,17.029386365926403
68,51,261,0,8.708699999999995,0.0,40.19950248448356,3.0,5.0990195135927845,12.165525060596439,12.165525060596439,12.0,20.024984394500787,15.0,15.0,17.0,13.0,3.0,5.0,1.0,2.0,4.123105625617661,5.0990195135927845,4.5,13.0,16.0,15.033296378372908
69,51,262,0,8.74206666666666,0.0,38.3275357934736,3.1622776601683795,5.0990195135927845,11.045361017187261,11.180339887498949,12.0,20.09975124224178,15.033296378372908,15.0,18.0,13.0,3.5,4.5,0.5,1.5,5.0,4.123105625617661,4.5,13.0,16.0,18.027756377319946
70,51,263,0,8.775433333333327,0.0,38.3275357934736,3.0,4.123105625617661,11.180339887498949,11.180339887498949,12.0,19.026297590440446,15.0,15.0,18.0,13.0,3.5,3.5,0.5,1.5,4.0,4.123105625617661,4.5,14.0,17.0,16.0312195418814
71,51,264,0,8.808799999999993,0.0,37.33630940518894,2.23606797749979,5.0990195135927845,11.180339887498949,12.165525060596439,12.0,19.1049731745428,14.035668847618199,14.0,17.0,12.0,2.5,4.5,0.5,1.5,5.0,5.0990195135927845,4.5,13.0,17.0,17.029386365926403
72,51,265,0,8.842166666666659,1.0,39.45883931389772,3.0,5.0990195135927845,11.180339887498949,12.165525060596439,11.0,19.1049731745428,14.035668847618199,14.0,18.0,12.0,4.0,4.0,1.0,2.0,4.0,4.123105625617661,4.0,13.0,16.0,17.0
73,51,266,0,8.875533333333324,1.0,39.20459156782532,3.0,4.123105625617661,12.041594578792296,11.180339887498949,11.045361017187261,18.24828759089466,14.142135623730951,14.0,17.0,13.0,4.0,3.0,1.0,2.0,4.0,4.123105625617661,4.5,14.0,17.0,17.029386365926403
74,51,267,0,8.90889999999999,1.0,39.319206502675,3.0,5.0990195135927845,12.041594578792296,12.165525060596439,11.045361017187261,19.235384061671343,14.142135623730951,14.0,17.0,12.0,3.5,4.5,0.5,1.5,5.0990195135927845,5.0990195135927845,5.0,13.0,16.0,16.0312195418814
75,51,268,0,8.942266666666656,1.0,40.44749683231337,2.0,5.0990195135927845,12.041594578792296,13.152946437965905,12.041594578792296,19.235384061671343,14.142135623730951,14.0,18.0,12.0,3.0,4.0,1.0,2.0,4.0,4.123105625617661,4.0,13.0,17.0,15.033296378372908
76,51,269,0,8.975633333333322,1.0,41.43669871020132,3.0,4.123105625617661,12.165525060596439,12.165525060596439,11.0,18.110770276274835,14.035668847618199,14.0,17.0,11.0,3.0,4.0,0.0,1.0,5.0990195135927845,5.0990195135927845,4.5,13.0,16.0,17.029386365926403
77,51,270,0,9.008999999999988,1.4142135623730951,40.311288741492746,2.0,5.0,11.180339887498949,11.045361017187261,12.041594578792296,18.110770276274835,13.152946437965905,13.5,17.0,12.0,2.5,3.5,0.5,1.5,5.0990195135927845,5.0,5.0,13.0,16.0,16.0312195418814
78,51,271,0,9.042366666666654,1.0,41.30375285612676,3.1622776601683795,4.123105625617661,11.180339887498949,12.165525060596439,11.0,17.11724276862369,13.038404810405298,13.5,17.0,12.0,3.5,2.5,0.5,1.5,5.0,4.123105625617661,4.5,12.0,16.0,17.029386365926403
79,51,272,0,9.07573333333332,1.4142135623730951,41.43669871020132,3.0,4.0,11.180339887498949,11.180339887498949,11.045361017187261,17.11724276862369,13.152946437965905,13.5,18.0,12.0,4.0,2.0,2.0,2.0,5.0,5.0990195135927845,5.0,14.0,18.0,16.0
80,51,273,0,9.109099999999986,2.0,41.43669871020132,3.0,5.0990195135927845,12.165525060596439,12.165525060596439,11.045361017187261,17.11724276862369,12.041594578792296,13.0,17.0,11.0,3.0,3.0,1.0,2.0,5.0,4.0,4.5,13.0,16.0,15.033296378372908
81,51,274,0,9.142466666666651,2.0,40.44749683231337,3.1622776601683795,4.123105625617661,12.165525060596439,12.165525060596439,11.0,16.1245154965971,12.041594578792296,13.0,17.0,11.0,3.0,2.0,1.0,2.0,5.0990195135927845,6.082762530298219,6.0,12.0,16.0,16.0312195418814
82,51,275,0,9.175833333333316,2.23606797749979,40.44749683231337,3.0,4.123105625617661,12.165525060596439,11.180339887498949,11.0,16.1245154965971,12.041594578792296,13.0,17.0,11.0,3.0,2.0,1.0,2.0,6.0,5.0990195135927845,5.0,12.0,16.0,17.029386365926403
83,51,276,0,9.209199999999983,1.0,41.43669871020132,2.23606797749979,4.123105625617661,12.165525060596439,12.165525060596439,11.0,16.1245154965971,12.041594578792296,12.5,17.0,11.0,3.0,2.0,1.0,2.0,4.0,5.0990195135927845,5.0,13.0,16.0,17.029386365926403
84,51,277,0,9.242566666666647,1.4142135623730951,40.607881008493905,4.0,4.0,11.045361017187261,12.165525060596439,10.04987562112089,17.11724276862369,13.152946437965905,13.5,18.0,11.0,4.5,2.5,1.5,1.5,4.123105625617661,4.123105625617661,4.5,13.0,16.0,17.0
85,51,278,0,9.275933333333317,2.23606797749979,39.45883931389772,4.0,5.0990195135927845,11.045361017187261,11.180339887498949,10.0,17.11724276862369,12.041594578792296,13.0,17.0,11.0,4.0,3.0,1.0,1.0,5.0,5.0990195135927845,5.0,14.0,17.0,16.0312195418814
86,51,279,0,9.30929999999998,2.23606797749979,39.45883931389772,3.0,4.123105625617661,12.041594578792296,11.180339887498949,11.045361017187261,16.278820596099706,12.165525060596439,13.0,17.0,11.0,3.0,2.0,2.0,1.0,4.0,4.123105625617661,4.0,13.0,16.0,17.029386365926403
87,51,280,0,9.342666666666648,1.4142135623730951,41.43669871020132,3.0,4.0,12.041594578792296,12.165525060596439,11.045361017187261,17.11724276862369,13.152946437965905,13.5,17.0,11.0,3.0,3.0,1.0,1.0,5.0,4.0,4.5,14.0,17.0,17.11724276862369
88,51,281,0,9.376033333333313,1.4142135623730951,40.311288741492746,3.0,3.0,12.165525060596439,12.165525060596439,11.045361017187261,16.1245154965971,13.152946437965905,13.5,17.0,12.0,3.5,1.5,1.5,1.5,4.123105625617661,4.0,4.0,13.0,17.0,16.0312195418814
89,51,282,0,9.409399999999978,1.0,41.43669871020132,4.123105625617661,5.0990195135927845,12.165525060596439,12.165525060596439,10.0,18.110770276274835,13.038404810405298,13.5,18.0,12.0,5.0,3.0,1.0,2.0,4.0,4.0,4.0,14.0,18.0,17.029386365926403
90,51,283,0,9.442766666666644,1.0,41.10960958218893,4.123105625617661,5.0990195135927845,12.041594578792296,12.165525060596439,10.0,19.026297590440446,14.0,14.0,14.0,11.0,2.5,6.5,1.5,0.5,5.0,5.0,5.5,13.0,16.0,18.027756377319946
91,51,284,0,9.47613333333331,1.0,39.45883931389772,3.0,5.0990195135927845,13.152946437965905,12.041594578792296,11.045361017187261,18.110770276274835,13.038404810405298,13.5,19.0,13.0,5.0,2.0,2.0,3.0,5.0,5.0990195135927845,4.5,13.0,16.0,16.0312195418814
92,51,285,0,9.509499999999976,0.0,39.319206502675,3.1622776601683795,5.0990195135927845,13.152946437965905,14.035668847618199,12.041594578792296,20.223748416156685,15.132745950421556,15.0,18.0,13.0,3.5,4.5,0.5,2.5,4.123105625617661,4.123105625617661,4.0,14.0,18.0,16.0312195418814
93,51,286,0,9.542866666666642,0.0,38.3275357934736,3.1622776601683795,6.082762530298219,12.165525060596439,12.165525060596439,11.045361017187261,20.223748416156685,14.142135623730951,14.0,18.0,13.0,4.5,4.5,0.5,2.5,4.0,4.0,4.0,14.0,18.0,17.029386365926403
94,51,287,0,9.576233333333308,2.23606797749979,39.45883931389772,3.0,6.082762530298219,12.041594578792296,13.152946437965905,12.041594578792296,23.194827009486403,17.11724276862369,16.0,20.0,14.0,5.0,6.0,1.0,3.0,5.0,5.0990195135927845,5.0,14.0,17.0,18.110770276274835
95,51,288,0,9.609599999999974,4.0,40.19950248448356,3.0,6.082762530298219,12.041594578792296,12.165525060596439,12.041594578792296,25.079872407968907,19.026297590440446,17.0,17.0,13.0,3.0,10.0,4.0,1.0,2.0,2.0,2.0,15.0,18.0,17.029386365926403
96,51,289,0,9.64296666666664,3.0,42.1070065428546,4.123105625617661,5.0990195135927845,12.041594578792296,13.038404810405298,11.0,23.08679276123039,18.027756377319946,16.5,16.0,13.0,3.5,8.5,3.5,0.5,3.0,2.0,2.5,14.0,17.0,16.0312195418814
97,51,290,0,9.676333333333304,5.0990195135927845,39.6232255123179,3.0,6.082762530298219,11.40175425099138,12.36931687685298,11.0,25.079872407968907,19.026297590440446,16.5,17.0,10.0,2.5,11.5,6.5,1.5,6.082762530298219,6.082762530298219,6.0,11.0,19.0,17.029386365926403
98,51,291,0,9.709699999999971,4.123105625617661,40.311288741492746,3.0,6.082762530298219,12.165525060596439,12.165525060596439,12.041594578792296,25.179356624028344,19.1049731745428,17.0,17.0,12.0,2.5,10.5,4.5,0.5,7.0,6.082762530298219,6.5,12.0,18.0,18.027756377319946
99,51,292,0,9.743066666666635,4.123105625617661,36.49657518178932,5.0,6.082762530298219,11.180339887498949,12.165525060596439,9.055385138137417,24.186773244895647,18.110770276274835,16.0,20.0,14.0,8.0,7.0,2.0,4.0,3.1622776601683795,3.0,3.0,14.0,18.0,17.11724276862369
100,51,293,0,9.776433333333305,5.0990195135927845,38.47076812334269,5.0,6.082762530298219,12.165525060596439,12.165525060596439,9.055385138137417,25.179356624028344,19.1049731745428,16.5,21.0,15.0,9.0,7.0,2.0,5.0,3.1622776601683795,3.0,3.0,13.0,17.0,18.110770276274835
101,51,294,0,9.809799999999967,5.0990195135927845,37.48332962798263,3.1622776601683795,5.0990195135927845,12.165525060596439,12.165525060596439,11.045361017187261,24.331050121192877,19.235384061671343,16.5,21.0,15.0,7.0,6.0,2.0,5.0,4.123105625617661,3.0,3.0,14.0,18.0,16.1245154965971
102,51,295,0,9.843166666666637,4.123105625617661,36.49657518178932,3.0,6.082762530298219,12.165525060596439,12.041594578792296,12.041594578792296,25.179356624028344,19.1049731745428,17.0,20.0,14.0,5.0,8.0,3.0,3.0,4.0,4.123105625617661,3.5,13.0,18.0,16.1245154965971
103,51,296,0,9.8765333333333,5.385164807134504,37.48332962798263,4.0,6.082762530298219,12.165525060596439,13.038404810405298,10.04987562112089,25.317977802344327,19.235384061671343,16.5,20.0,14.0,7.0,8.0,3.0,4.0,3.1622776601683795,3.1622776601683795,3.0,13.0,18.0,17.11724276862369
104,51,297,0,9.909899999999968,5.0990195135927845,39.45883931389772,3.0,5.0990195135927845,11.180339887498949,12.165525060596439,12.041594578792296,25.179356624028344,20.09975124224178,17.5,20.0,14.0,5.0,8.0,3.0,3.0,4.0,3.1622776601683795,3.0,13.0,18.0,17.11724276862369
105,51,298,0,9.943266666666633,3.1622776601683795,39.45883931389772,3.1622776601683795,5.0990195135927845,13.341664064126334,13.152946437965905,12.041594578792296,23.345235059857504,18.24828759089466,16.5,21.0,15.0,6.0,5.0,0.0,5.0,4.0,4.0,3.5,14.0,18.0,16.278820596099706
106,51,299,0,9.976633333333298,2.23606797749979,39.45883931389772,3.1622776601683795,5.0990195135927845,12.165525060596439,12.165525060596439,12.041594578792296,22.360679774997898,17.26267650163207,16.0,20.0,14.0,5.0,5.0,1.0,4.0,4.123105625617661,3.1622776601683795,3.0,14.0,18.0,17.11724276862369
107,51,300,0,10.009999999999964,2.23606797749979,40.44749683231337,3.1622776601683795,5.0990195135927845,13.152946437965905,13.038404810405298,12.041594578792296,22.360679774997898,17.26267650163207,16.0,20.0,14.0,5.0,5.0,0.0,3.0,3.0,3.1622776601683795,3.0,13.0,18.0,15.132745950421556
108,51,301,0,10.04336666666663,3.605551275463989,40.44749683231337,3.0,5.0990195135927845,13.152946437965905,14.035668847618199,11.045361017187261,22.360679774997898,17.26267650163207,15.5,20.0,14.0,6.0,5.0,0.0,4.0,3.1622776601683795,3.0,3.0,14.0,18.0,15.132745950421556
109,51,302,0,10.076733333333296,4.123105625617661,41.43669871020132,3.1622776601683795,5.0990195135927845,13.341664064126334,14.142135623730951,12.0,24.186773244895647,19.1049731745428,17.0,21.0,15.0,6.0,6.0,2.0,5.0,3.1622776601683795,3.1622776601683795,3.0,13.0,17.0,16.278820596099706
110,51,303,0,10.110099999999962,5.0990195135927845,40.44749683231337,3.0,4.123105625617661,13.341664064126334,13.152946437965905,12.041594578792296,24.186773244895647,20.09975124224178,17.5,21.0,15.0,6.0,6.0,2.0,5.0,3.1622776601683795,3.1622776601683795,3.0,13.0,17.0,15.132745950421556
111,51,304,0,10.143466666666628,5.0990195135927845,40.44749683231337,4.0,6.082762530298219,12.165525060596439,14.142135623730951,10.198039027185569,25.317977802344327,19.235384061671343,16.5,21.0,15.0,8.0,7.0,1.0,5.0,4.0,4.123105625617661,3.5,13.0,17.0,17.11724276862369
112,51,305,0,10.176833333333294,3.1622776601683795,40.311288741492746,3.0,3.1622776601683795,13.152946437965905,14.142135623730951,11.045361017187261,20.223748416156685,17.11724276862369,15.5,19.0,14.0,5.5,3.5,0.5,4.5,3.0,3.0,3.0,13.0,17.0,16.0312195418814
113,51,306,0,10.21019999999996,4.123105625617661,40.311288741492746,2.0,5.0990195135927845,13.152946437965905,14.142135623730951,12.041594578792296,23.194827009486403,18.110770276274835,16.0,20.0,15.0,5.5,5.5,0.5,4.5,3.0,4.0,3.5,13.0,18.0,16.1245154965971
114,51,307,0,10.243566666666624,4.123105625617661,41.43669871020132,4.0,5.0990195135927845,13.152946437965905,14.035668847618199,10.04987562112089,23.194827009486403,18.110770276274835,16.0,20.0,14.0,7.0,6.0,1.0,5.0,3.1622776601683795,4.0,3.5,13.0,18.0,16.1245154965971
115,51,308,0,10.276933333333291,4.123105625617661,39.45883931389772,2.0,4.47213595499958,13.152946437965905,13.152946437965905,12.041594578792296,22.360679774997898,18.110770276274835,16.0,20.0,14.0,5.0,5.0,1.0,5.0,2.0,3.1622776601683795,3.0,12.0,17.0,16.1245154965971
116,51,309,0,10.310299999999955,4.123105625617661,40.311288741492746,3.1622776601683795,5.0990195135927845,13.152946437965905,13.038404810405298,10.04987562112089,22.360679774997898,17.26267650163207,15.0,19.0,14.0,6.5,5.5,0.5,4.5,3.0,2.23606797749979,2.5,13.0,17.0,17.11724276862369
117,51,310,0,10.343666666666625,3.0,38.3275357934736,4.123105625617661,5.0990195135927845,13.152946437965905,13.038404810405298,10.04987562112089,22.20360331117452,17.11724276862369,15.5,19.0,14.0,6.5,5.5,0.5,4.5,3.1622776601683795,3.1622776601683795,3.5,13.0,17.0,17.11724276862369
118,51,311,0,10.377033333333287,1.0,37.48332962798263,3.1622776601683795,6.082762530298219,11.180339887498949,12.165525060596439,11.045361017187261,20.396078054371138,14.317821063276353,14.0,19.0,13.0,5.0,4.0,1.0,4.0,3.0,3.1622776601683795,3.5,13.0,17.0,16.0312195418814
119,51,312,0,10.410399999999957,1.0,38.63935817272331,2.0,5.0990195135927845,12.165525060596439,13.341664064126334,12.041594578792296,19.235384061671343,14.142135623730951,14.0,19.0,12.0,3.5,3.5,0.5,2.5,4.123105625617661,3.0,3.0,13.0,17.0,17.029386365926403
120,51,313,0,10.44376666666662,1.4142135623730951,38.47076812334269,3.0,5.0990195135927845,12.165525060596439,13.152946437965905,11.0,18.110770276274835,13.038404810405298,13.5,18.0,12.0,4.0,3.0,2.0,3.0,3.1622776601683795,3.1622776601683795,3.5,13.0,17.0,15.033296378372908
121,51,314,0,10.477133333333288,0.0,36.345563690772494,2.0,4.123105625617661,11.180339887498949,11.180339887498949,13.038404810405298,19.1049731745428,15.033296378372908,15.0,18.0,13.0,2.5,3.5,0.5,1.5,3.1622776601683795,3.1622776601683795,3.5,13.0,17.0,17.029386365926403
122,51,315,0,10.510499999999952,1.0,39.45883931389772,3.0,5.0,13.152946437965905,12.041594578792296,12.041594578792296,20.09975124224178,15.132745950421556,15.0,20.0,14.0,5.0,3.0,1.0,3.0,3.0,3.0,3.5,13.0,16.0,16.0312195418814
123,51,316,0,10.543866666666618,3.1622776601683795,39.319206502675,4.123105625617661,5.0,13.038404810405298,12.041594578792296,11.0,23.08679276123039,18.110770276274835,16.5,19.0,14.0,5.5,6.5,1.5,2.5,3.0,3.1622776601683795,3.0,14.0,17.0,16.0312195418814
124,51,317,0,10.577233333333284,2.0,39.319206502675,2.0,4.123105625617661,13.152946437965905,13.152946437965905,12.041594578792296,20.09975124224178,16.0312195418814,15.0,19.0,14.0,4.5,3.5,0.5,3.5,4.123105625617661,3.0,3.0,13.0,16.0,16.0312195418814
125,51,318,0,10.61059999999995,1.4142135623730951,38.47076812334269,3.0,5.0990195135927845,12.165525060596439,13.038404810405298,12.041594578792296,21.213203435596427,16.1245154965971,15.5,20.0,14.0,5.0,4.0,1.0,3.0,3.1622776601683795,3.0,3.0,14.0,17.0,16.0312195418814
126,51,319,0,10.643966666666616,2.23606797749979,39.319206502675,3.0,5.0990195135927845,13.152946437965905,13.152946437965905,12.041594578792296,22.20360331117452,17.11724276862369,16.0,19.0,14.0,4.5,5.5,0.5,3.5,3.0,4.123105625617661,3.5,13.0,16.0,16.0312195418814
127,51,320,0,10.677333333333282,2.23606797749979,39.45883931389772,3.0,5.0990195135927845,12.165525060596439,13.038404810405298,12.041594578792296,22.20360331117452,17.11724276862369,16.0,20.0,14.0,5.0,5.0,0.0,4.0,3.0,3.0,3.0,14.0,17.0,16.0312195418814
128,51,321,0,10.710699999999948,4.123105625617661,39.45883931389772,3.0,5.0990195135927845,12.165525060596439,13.038404810405298,12.041594578792296,24.186773244895647,19.1049731745428,17.0,21.0,15.0,6.0,6.0,1.0,4.0,4.0,3.0,3.5,14.0,17.0,16.0312195418814
129,51,322,0,10.744066666666614,1.0,39.11521443121589,4.0,6.0,11.045361017187261,12.041594578792296,11.0,22.0,16.0,15.5,16.0,13.0,3.5,7.5,2.5,0.5,3.0,4.0,4.0,14.0,17.0,15.033296378372908
130,51,323,0,10.77743333333328,1.4142135623730951,38.3275357934736,4.0,5.0,12.041594578792296,12.165525060596439,11.0,21.02379604162864,16.0312195418814,15.5,18.0,13.0,4.5,5.5,0.5,1.5,3.0,3.0,3.5,14.0,17.0,17.029386365926403
131,51,324,0,10.810799999999944,1.4142135623730951,37.48332962798263,3.0,5.0990195135927845,12.165525060596439,11.180339887498949,12.041594578792296,19.235384061671343,14.142135623730951,14.5,19.0,13.0,4.0,3.0,2.0,3.0,4.0,3.1622776601683795,3.5,13.0,17.0,16.0312195418814
132,51,325,0,10.844166666666611,1.0,38.47076812334269,3.0,5.0990195135927845,13.152946437965905,13.152946437965905,12.041594578792296,20.223748416156685,15.132745950421556,15.0,20.0,14.0,5.0,3.0,2.0,3.0,4.0,4.123105625617661,4.0,14.0,16.0,15.0
133,51,326,0,10.877533333333275,1.0,39.6232255123179,2.0,5.0990195135927845,11.180339887498949,11.045361017187261,12.041594578792296,19.235384061671343,14.142135623730951,14.0,20.0,13.0,4.5,2.5,1.5,3.5,5.0,5.0,4.5,13.0,17.0,15.033296378372908
134,51,327,0,10.910899999999945,1.0,40.44749683231337,2.23606797749979,5.0990195135927845,12.165525060596439,12.041594578792296,12.0,20.09975124224178,15.033296378372908,14.5,20.0,14.0,5.0,3.0,1.0,4.0,3.1622776601683795,3.1622776601683795,3.5,13.0,17.0,15.033296378372908
135,51,328,0,10.944266666666609,1.4142135623730951,37.656340767525464,2.0,4.123105625617661,12.165525060596439,12.36931687685298,13.038404810405298,20.223748416156685,16.1245154965971,15.5,22.0,15.0,5.5,1.5,1.5,4.5,4.123105625617661,4.0,4.0,13.0,17.0,15.033296378372908
136,51,329,0,10.977633333333277,3.0,38.47076812334269,2.23606797749979,4.123105625617661,12.165525060596439,12.165525060596439,12.041594578792296,21.213203435596427,17.11724276862369,15.5,20.0,14.0,5.0,4.0,0.0,4.0,3.0,3.0,3.0,13.0,17.0,15.033296378372908
137,51,330,0,11.01099999999994,4.123105625617661,38.2099463490856,3.0,6.0,12.041594578792296,12.041594578792296,12.0,25.019992006393608,19.026297590440446,17.0,18.0,14.0,4.0,9.0,4.0,2.0,4.0,4.123105625617661,4.0,14.0,18.0,17.11724276862369
138,51,331,0,11.044366666666606,5.0990195135927845,39.20459156782532,3.0,5.0,12.165525060596439,13.152946437965905,12.041594578792296,25.079872407968907,20.09975124224178,17.5,19.0,15.0,5.0,8.0,3.0,3.0,4.0,4.123105625617661,4.0,13.0,17.0,17.029386365926403
139,51,332,0,11.077733333333272,5.0990195135927845,37.48332962798263,2.0,5.0990195135927845,12.165525060596439,12.165525060596439,13.038404810405298,25.179356624028344,20.09975124224178,17.5,21.0,15.0,5.0,7.0,2.0,4.0,4.123105625617661,4.123105625617661,4.0,14.0,17.0,16.0312195418814
140,51,333,0,11.111099999999938,3.0,40.311288741492746,4.123105625617661,5.0990195135927845,12.041594578792296,12.165525060596439,11.0,23.08679276123039,18.027756377319946,16.5,18.0,13.0,4.5,7.5,3.5,1.5,6.0,6.082762530298219,5.5,12.0,16.0,15.033296378372908
141,51,334,0,11.144466666666604,3.0,41.10960958218893,5.0990195135927845,5.0,12.041594578792296,12.041594578792296,10.0,23.021728866442675,18.027756377319946,16.5,16.0,13.0,4.5,8.5,3.5,0.5,5.0990195135927845,5.0990195135927845,5.0,13.0,16.0,16.0
142,51,335,0,11.17783333333327,2.0,38.118237105091836,4.0,5.0990195135927845,10.198039027185569,11.045361017187261,11.0,22.02271554554524,17.0,16.0,17.0,14.0,4.5,6.5,1.5,1.5,4.0,4.123105625617661,4.5,14.0,17.0,16.0312195418814
143,51,336,0,11.211199999999936,3.0,42.2965719651132,4.123105625617661,6.082762530298219,12.165525060596439,13.038404810405298,12.0,25.079872407968907,19.026297590440446,17.5,18.0,13.0,3.5,9.5,4.5,1.5,4.123105625617661,4.123105625617661,4.0,13.0,16.0,17.029386365926403
144,51,337,0,11.244566666666602,3.1622776601683795,42.1070065428546,3.0,4.0,12.165525060596439,12.041594578792296,12.0,22.02271554554524,18.027756377319946,16.5,18.0,15.0,4.5,5.5,2.5,2.5,5.0,4.0,4.5,13.0,15.0,17.0
145,51,338,0,11.277933333333268,2.0,39.11521443121589,3.0,4.0,11.045361017187261,12.165525060596439,12.041594578792296,21.02379604162864,17.029386365926403,16.0,17.0,14.0,3.5,5.5,1.5,0.5,3.0,4.0,4.0,14.0,16.0,16.0312195418814
146,51,339,0,11.311299999999934,3.0,40.11234224026316,4.0,5.0990195135927845,11.045361017187261,11.045361017187261,11.0,23.021728866442675,18.0,16.5,17.0,14.0,4.5,7.5,2.5,0.5,4.0,3.0,3.5,14.0,16.0,16.0
147,51,340,0,11.3446666666666,1.4142135623730951,38.2099463490856,3.0,4.123105625617661,11.180339887498949,12.165525060596439,13.0,21.095023109728988,17.029386365926403,16.5,20.0,16.0,5.0,3.0,1.0,4.0,3.0,3.0,3.0,15.0,16.0,16.0
148,51,341,0,11.378033333333263,0.0,37.21558813185679,3.0,5.0990195135927845,11.045361017187261,11.180339887498949,13.0,21.02379604162864,16.0,16.0,19.0,15.0,4.0,4.0,0.0,2.0,4.0,3.0,3.5,15.0,16.0,15.0
149,51,342,0,11.411399999999931,1.0,38.3275357934736,4.0,6.0,11.045361017187261,12.165525060596439,12.041594578792296,22.090722034374522,16.1245154965971,16.0,20.0,15.0,5.5,4.5,1.5,2.5,4.0,3.0,3.5,15.0,16.0,16.0
150,51,343,0,11.444766666666595,0.0,37.21558813185679,3.0,6.082762530298219,11.045361017187261,11.180339887498949,12.041594578792296,21.095023109728988,15.033296378372908,15.0,19.0,15.0,5.0,4.0,2.0,3.0,4.123105625617661,3.1622776601683795,3.0,15.0,16.0,16.0
151,51,344,0,11.478133333333265,1.0,36.22154055254967,4.0,6.0,11.045361017187261,11.180339887498949,12.0,22.02271554554524,16.0312195418814,16.0,19.0,15.0,5.0,5.0,1.0,2.0,4.0,3.0,3.5,14.0,15.0,15.033296378372908
152,51,345,0,11.511499999999929,0.0,36.345563690772494,3.0,6.082762530298219,11.045361017187261,11.045361017187261,13.038404810405298,22.090722034374522,16.0312195418814,16.0,20.0,15.0,4.5,4.5,1.5,2.5,3.0,4.0,4.0,15.0,16.0,16.0
153,51,346,0,11.544866666666596,0.0,36.22154055254967,4.123105625617661,6.082762530298219,11.045361017187261,11.045361017187261,12.0,22.090722034374522,16.0312195418814,16.0,18.0,14.0,4.0,6.0,0.0,1.0,4.123105625617661,4.0,4.5,14.0,16.0,16.0312195418814
154,51,347,0,11.57823333333326,0.0,38.05259518088089,4.123105625617661,6.0,11.045361017187261,12.041594578792296,12.041594578792296,22.0,16.0,16.0,16.0,14.0,3.0,7.0,1.0,0.0,3.0,3.1622776601683795,3.0,15.0,17.0,16.0312195418814
155,51,348,0,11.611599999999926,1.0,38.2099463490856,3.1622776601683795,6.0,11.045361017187261,12.165525060596439,12.041594578792296,22.0,16.0,15.5,17.0,13.0,3.0,7.0,1.0,1.0,3.0,4.123105625617661,4.0,14.0,17.0,17.029386365926403
156,51,349,0,11.644966666666592,1.0,38.05259518088089,4.0,7.0,11.0,12.041594578792296,11.0,23.0,16.0,15.5,15.0,13.0,3.0,9.0,2.0,1.0,4.0,4.123105625617661,3.5,13.0,16.0,16.0312195418814
157,51,350,0,11.678333333333258,1.0,38.01315561749642,4.0,7.0710678118654755,11.045361017187261,11.045361017187261,12.0,24.020824298928627,17.0,16.5,15.0,14.0,2.5,9.5,2.5,0.5,3.0,3.1622776601683795,3.5,14.0,16.0,18.0
158,51,351,0,11.711699999999924,1.4142135623730951,39.11521443121589,3.0,6.0,12.041594578792296,12.165525060596439,12.0,22.02271554554524,16.0312195418814,15.5,15.0,12.0,1.5,8.5,2.5,0.5,4.0,3.1622776601683795,3.5,13.0,16.0,17.029386365926403
159,51,352,0,11.74506666666659,1.0,37.12142238654117,3.0,5.0,11.045361017187261,12.165525060596439,13.0,21.02379604162864,16.0312195418814,16.0,16.0,13.0,1.5,6.5,1.5,0.5,3.0,3.0,3.0,13.0,15.0,15.033296378372908
160,51,353,0,11.778433333333256,0.0,35.22782990761707,4.123105625617661,5.0990195135927845,11.180339887498949,11.180339887498949,12.041594578792296,21.213203435596427,16.1245154965971,16.0,18.0,14.0,4.0,5.0,0.0,2.0,4.0,3.0,3.5,14.0,17.0,17.029386365926403
161,51,354,0,11.811799999999922,0.0,40.19950248448356,4.0,6.0,12.041594578792296,12.165525060596439,12.041594578792296,22.02271554554524,16.0312195418814,16.0,17.0,13.0,3.0,7.0,1.0,0.0,5.0990195135927845,5.0990195135927845,5.0,14.0,16.0,16.0312195418814
162,51,355,0,11.845166666666588,1.0,40.311288741492746,4.0,5.0,13.038404810405298,12.165525060596439,12.041594578792296,21.095023109728988,16.1245154965971,16.0,19.0,14.0,4.5,4.5,0.5,1.5,5.0,5.0990195135927845,5.0,13.0,17.0,16.0312195418814
163,51,356,0,11.878533333333252,0.0,40.19950248448356,3.0,5.0990195135927845,12.041594578792296,13.152946437965905,13.0,21.02379604162864,16.0,16.0,18.0,14.0,3.0,5.0,0.0,1.0,5.0,6.082762530298219,6.0,12.0,15.0,17.029386365926403
164,51,357,0,11.91189999999992,0.0,38.3275357934736,3.1622776601683795,6.082762530298219,12.041594578792296,13.152946437965905,12.0,21.095023109728988,15.033296378372908,15.0,18.0,13.0,3.5,5.5,0.5,1.5,4.123105625617661,4.123105625617661,4.0,13.0,16.0,16.0312195418814
165,51,358,0,11.945266666666583,1.0,39.20459156782532,4.123105625617661,4.123105625617661,11.180339887498949,11.045361017187261,12.0,21.095023109728988,17.029386365926403,16.5,18.0,14.0,4.0,5.0,1.0,2.0,4.123105625617661,4.123105625617661,4.5,12.0,16.0,16.0312195418814
166,51,359,0,11.978633333333253,1.0,39.319206502675,3.0,5.0,12.165525060596439,12.165525060596439,12.165525060596439,20.223748416156685,15.297058540778355,15.0,19.0,14.0,4.5,3.5,1.5,3.5,4.123105625617661,4.0,4.5,13.0,17.0,15.033296378372908
167,51,360,0,12.011999999999915,1.4142135623730951,39.45883931389772,4.0,6.0,12.165525060596439,12.041594578792296,12.041594578792296,21.095023109728988,15.132745950421556,15.5,20.0,14.0,5.0,4.0,1.0,3.0,4.123105625617661,4.123105625617661,4.5,13.0,16.0,17.0
168,51,361,0,12.045366666666585,1.0,38.47076812334269,3.0,4.123105625617661,12.165525060596439,12.165525060596439,13.038404810405298,20.223748416156685,16.1245154965971,16.0,20.0,14.0,4.0,3.0,1.0,3.0,4.0,4.0,4.0,12.0,16.0,15.033296378372908
169,51,362,0,12.078733333333249,1.0,37.48332962798263,4.0,5.0990195135927845,11.045361017187261,12.041594578792296,12.0,21.095023109728988,16.0312195418814,16.0,20.0,14.0,5.0,4.0,1.0,2.0,4.123105625617661,4.123105625617661,4.0,13.0,16.0,15.033296378372908
170,51,363,0,12.112099999999916,1.0,39.20459156782532,3.0,5.0,11.045361017187261,12.165525060596439,13.038404810405298,21.095023109728988,16.1245154965971,16.0,18.0,14.0,3.0,5.0,0.0,1.0,4.0,4.123105625617661,4.0,13.0,17.0,16.0312195418814
171,51,364,0,12.14546666666658,0.0,38.2099463490856,5.0,6.082762530298219,11.180339887498949,11.180339887498949,11.045361017187261,22.090722034374522,16.0312195418814,16.0,18.0,14.0,5.0,6.0,0.0,1.0,4.0,4.123105625617661,4.0,13.0,16.0,17.029386365926403
172,51,365,0,12.178833333333246,1.4142135623730951,38.63935817272331,2.23606797749979,5.0990195135927845,12.165525060596439,13.152946437965905,12.0,20.223748416156685,15.132745950421556,14.5,19.0,12.0,3.5,4.5,0.5,2.5,4.0,4.0,3.5,14.0,17.0,16.0312195418814
173,51,366,0,12.212199999999912,0.0,40.44749683231337,3.1622776601683795,5.0990195135927845,12.165525060596439,12.165525060596439,12.041594578792296,20.223748416156685,15.132745950421556,15.0,19.0,13.0,4.0,4.0,1.0,3.0,5.0990195135927845,5.0990195135927845,4.5,13.0,17.0,17.029386365926403
174,51,367,0,12.245566666666578,1.0,39.45883931389772,3.0,5.0990195135927845,13.152946437965905,14.142135623730951,12.041594578792296,20.223748416156685,15.132745950421556,15.0,20.0,14.0,5.0,3.0,1.0,4.0,3.0,4.0,3.5,12.0,16.0,17.029386365926403
175,51,368,0,12.278933333333244,1.0,38.3275357934736,3.0,6.082762530298219,12.165525060596439,13.152946437965905,12.0,21.095023109728988,15.033296378372908,15.0,17.0,12.0,2.5,6.5,1.5,1.5,4.0,4.123105625617661,4.0,13.0,17.0,16.0312195418814
176,51,369,0,12.31229999999991,1.0,41.43669871020132,3.0,6.082762530298219,13.152946437965905,13.152946437965905,11.045361017187261,20.223748416156685,14.142135623730951,14.0,19.0,13.0,5.0,4.0,1.0,3.0,5.0,5.0,5.0,13.0,16.0,16.1245154965971
177,51,370,0,12.345666666666576,1.0,40.44749683231337,2.23606797749979,6.082762530298219,13.152946437965905,14.142135623730951,13.038404810405298,22.20360331117452,16.1245154965971,15.5,20.0,14.0,4.0,5.0,1.0,3.0,4.0,4.0,4.0,14.0,17.0,16.1245154965971
178,51,371,0,12.379033333333242,0.0,40.19950248448356,3.1622776601683795,6.082762530298219,13.038404810405298,13.341664064126334,12.0,21.095023109728988,15.033296378372908,15.0,16.0,12.0,2.0,7.0,1.0,0.0,4.123105625617661,4.123105625617661,4.0,13.0,18.0,16.1245154965971
179,51,372,0,12.412399999999908,0.0,38.118237105091836,5.0,6.0,11.045361017187261,12.165525060596439,10.04987562112089,21.02379604162864,15.033296378372908,15.0,15.0,12.0,3.5,7.5,2.5,0.5,4.0,4.0,4.0,14.0,18.0,17.11724276862369
180,51,373,0,12.445766666666572,0.0,42.190046219457976,3.0,6.082762530298219,13.152946437965905,13.152946437965905,11.0,20.024984394500787,14.0,14.0,15.0,11.0,2.0,7.0,2.0,0.0,4.0,4.123105625617661,4.0,13.0,18.0,16.0312195418814
181,51,374,0,12.47913333333324,1.0,38.47076812334269,3.0,5.0990195135927845,12.041594578792296,12.165525060596439,12.0,20.09975124224178,15.033296378372908,15.0,17.0,11.0,2.0,6.0,1.0,0.0,4.123105625617661,4.0,4.0,14.0,18.0,16.1245154965971
182,51,375,0,12.512499999999903,1.0,38.47076812334269,3.0,5.0990195135927845,12.165525060596439,12.165525060596439,11.045361017187261,19.235384061671343,14.142135623730951,14.0,18.0,12.0,4.0,4.0,1.0,3.0,4.123105625617661,4.0,4.0,14.0,17.0,16.0312195418814
183,51,376,0,12.545866666666573,1.0,38.63935817272331,2.0,5.0990195135927845,12.165525060596439,12.165525060596439,12.041594578792296,19.235384061671343,14.142135623730951,14.0,20.0,13.0,4.5,2.5,2.5,3.5,4.123105625617661,4.123105625617661,3.5,13.0,17.0,16.0312195418814
184,51,377,0,12.579233333333235,0.0,38.47076812334269,3.0,5.385164807134504,12.165525060596439,13.152946437965905,11.180339887498949,19.4164878389476,14.142135623730951,14.0,19.0,13.0,5.0,3.0,2.0,4.0,5.0,4.0,4.5,13.0,17.0,16.0312195418814
185,51,378,0,12.612599999999905,1.0,37.48332962798263,3.1622776601683795,4.0,11.180339887498949,12.165525060596439,12.0,19.1049731745428,15.132745950421556,15.0,19.0,13.0,4.0,3.0,1.0,3.0,3.0,4.0,4.0,12.0,16.0,16.0312195418814
186,51,379,0,12.645966666666569,1.4142135623730951,38.47076812334269,3.0,4.123105625617661,12.165525060596439,13.152946437965905,11.045361017187261,17.26267650163207,13.152946437965905,13.5,19.0,13.0,5.0,1.0,2.0,4.0,5.0990195135927845,4.123105625617661,4.0,13.0,17.0,15.033296378372908
187,51,380,0,12.679333333333236,1.0,38.63935817272331,3.0,4.123105625617661,13.152946437965905,13.152946437965905,12.041594578792296,19.235384061671343,15.132745950421556,15.0,21.0,14.0,5.5,1.5,2.5,4.5,4.123105625617661,4.123105625617661,4.5,13.0,17.0,15.033296378372908
188,51,381,0,12.7126999999999,0.0,37.48332962798263,3.1622776601683795,6.082762530298219,11.180339887498949,12.165525060596439,11.045361017187261,20.223748416156685,14.142135623730951,14.0,20.0,14.0,6.0,3.0,2.0,4.0,5.0,4.123105625617661,4.0,13.0,18.0,15.0
189,51,382,0,12.746066666666566,1.0,37.48332962798263,3.1622776601683795,4.123105625617661,11.045361017187261,12.165525060596439,12.0,18.110770276274835,14.035668847618199,14.5,20.0,14.0,5.0,1.0,2.0,3.0,4.123105625617661,4.123105625617661,4.5,13.0,18.0,15.132745950421556
190,51,383,0,12.779433333333232,1.0,37.48332962798263,3.0,4.123105625617661,11.180339887498949,11.180339887498949,12.0,19.1049731745428,15.033296378372908,15.0,20.0,14.0,5.0,2.0,1.0,3.0,4.123105625617661,4.123105625617661,4.0,12.0,17.0,15.132745950421556
191,51,384,0,12.812799999999898,2.0,36.345563690772494,3.0,4.123105625617661,10.198039027185569,11.180339887498949,12.0,21.02379604162864,17.0,16.0,18.0,13.0,3.5,5.5,1.5,1.5,4.0,4.123105625617661,4.0,13.0,17.0,15.033296378372908
192,51,385,0,12.846166666666564,1.0,35.22782990761707,3.0,4.123105625617661,10.04987562112089,10.198039027185569,12.041594578792296,20.09975124224178,16.0312195418814,15.5,17.0,13.0,3.0,5.0,1.0,1.0,4.123105625617661,5.0990195135927845,4.5,13.0,17.0,17.029386365926403
193,51,386,0,12.87953333333323,1.0,37.33630940518894,3.1622776601683795,4.123105625617661,11.180339887498949,11.180339887498949,13.038404810405298,21.02379604162864,17.0,16.5,18.0,13.0,2.5,5.5,1.5,1.5,4.0,4.123105625617661,4.0,13.0,18.0,15.132745950421556
194,51,387,0,12.912899999999896,0.0,36.345563690772494,3.1622776601683795,4.123105625617661,10.198039027185569,10.198039027185569,12.0,19.1049731745428,15.033296378372908,15.0,18.0,13.0,3.5,3.5,0.5,1.5,4.123105625617661,3.1622776601683795,3.5,12.0,17.0,16.0312195418814
195,51,388,0,12.946266666666562,0.0,37.656340767525464,2.23606797749979,4.123105625617661,12.165525060596439,12.165525060596439,12.041594578792296,18.24828759089466,14.142135623730951,14.0,20.0,13.0,4.5,1.5,1.5,3.5,4.123105625617661,5.0990195135927845,4.5,12.0,17.0,15.033296378372908
196,51,389,0,12.979633333333227,1.0,37.656340767525464,3.0,5.0990195135927845,12.36931687685298,12.165525060596439,11.045361017187261,19.235384061671343,14.142135623730951,14.0,20.0,13.0,5.5,2.5,2.5,4.5,4.0,4.123105625617661,4.0,14.0,18.0,15.033296378372908
197,51,390,0,13.012999999999892,0.0,36.6742416417845,2.23606797749979,4.47213595499958,12.165525060596439,12.165525060596439,12.041594578792296,18.439088914585774,14.142135623730951,14.0,20.0,13.0,4.5,1.5,1.5,3.5,3.1622776601683795,4.123105625617661,4.0,13.0,17.0,16.0312195418814
198,51,391,0,13.04636666666656,0.0,38.63935817272331,2.23606797749979,5.0990195135927845,12.165525060596439,12.165525060596439,12.0,19.1049731745428,14.035668847618199,14.0,20.0,13.0,4.5,2.5,1.5,3.5,4.0,4.0,4.0,14.0,18.0,18.027756377319946
199,51,392,0,13.079733333333223,1.0,39.45883931389772,3.1622776601683795,5.0990195135927845,13.152946437965905,12.165525060596439,11.045361017187261,20.223748416156685,15.132745950421556,14.5,20.0,14.0,6.0,3.0,2.0,5.0,5.0,5.0990195135927845,5.0,15.0,19.0,18.027756377319946
200,51,393,0,13.113099999999893,1.0,38.63935817272331,4.123105625617661,5.385164807134504,12.165525060596439,12.165525060596439,10.0,20.223748416156685,15.033296378372908,14.5,20.0,13.0,6.5,3.5,1.5,3.5,5.0,5.0990195135927845,5.0,14.0,18.0,17.029386365926403
201,51,394,0,13.146466666666557,1.0,36.345563690772494,3.0,6.082762530298219,11.180339887498949,12.165525060596439,11.045361017187261,21.095023109728988,15.033296378372908,14.5,19.0,14.0,5.5,4.5,0.5,3.5,5.0990195135927845,4.0,4.0,14.0,18.0,16.1245154965971
202,51,395,0,13.179833333333224,1.4142135623730951,36.49657518178932,2.0,4.123105625617661,11.180339887498949,11.180339887498949,12.041594578792296,19.235384061671343,15.132745950421556,14.5,20.0,14.0,5.0,2.0,2.0,4.0,4.123105625617661,5.0990195135927845,4.5,15.0,19.0,15.132745950421556
203,51,396,0,13.213199999999889,0.0,36.49657518178932,3.0,5.0990195135927845,10.198039027185569,10.44030650891055,13.0,21.02379604162864,16.0,16.0,19.0,13.0,3.0,5.0,1.0,1.0,5.0990195135927845,4.0,4.5,15.0,19.0,17.029386365926403
204,51,397,0,13.246566666666554,1.0,36.49657518178932,3.1622776601683795,6.082762530298219,11.180339887498949,11.045361017187261,12.0,22.090722034374522,16.0312195418814,15.5,21.0,15.0,6.0,4.0,1.0,4.0,4.0,4.123105625617661,4.0,15.0,18.0,17.26267650163207
205,51,398,0,13.27993333333322,3.0,37.48332962798263,2.0,4.123105625617661,12.165525060596439,12.165525060596439,12.041594578792296,21.095023109728988,17.029386365926403,15.5,21.0,15.0,6.0,3.0,0.0,5.0,4.0,4.123105625617661,4.0,14.0,18.0,17.029386365926403
206,51,399,0,13.313299999999886,4.0,39.319206502675,2.23606797749979,4.123105625617661,13.152946437965905,13.152946437965905,12.0,22.090722034374522,18.027756377319946,16.0,20.0,15.0,5.5,4.5,0.5,5.5,4.123105625617661,4.123105625617661,3.5,14.0,17.0,17.029386365926403
207,51,400,0,13.346666666666552,3.1622776601683795,38.47076812334269,4.0,6.082762530298219,12.165525060596439,12.041594578792296,10.04987562112089,23.194827009486403,17.11724276862369,15.5,20.0,14.0,7.0,6.0,0.0,4.0,7.0710678118654755,6.082762530298219,6.5,14.0,17.0,17.029386365926403
208,51,401,0,13.380033333333218,2.23606797749979,39.45883931389772,3.0,6.082762530298219,12.041594578792296,13.152946437965905,11.045361017187261,22.20360331117452,16.1245154965971,15.0,20.0,14.0,6.0,5.0,0.0,4.0,6.0,5.0990195135927845,5.5,14.0,18.0,18.027756377319946
209,51,402,0,13.413399999999884,2.23606797749979,39.45883931389772,4.0,6.082762530298219,12.165525060596439,13.152946437965905,10.04987562112089,22.20360331117452,16.1245154965971,15.0,20.0,14.0,7.0,5.0,0.0,4.0,4.123105625617661,4.123105625617661,4.5,13.0,16.0,15.033296378372908
210,51,403,0,13.44676666666655,3.1622776601683795,38.3275357934736,3.0,4.123105625617661,11.180339887498949,12.165525060596439,11.045361017187261,21.213203435596427,17.11724276862369,15.5,20.0,15.0,6.5,3.5,0.5,4.5,4.0,4.123105625617661,4.0,14.0,17.0,17.11724276862369
211,51,404,0,13.480133333333216,3.1622776601683795,38.47076812334269,2.0,5.0990195135927845,12.165525060596439,12.165525060596439,12.041594578792296,22.20360331117452,17.11724276862369,15.5,20.0,14.0,5.0,5.0,0.0,4.0,5.0990195135927845,4.123105625617661,4.5,14.0,18.0,17.11724276862369
212,51,405,0,13.51349999999988,2.23606797749979,38.2099463490856,3.0,4.123105625617661,12.165525060596439,12.165525060596439,11.045361017187261,20.223748416156685,16.1245154965971,15.0,17.0,13.0,4.0,5.0,1.0,2.0,5.0990195135927845,5.0990195135927845,5.5,13.0,17.0,16.0312195418814
213,51,406,0,13.546866666666547,0.0,38.3275357934736,4.0,5.0990195135927845,11.045361017187261,11.180339887498949,11.045361017187261,20.09975124224178,15.033296378372908,15.0,18.0,13.0,4.5,4.5,0.5,1.5,5.0990195135927845,5.0990195135927845,5.0,13.0,17.0,16.0312195418814
214,51,407,0,13.580233333333211,0.0,39.45883931389772,4.123105625617661,5.0990195135927845,13.038404810405298,12.165525060596439,11.0,20.09975124224178,15.033296378372908,15.0,19.0,13.0,5.0,4.0,1.0,2.0,8.06225774829855,7.0710678118654755,7.5,14.0,18.0,15.033296378372908
215,51,408,0,13.61359999999988,1.0,38.47076812334269,2.0,5.0990195135927845,12.165525060596439,12.165525060596439,12.0,19.1049731745428,14.035668847618199,14.0,20.0,14.0,5.0,2.0,2.0,4.0,8.06225774829855,8.246211251235321,8.0,12.0,17.0,16.0312195418814
216,51,409,0,13.646966666666543,1.4142135623730951,39.319206502675,2.0,5.0,13.152946437965905,13.152946437965905,12.041594578792296,20.09975124224178,15.132745950421556,14.5,19.0,14.0,4.5,3.5,1.5,3.5,5.0990195135927845,5.0,5.5,14.0,17.0,18.110770276274835
217,51,410,0,13.68033333333321,1.4142135623730951,40.311288741492746,2.0,4.123105625617661,12.165525060596439,12.165525060596439,12.041594578792296,19.235384061671343,15.132745950421556,14.5,19.0,14.0,4.5,2.5,1.5,3.5,7.0,7.0710678118654755,7.0,14.0,18.0,15.033296378372908
218,51,411,0,13.713699999999877,1.0,40.311288741492746,3.0,6.082762530298219,11.045361017187261,12.165525060596439,11.045361017187261,20.223748416156685,14.142135623730951,14.0,19.0,14.0,5.5,3.5,1.5,3.5,7.0710678118654755,7.0710678118654755,7.0,13.0,16.0,16.0312195418814
219,51,412,0,13.747066666666544,1.4142135623730951,38.47076812334269,3.0,5.0990195135927845,12.165525060596439,12.041594578792296,12.041594578792296,21.213203435596427,16.1245154965971,15.5,19.0,13.0,4.0,5.0,0.0,3.0,6.082762530298219,6.082762530298219,5.5,14.0,18.0,18.110770276274835
220,51,413,0,13.780433333333209,0.0,39.319206502675,4.123105625617661,6.082762530298219,12.165525060596439,13.152946437965905,11.045361017187261,21.213203435596427,15.132745950421556,15.0,19.0,14.0,5.5,4.5,1.5,3.5,5.0,5.0990195135927845,5.0,14.0,18.0,17.11724276862369
221,51,414,0,13.813799999999874,0.0,39.319206502675,5.0990195135927845,5.0990195135927845,12.041594578792296,13.152946437965905,9.055385138137417,19.235384061671343,14.142135623730951,14.0,19.0,14.0,7.5,2.5,1.5,3.5,6.082762530298219,6.082762530298219,6.0,14.0,18.0,15.132745950421556
222,51,415,0,13.84716666666654,1.0,39.319206502675,4.0,5.0990195135927845,12.165525060596439,13.152946437965905,11.045361017187261,20.223748416156685,15.132745950421556,15.0,19.0,14.0,5.5,3.5,1.5,3.5,5.0990195135927845,5.0990195135927845,5.0,14.0,17.0,16.0312195418814
223,51,416,0,13.880533333333206,1.4142135623730951,40.44749683231337,3.0,6.082762530298219,11.180339887498949,12.041594578792296,10.198039027185569,20.396078054371138,14.317821063276353,13.5,19.0,13.0,6.0,4.0,1.0,4.0,8.0,8.06225774829855,7.5,14.0,17.0,16.0312195418814
224,51,417,0,13.913899999999872,3.1622776601683795,40.311288741492746,3.0,5.0990195135927845,12.165525060596439,12.165525060596439,10.04987562112089,21.213203435596427,16.1245154965971,14.5,19.0,14.0,6.5,4.5,0.5,4.5,6.082762530298219,7.0710678118654755,7.0,13.0,18.0,16.0312195418814
225,51,418,0,13.947266666666538,4.0,38.3275357934736,4.123105625617661,6.082762530298219,11.180339887498949,12.165525060596439,9.055385138137417,23.194827009486403,17.11724276862369,15.0,19.0,14.0,7.5,6.5,0.5,4.5,4.123105625617661,5.0990195135927845,5.0,14.0,18.0,16.0312195418814
226,51,419,0,13.980633333333204,3.1622776601683795,38.47076812334269,5.0990195135927845,6.0,13.152946437965905,13.152946437965905,9.055385138137417,23.194827009486403,17.26267650163207,15.5,20.0,14.0,8.0,6.0,0.0,4.0,5.0990195135927845,4.123105625617661,4.5,14.0,17.0,17.029386365926403
227,51,420,0,14.01399999999987,4.123105625617661,40.44749683231337,4.0,6.082762530298219,12.165525060596439,13.038404810405298,9.055385138137417,23.194827009486403,17.11724276862369,15.0,20.0,14.0,8.0,6.0,1.0,5.0,4.0,4.123105625617661,4.0,13.0,17.0,17.11724276862369
228,51,421,0,14.047366666666536,3.1622776601683795,38.3275357934736,4.0,5.0990195135927845,12.165525060596439,13.152946437965905,9.219544457292887,21.37755832643195,16.278820596099706,14.5,19.0,14.0,7.5,4.5,0.5,4.5,5.0990195135927845,4.123105625617661,4.0,14.0,17.0,15.033296378372908
229,51,422,0,14.0807333333332,1.0,37.48332962798263,3.0,6.082762530298219,12.165525060596439,12.165525060596439,10.198039027185569,19.4164878389476,13.341664064126334,13.0,19.0,13.0,6.0,3.0,2.0,4.0,5.0,4.123105625617661,4.0,14.0,17.0,16.1245154965971
230,51,423,0,14.114099999999867,1.0,39.6232255123179,4.123105625617661,5.0990195135927845,11.180339887498949,12.165525060596439,10.04987562112089,18.24828759089466,13.152946437965905,13.5,19.0,12.0,5.5,2.5,1.5,3.5,5.0,4.123105625617661,4.0,14.0,18.0,16.0312195418814
231,51,424,0,14.147466666666531,1.4142135623730951,40.44749683231337,4.123105625617661,5.0990195135927845,11.180339887498949,11.180339887498949,9.055385138137417,17.46424919657298,12.36931687685298,12.5,18.0,12.0,6.0,2.0,2.0,3.0,6.082762530298219,5.0990195135927845,5.5,13.0,17.0,17.029386365926403
232,51,425,0,14.1808333333332,1.4142135623730951,37.48332962798263,4.0,4.123105625617661,11.180339887498949,12.165525060596439,10.04987562112089,17.26267650163207,13.152946437965905,13.5,18.0,12.0,5.0,2.0,2.0,3.0,4.0,4.123105625617661,4.5,13.0,17.0,17.029386365926403
233,51,426,0,14.214199999999863,2.23606797749979,41.593268686170845,3.0,4.123105625617661,13.152946437965905,13.152946437965905,11.045361017187261,16.278820596099706,12.165525060596439,13.0,18.0,11.0,3.5,1.5,1.5,2.5,5.0,4.123105625617661,4.5,14.0,18.0,15.033296378372908
234,51,427,0,14.24756666666653,1.0,38.47076812334269,3.0,4.123105625617661,12.165525060596439,11.045361017187261,10.198039027185569,17.46424919657298,13.341664064126334,13.0,18.0,12.0,5.0,2.0,2.0,3.0,4.123105625617661,5.0990195135927845,5.0,13.0,17.0,18.027756377319946
235,51,428,0,14.280933333333197,1.0,40.607881008493905,4.123105625617661,5.0990195135927845,11.180339887498949,12.36931687685298,9.055385138137417,17.26267650163207,12.165525060596439,12.5,18.0,11.0,5.5,2.5,1.5,2.5,5.0990195135927845,5.0990195135927845,5.0,14.0,17.0,16.0312195418814
236,51,429,0,14.314299999999864,1.4142135623730951,39.45883931389772,4.0,5.0,12.165525060596439,13.152946437965905,9.055385138137417,17.11724276862369,12.165525060596439,12.5,17.0,11.0,5.0,3.0,1.0,2.0,5.0,4.123105625617661,4.5,13.0,17.0,16.0312195418814
237,51,430,0,14.347666666666528,1.0,40.19950248448356,4.0,5.0990195135927845,12.165525060596439,12.165525060596439,12.041594578792296,20.09975124224178,15.033296378372908,15.5,18.0,14.0,4.0,4.0,0.0,2.0,4.0,4.0,4.0,14.0,17.0,15.033296378372908
238,51,431,0,14.381033333333194,1.0,37.48332962798263,3.0,5.0,12.36931687685298,12.165525060596439,12.165525060596439,20.223748416156685,15.297058540778355,15.0,20.0,14.0,5.0,3.0,1.0,4.0,4.0,3.0,3.0,14.0,16.0,16.0
239,51,432,0,14.41439999999986,0.0,35.22782990761707,3.0,4.123105625617661,11.180339887498949,10.198039027185569,13.038404810405298,20.09975124224178,16.0312195418814,16.0,18.0,14.0,3.0,4.0,1.0,2.0,3.1622776601683795,3.0,3.0,14.0,16.0,16.0
240,51,433,0,14.447766666666526,1.0,36.87817782917155,3.0,4.123105625617661,11.180339887498949,11.40175425099138,12.041594578792296,19.235384061671343,15.132745950421556,15.0,21.0,13.0,5.0,2.0,2.0,4.0,3.1622776601683795,2.0,2.5,13.0,16.0,15.033296378372908
241,51,434,0,14.481133333333192,1.0,38.63935817272331,3.0,5.0990195135927845,13.152946437965905,13.152946437965905,11.180339887498949,19.4164878389476,14.317821063276353,14.0,20.0,13.0,5.5,2.5,1.5,3.5,4.123105625617661,3.1622776601683795,2.5,13.0,16.0,15.033296378372908
242,51,435,0,14.514499999999858,3.1622776601683795,38.63935817272331,3.0,5.0990195135927845,12.165525060596439,12.165525060596439,12.041594578792296,23.194827009486403,18.110770276274835,16.5,20.0,13.0,4.5,6.5,2.5,3.5,3.1622776601683795,3.1622776601683795,3.0,13.0,17.0,14.035668847618199
243,51,436,0,14.547866666666524,2.23606797749979,39.6232255123179,3.1622776601683795,5.0990195135927845,13.152946437965905,14.142135623730951,12.041594578792296,22.360679774997898,17.26267650163207,16.0,21.0,14.0,5.5,4.5,0.5,3.5,3.0,3.1622776601683795,3.0,13.0,17.0,15.033296378372908
244,51,437,0,14.58123333333319,1.4142135623730951,38.63935817272331,3.0,5.0990195135927845,12.165525060596439,11.180339887498949,12.041594578792296,21.213203435596427,16.1245154965971,15.5,20.0,13.0,4.5,4.5,0.5,2.5,2.23606797749979,2.23606797749979,1.5,14.0,18.0,16.0312195418814
245,51,438,0,14.614599999999855,0.0,39.6232255123179,2.23606797749979,5.0990195135927845,12.36931687685298,12.165525060596439,12.041594578792296,19.235384061671343,14.142135623730951,14.0,19.0,12.0,3.5,3.5,1.5,3.5,3.1622776601683795,3.0,3.0,13.0,18.0,15.033296378372908
246,51,439,0,14.64796666666652,0.0,42.2965719651132,5.0,6.082762530298219,12.041594578792296,12.165525060596439,10.04987562112089,21.095023109728988,15.033296378372908,15.0,16.0,11.0,3.5,7.5,1.5,0.5,3.1622776601683795,3.0,2.5,13.0,18.0,15.132745950421556
247,51,440,0,14.681333333333187,1.4142135623730951,39.319206502675,4.0,6.082762530298219,12.165525060596439,12.165525060596439,11.045361017187261,22.20360331117452,16.1245154965971,15.5,17.0,12.0,3.5,7.5,1.5,0.5,3.0,3.1622776601683795,2.5,13.0,19.0,16.1245154965971
248,51,441,0,14.714699999999851,1.4142135623730951,37.8549864614954,3.1622776601683795,5.0990195135927845,13.152946437965905,13.341664064126334,12.041594578792296,21.37755832643195,16.278820596099706,15.5,20.0,12.0,4.0,5.0,0.0,3.0,3.1622776601683795,3.1622776601683795,3.0,12.0,18.0,15.132745950421556
249,51,442,0,14.74806666666652,1.4142135623730951,38.8329756778952,2.23606797749979,6.082762530298219,13.152946437965905,12.36931687685298,12.165525060596439,21.587033144922902,15.524174696260024,14.5,20.0,12.0,4.0,5.0,0.0,3.0,4.0,3.0,3.0,11.0,17.0,15.132745950421556
250,51,443,0,14.781433333333185,1.0,39.81205847478876,3.0,6.082762530298219,12.36931687685298,12.36931687685298,12.165525060596439,21.37755832643195,15.297058540778355,15.0,20.0,12.0,4.0,5.0,0.0,3.0,3.1622776601683795,3.1622776601683795,3.0,12.0,18.0,16.278820596099706
251,51,444,0,14.81479999999985,1.0,39.319206502675,3.1622776601683795,6.082762530298219,12.165525060596439,12.165525060596439,12.041594578792296,22.20360331117452,16.1245154965971,15.5,16.0,11.0,1.5,8.5,2.5,0.5,3.0,3.0,3.0,12.0,18.0,15.132745950421556
252,51,445,0,14.848166666666517,1.0,39.6232255123179,3.1622776601683795,5.0990195135927845,11.180339887498949,12.36931687685298,12.041594578792296,20.396078054371138,15.297058540778355,15.0,18.0,11.0,2.5,5.5,0.5,1.5,2.23606797749979,3.1622776601683795,2.5,13.0,18.0,16.1245154965971
253,51,446,0,14.881533333333184,1.0,36.87817782917155,2.0,5.0990195135927845,12.36931687685298,12.36931687685298,12.165525060596439,19.4164878389476,14.317821063276353,14.0,19.0,11.0,3.0,4.0,0.0,3.0,3.1622776601683795,3.1622776601683795,3.0,12.0,18.0,14.142135623730951
254,51,447,0,14.914899999999848,1.0,36.87817782917155,4.123105625617661,6.082762530298219,11.40175425099138,11.40175425099138,10.04987562112089,20.396078054371138,14.317821063276353,14.0,18.0,10.0,4.0,6.0,0.0,2.0,3.1622776601683795,3.1622776601683795,3.5,12.0,17.0,16.278820596099706
255,51,448,0,14.948266666666514,1.0,36.87817782917155,3.1622776601683795,5.0990195135927845,12.165525060596439,12.36931687685298,11.045361017187261,19.4164878389476,14.317821063276353,14.0,19.0,11.0,4.0,4.0,0.0,2.0,3.0,3.1622776601683795,3.0,11.0,17.0,16.1245154965971
256,51,449,0,14.98163333333318,1.0,38.8329756778952,4.0,5.0990195135927845,12.165525060596439,12.36931687685298,11.40175425099138,20.615528128088304,15.524174696260024,15.0,20.0,12.0,5.0,4.0,1.0,3.0,3.1622776601683795,3.1622776601683795,2.5,13.0,18.0,16.1245154965971
257,51,450,0,15.014999999999846,1.0,37.656340767525464,4.123105625617661,5.0990195135927845,12.165525060596439,13.152946437965905,11.045361017187261,20.396078054371138,15.297058540778355,15.0,19.0,12.0,4.5,4.5,0.5,2.5,4.123105625617661,3.0,3.0,13.0,17.0,15.033296378372908
258,51,451,0,15.048366666666512,1.0,40.19950248448356,4.123105625617661,6.082762530298219,12.165525060596439,12.165525060596439,11.0,22.090722034374522,16.0312195418814,15.5,17.0,13.0,4.0,7.0,1.0,1.0,4.0,4.0,4.0,12.0,17.0,16.1245154965971
259,51,452,0,15.081733333333178,1.4142135623730951,40.607881008493905,4.0,5.0990195135927845,13.152946437965905,13.152946437965905,12.041594578792296,22.20360331117452,17.11724276862369,16.5,21.0,14.0,5.5,4.5,0.5,3.5,4.0,4.123105625617661,3.5,12.0,17.0,16.1245154965971
260,51,453,0,15.115099999999844,3.1622776601683795,38.2099463490856,4.0,5.0990195135927845,11.180339887498949,12.165525060596439,11.0,23.08679276123039,18.027756377319946,16.5,17.0,13.0,4.0,8.0,3.0,1.0,4.0,4.123105625617661,4.0,13.0,18.0,15.132745950421556
261,51,454,0,15.14846666666651,3.0,38.47076812334269,4.123105625617661,5.0990195135927845,12.165525060596439,12.165525060596439,12.0,24.08318915758459,19.026297590440446,17.5,20.0,14.0,5.0,7.0,2.0,3.0,3.1622776601683795,4.0,3.5,13.0,18.0,15.132745950421556
262,51,455,0,15.181833333333175,4.123105625617661,38.2099463490856,4.123105625617661,5.0990195135927845,12.165525060596439,13.152946437965905,12.0,25.179356624028344,20.09975124224178,18.0,19.0,15.0,5.0,8.0,3.0,3.0,3.1622776601683795,3.0,3.0,13.0,17.0,15.033296378372908
263,51,456,0,15.21519999999984,4.0,39.20459156782532,3.1622776601683795,5.0990195135927845,13.152946437965905,13.152946437965905,12.041594578792296,24.186773244895647,19.1049731745428,17.0,18.0,14.0,4.0,8.0,3.0,3.0,3.0,3.1622776601683795,3.0,13.0,17.0,16.1245154965971
264,51,457,0,15.248566666666507,3.1622776601683795,39.20459156782532,4.0,5.0990195135927845,12.165525060596439,12.165525060596439,11.045361017187261,23.194827009486403,18.110770276274835,16.5,18.0,14.0,5.0,7.0,2.0,2.0,2.23606797749979,2.0,2.0,13.0,18.0,17.26267650163207
265,51,458,0,15.281933333333171,3.1622776601683795,36.345563690772494,2.23606797749979,4.123105625617661,11.180339887498949,12.165525060596439,12.041594578792296,21.37755832643195,17.26267650163207,15.5,18.0,13.0,3.5,5.5,1.5,2.5,2.23606797749979,2.23606797749979,2.0,13.0,17.0,15.033296378372908
266,51,459,0,15.31529999999984,3.1622776601683795,38.3275357934736,4.0,6.082762530298219,11.045361017187261,12.165525060596439,11.0,24.08318915758459,18.027756377319946,16.5,18.0,13.0,4.5,8.5,3.5,1.5,2.23606797749979,2.0,1.5,14.0,19.0,16.1245154965971
267,51,460,0,15.348666666666505,5.385164807134504,39.6232255123179,2.0,4.123105625617661,13.152946437965905,13.152946437965905,12.041594578792296,23.345235059857504,19.235384061671343,16.5,21.0,14.0,5.5,5.5,2.5,4.5,3.1622776601683795,2.23606797749979,2.5,12.0,18.0,15.132745950421556
268,51,461,0,15.38203333333317,5.0990195135927845,38.63935817272331,4.123105625617661,5.0990195135927845,13.341664064126334,13.152946437965905,10.04987562112089,24.331050121192877,19.235384061671343,16.5,21.0,14.0,7.5,6.5,1.5,5.5,3.0,4.0,3.5,12.0,17.0,17.11724276862369
269,51,462,0,15.415399999999837,5.0990195135927845,39.6232255123179,3.1622776601683795,4.123105625617661,13.341664064126334,13.341664064126334,12.041594578792296,24.331050121192877,20.223748416156685,17.5,22.0,15.0,6.5,5.5,1.5,5.5,3.1622776601683795,4.0,4.0,12.0,17.0,16.1245154965971
270,51,463,0,15.448766666666502,5.0990195135927845,39.81205847478876,3.1622776601683795,5.0990195135927845,12.36931687685298,12.36931687685298,11.045361017187261,24.331050121192877,19.235384061671343,16.5,21.0,13.0,6.0,7.0,3.0,5.0,3.1622776601683795,4.0,3.5,11.0,16.0,15.132745950421556
271,51,464,0,15.482133333333168,6.082762530298219,39.45883931389772,2.23606797749979,4.123105625617661,13.152946437965905,14.317821063276353,11.045361017187261,23.345235059857504,19.235384061671343,16.0,20.0,14.0,6.0,6.0,2.0,5.0,4.123105625617661,4.123105625617661,4.0,12.0,17.0,16.1245154965971
272,51,465,0,15.515499999999834,2.8284271247461903,36.6742416417845,3.0,5.0990195135927845,12.165525060596439,12.165525060596439,12.0,22.20360331117452,17.11724276862369,16.0,21.0,14.0,5.5,4.5,0.5,3.5,4.123105625617661,3.1622776601683795,3.5,12.0,17.0,16.1245154965971
273,51,466,0,15.5488666666665,1.4142135623730951,35.6931365951495,3.0,5.0990195135927845,11.180339887498949,11.180339887498949,12.041594578792296,21.213203435596427,16.1245154965971,15.5,21.0,14.0,5.5,3.5,1.5,3.5,4.0,4.0,4.5,11.0,18.0,16.0312195418814
274,51,467,0,15.582233333333166,1.0,35.510561809129406,3.0,4.123105625617661,11.180339887498949,10.44030650891055,12.041594578792296,20.09975124224178,16.0312195418814,15.5,18.0,12.0,3.0,5.0,2.0,1.0,4.123105625617661,4.0,4.0,11.0,18.0,16.1245154965971
275,51,468,0,15.615599999999832,1.0,34.52535300326414,3.0,5.0990195135927845,10.198039027185569,11.40175425099138,12.041594578792296,20.223748416156685,15.132745950421556,15.0,18.0,12.0,3.0,5.0,1.0,2.0,4.123105625617661,4.123105625617661,4.0,12.0,18.0,15.132745950421556
276,51,469,0,15.648966666666498,1.4142135623730951,35.6931365951495,3.0,6.082762530298219,11.180339887498949,12.36931687685298,12.0,22.090722034374522,16.0312195418814,15.5,19.0,12.0,3.5,6.5,1.5,1.5,4.0,4.123105625617661,4.0,12.0,19.0,15.132745950421556
277,51,470,0,15.682333333333164,0.0,34.36568055487916,3.1622776601683795,6.0,10.198039027185569,10.44030650891055,12.0,21.02379604162864,15.033296378372908,15.0,18.0,13.0,3.5,5.5,0.5,1.5,4.123105625617661,4.123105625617661,4.5,11.0,18.0,16.1245154965971
278,51,471,0,15.71569999999983,0.0,36.87817782917155,3.1622776601683795,6.082762530298219,12.165525060596439,12.165525060596439,13.038404810405298,22.20360331117452,16.1245154965971,16.0,22.0,14.0,5.0,4.0,1.0,4.0,5.0990195135927845,5.0990195135927845,4.5,11.0,17.0,17.26267650163207
279,51,472,0,15.749066666666495,1.0,35.22782990761707,4.123105625617661,7.0710678118654755,11.180339887498949,12.165525060596439,11.045361017187261,23.194827009486403,16.1245154965971,15.5,17.0,13.0,4.0,8.0,1.0,1.0,4.123105625617661,5.0990195135927845,4.5,13.0,19.0,16.278820596099706
280,51,473,0,15.78243333333316,1.4142135623730951,34.713109915419565,3.1622776601683795,6.082762530298219,11.180339887498949,12.165525060596439,12.041594578792296,22.360679774997898,16.278820596099706,15.5,21.0,14.0,5.5,4.5,1.5,3.5,4.123105625617661,4.123105625617661,4.5,12.0,17.0,15.132745950421556
281,51,474,0,15.815799999999829,1.4142135623730951,35.90264614203248,3.1622776601683795,5.0990195135927845,11.180339887498949,12.36931687685298,12.0,21.213203435596427,16.1245154965971,15.5,21.0,13.0,5.0,4.0,0.0,4.0,4.123105625617661,4.123105625617661,4.0,11.0,16.0,15.132745950421556
282,51,475,0,15.849166666666491,3.0,38.3275357934736,5.0990195135927845,7.0710678118654755,11.045361017187261,12.165525060596439,10.0,25.079872407968907,18.027756377319946,16.5,17.0,12.0,4.5,10.5,4.5,0.5,5.0,4.123105625617661,4.0,12.0,19.0,16.1245154965971
283,51,476,0,15.88253333333316,3.0,39.20459156782532,4.123105625617661,5.0990195135927845,11.045361017187261,11.180339887498949,11.0,23.08679276123039,18.027756377319946,16.5,17.0,13.0,4.0,8.0,3.0,1.0,4.0,4.47213595499958,4.5,11.0,17.0,16.1245154965971
284,51,477,0,15.915899999999825,4.47213595499958,40.44749683231337,3.0,5.0990195135927845,13.152946437965905,13.152946437965905,11.045361017187261,23.345235059857504,18.24828759089466,16.0,18.0,12.0,4.0,8.0,3.0,2.0,4.0,4.123105625617661,4.0,10.0,17.0,15.132745950421556
285,51,478,0,15.94926666666649,0.0,42.42640687119285,4.123105625617661,3.1622776601683795,11.180339887498949,12.36931687685298,12.0,19.1049731745428,16.0312195418814,16.0,17.0,11.0,2.0,5.0,2.0,1.0,4.123105625617661,4.123105625617661,4.0,11.0,18.0,16.1245154965971
286,51,479,0,15.982633333333157,1.0,38.63935817272331,2.23606797749979,4.123105625617661,12.36931687685298,11.40175425099138,12.041594578792296,18.439088914585774,14.317821063276353,14.0,18.0,11.0,2.5,3.5,0.5,2.5,4.123105625617661,4.123105625617661,4.0,12.0,18.0,14.142135623730951
287,51,480,0,16.015999999999824,1.4142135623730951,38.63935817272331,2.0,4.123105625617661,12.36931687685298,12.165525060596439,12.041594578792296,17.26267650163207,13.152946437965905,13.5,17.0,10.0,1.5,3.5,0.5,1.5,4.123105625617661,4.123105625617661,4.0,12.0,18.0,15.297058540778355
288,51,481,0,16.04936666666649,2.23606797749979,39.81205847478876,4.123105625617661,5.0990195135927845,12.165525060596439,12.36931687685298,10.04987562112089,17.46424919657298,12.36931687685298,13.0,18.0,10.0,4.0,3.0,1.0,2.0,4.123105625617661,4.123105625617661,4.0,12.0,18.0,16.278820596099706
289,51,482,0,16.082733333333156,1.4142135623730951,40.792156108742276,3.1622776601683795,5.0990195135927845,13.152946437965905,12.36931687685298,10.04987562112089,17.46424919657298,12.36931687685298,12.5,18.0,10.0,4.0,3.0,1.0,2.0,5.0990195135927845,4.123105625617661,4.0,12.0,18.0,16.1245154965971
290,51,483,0,16.116099999999822,1.0,40.792156108742276,3.0,4.123105625617661,12.165525060596439,12.36931687685298,10.04987562112089,17.26267650163207,13.152946437965905,13.0,17.0,9.0,3.0,4.0,0.0,1.0,4.0,4.123105625617661,4.0,12.0,18.0,16.1245154965971
291,51,484,0,16.149466666666488,1.4142135623730951,39.45883931389772,4.0,6.082762530298219,12.36931687685298,12.36931687685298,10.04987562112089,19.235384061671343,13.152946437965905,13.5,16.0,10.0,3.0,6.0,1.0,1.0,4.0,4.123105625617661,4.0,12.0,18.0,17.11724276862369
292,51,485,0,16.182833333333154,1.4142135623730951,40.792156108742276,4.0,5.0990195135927845,12.165525060596439,12.36931687685298,10.04987562112089,18.24828759089466,13.152946437965905,13.5,17.0,9.0,3.0,5.0,1.0,1.0,4.123105625617661,4.123105625617661,4.0,11.0,17.0,16.1245154965971
293,51,486,0,16.21619999999982,1.4142135623730951,42.2965719651132,3.0,5.0990195135927845,12.165525060596439,11.40175425099138,11.045361017187261,20.223748416156685,15.132745950421556,14.5,15.0,10.0,1.5,7.5,2.5,0.5,4.0,4.123105625617661,4.0,12.0,18.0,17.11724276862369
294,51,487,0,16.249566666666485,1.0,41.593268686170845,3.0,4.47213595499958,12.36931687685298,13.341664064126334,11.045361017187261,18.439088914585774,14.142135623730951,14.0,17.0,10.0,2.5,4.5,0.5,1.5,5.0990195135927845,5.0990195135927845,4.5,13.0,19.0,16.278820596099706
295,51,488,0,16.28293333333315,1.4142135623730951,41.593268686170845,4.123105625617661,4.123105625617661,12.36931687685298,12.165525060596439,10.0,17.26267650163207,13.152946437965905,13.5,18.0,11.0,4.5,2.5,0.5,2.5,4.123105625617661,4.123105625617661,4.5,12.0,18.0,15.132745950421556
296,51,489,0,16.316299999999817,1.0,42.2965719651132,3.0,4.123105625617661,12.36931687685298,12.165525060596439,12.0,19.1049731745428,15.033296378372908,15.0,16.0,11.0,1.5,5.5,2.5,0.5,4.0,3.1622776601683795,3.5,11.0,18.0,18.24828759089466
297,51,490,0,16.349666666666483,1.4142135623730951,41.773197148410844,3.1622776601683795,5.0990195135927845,12.36931687685298,13.152946437965905,12.041594578792296,19.4164878389476,14.317821063276353,14.5,20.0,12.0,4.0,3.0,1.0,3.0,3.1622776601683795,4.123105625617661,4.0,12.0,16.0,16.1245154965971
298,51,491,0,16.38303333333315,2.23606797749979,40.792156108742276,3.0,5.0990195135927845,12.165525060596439,13.152946437965905,12.0,19.235384061671343,14.142135623730951,14.5,20.0,12.0,4.0,3.0,1.0,2.0,3.1622776601683795,4.123105625617661,3.5,11.0,17.0,15.132745950421556
299,51,492,0,16.416399999999815,1.4142135623730951,40.607881008493905,3.1622776601683795,5.0990195135927845,13.341664064126334,13.341664064126334,12.041594578792296,19.4164878389476,14.317821063276353,14.5,19.0,12.0,3.5,3.5,0.5,2.5,4.0,3.1622776601683795,3.0,11.0,16.0,15.132745950421556
300,51,493,0,16.44976666666648,1.0,42.2965719651132,3.1622776601683795,5.0990195135927845,11.180339887498949,12.165525060596439,12.0,19.1049731745428,14.035668847618199,14.5,15.0,10.0,0.5,6.5,1.5,0.5,4.0,4.123105625617661,4.0,11.0,16.0,15.132745950421556
301,51,494,0,16.483133333333146,1.4142135623730951,39.6232255123179,3.1622776601683795,5.0990195135927845,11.180339887498949,12.165525060596439,11.0,18.24828759089466,13.152946437965905,13.5,19.0,12.0,4.5,2.5,1.5,2.5,3.0,3.1622776601683795,3.0,12.0,18.0,17.029386365926403
302,51,495,0,16.516499999999812,1.0,39.6232255123179,3.1622776601683795,4.123105625617661,12.165525060596439,12.165525060596439,11.045361017187261,18.439088914585774,14.317821063276353,14.0,19.0,12.0,4.5,2.5,1.5,2.5,4.123105625617661,4.123105625617661,4.5,12.0,17.0,16.1245154965971
303,51,496,0,16.549866666666478,1.0,39.81205847478876,2.0,5.0990195135927845,13.152946437965905,13.341664064126334,12.165525060596439,19.4164878389476,14.317821063276353,14.0,20.0,12.0,4.0,3.0,1.0,3.0,4.123105625617661,4.123105625617661,4.0,11.0,16.0,16.1245154965971
304,51,497,0,16.583233333333144,1.0,39.6232255123179,3.0,5.0990195135927845,12.165525060596439,12.36931687685298,11.045361017187261,19.235384061671343,14.142135623730951,14.0,19.0,12.0,4.5,3.5,1.5,2.5,5.0,4.0,4.5,12.0,17.0,15.033296378372908
305,51,498,0,16.61659999999981,1.4142135623730951,40.792156108742276,2.23606797749979,5.0990195135927845,13.152946437965905,13.152946437965905,12.041594578792296,20.396078054371138,15.297058540778355,14.5,20.0,12.0,4.0,4.0,0.0,3.0,4.0,4.123105625617661,4.0,12.0,18.0,16.1245154965971
306,51,499,0,16.649966666666476,1.4142135623730951,39.6232255123179,3.0,4.123105625617661,12.165525060596439,12.165525060596439,11.045361017187261,19.235384061671343,15.132745950421556,14.5,19.0,12.0,4.5,3.5,0.5,2.5,5.0,4.123105625617661,4.5,12.0,18.0,16.1245154965971
307,51,500,0,16.68333333333314,1.4142135623730951,39.81205847478876,2.23606797749979,5.385164807134504,13.341664064126334,13.341664064126334,12.0,20.396078054371138,15.132745950421556,14.5,20.0,12.0,4.0,4.0,0.0,4.0,4.123105625617661,4.123105625617661,4.5,12.0,17.0,16.1245154965971
308,51,501,0,16.716699999999808,1.4142135623730951,39.6232255123179,3.1622776601683795,5.0990195135927845,13.341664064126334,14.317821063276353,12.041594578792296,21.37755832643195,16.278820596099706,15.5,20.0,13.0,4.5,4.5,0.5,3.5,4.123105625617661,4.123105625617661,4.5,13.0,17.0,15.033296378372908
309,51,502,0,16.750066666666473,2.23606797749979,39.6232255123179,4.123105625617661,6.082762530298219,13.038404810405298,13.152946437965905,11.045361017187261,23.345235059857504,17.26267650163207,16.0,20.0,13.0,5.5,6.5,0.5,2.5,4.123105625617661,4.123105625617661,4.5,12.0,17.0,17.11724276862369
310,51,503,0,16.78343333333314,2.23606797749979,38.63935817272331,3.1622776601683795,4.123105625617661,12.165525060596439,12.165525060596439,12.0,21.213203435596427,17.11724276862369,16.0,20.0,13.0,4.5,4.5,0.5,3.5,4.123105625617661,4.123105625617661,4.0,12.0,17.0,16.1245154965971
311,51,504,0,16.816799999999805,3.1622776601683795,35.90264614203248,3.1622776601683795,6.082762530298219,12.165525060596439,12.165525060596439,11.0,23.194827009486403,17.11724276862369,15.5,20.0,12.0,5.0,7.0,2.0,3.0,4.0,3.1622776601683795,3.5,13.0,18.0,16.1245154965971
312,51,505,0,16.85016666666647,3.1622776601683795,37.8549864614954,3.0,5.0990195135927845,12.165525060596439,13.152946437965905,11.045361017187261,22.20360331117452,17.11724276862369,15.5,21.0,13.0,6.0,5.0,1.0,4.0,3.1622776601683795,4.0,4.0,13.0,17.0,15.132745950421556
313,51,506,0,16.883533333333137,3.1622776601683795,39.6232255123179,4.0,6.082762530298219,12.36931687685298,12.36931687685298,11.045361017187261,24.186773244895647,18.110770276274835,16.5,21.0,14.0,6.5,6.5,1.5,4.5,4.123105625617661,4.123105625617661,4.0,13.0,18.0,16.1245154965971
314,51,507,0,16.916899999999803,3.1622776601683795,37.33630940518894,3.0,5.0990195135927845,11.180339887498949,11.180339887498949,12.041594578792296,23.194827009486403,18.110770276274835,16.5,18.0,13.0,3.5,7.5,2.5,1.5,4.0,4.123105625617661,3.5,14.0,19.0,17.11724276862369
315,51,508,0,16.95026666666647,4.0,35.510561809129406,4.123105625617661,6.082762530298219,12.165525060596439,12.165525060596439,10.04987562112089,24.186773244895647,18.110770276274835,16.0,19.0,13.0,6.0,8.0,2.0,3.0,5.0990195135927845,4.123105625617661,4.0,13.0,18.0,17.11724276862369
316,51,509,0,16.983633333333135,3.1622776601683795,38.63935817272331,4.123105625617661,6.082762530298219,12.165525060596439,13.341664064126334,10.04987562112089,23.345235059857504,17.26267650163207,15.5,21.0,14.0,7.5,5.5,0.5,4.5,4.123105625617661,5.0,4.5,14.0,18.0,15.132745950421556
317,51,510,0,17.0169999999998,3.1622776601683795,35.6931365951495,4.123105625617661,7.0710678118654755,12.165525060596439,12.36931687685298,10.04987562112089,24.331050121192877,17.26267650163207,15.5,20.0,13.0,6.5,7.5,1.5,3.5,4.123105625617661,4.0,4.0,13.0,17.0,16.0312195418814
318,51,511,0,17.050366666666466,4.123105625617661,38.47076812334269,2.23606797749979,5.0990195135927845,13.152946437965905,13.152946437965905,12.041594578792296,23.345235059857504,18.24828759089466,16.0,20.0,14.0,5.0,6.0,1.0,4.0,4.0,4.123105625617661,4.0,13.0,18.0,16.0312195418814
319,51,512,0,17.083733333333132,3.1622776601683795,38.47076812334269,3.0,6.082762530298219,12.041594578792296,12.165525060596439,12.041594578792296,24.186773244895647,18.110770276274835,16.5,19.0,13.0,4.0,8.0,2.0,2.0,4.123105625617661,4.0,4.0,12.0,16.0,15.132745950421556
320,51,513,0,17.117099999999798,4.123105625617661,35.6931365951495,2.0,6.082762530298219,11.180339887498949,11.180339887498949,12.041594578792296,24.186773244895647,18.110770276274835,16.0,20.0,13.0,4.5,7.5,1.5,3.5,4.0,4.123105625617661,4.0,12.0,17.0,15.132745950421556
321,51,514,0,17.150466666666464,2.23606797749979,35.6931365951495,3.0,5.0990195135927845,11.180339887498949,12.165525060596439,12.041594578792296,22.20360331117452,17.11724276862369,16.0,20.0,13.0,4.5,5.5,0.5,3.5,4.123105625617661,4.123105625617661,4.0,13.0,17.0,17.11724276862369
322,51,515,0,17.18383333333313,1.4142135623730951,39.319206502675,4.0,7.0710678118654755,12.165525060596439,12.165525060596439,11.0,23.08679276123039,16.0312195418814,15.5,17.0,12.0,3.5,8.5,2.5,0.5,5.0990195135927845,4.123105625617661,4.0,14.0,18.0,17.11724276862369
323,51,516,0,17.217199999999796,2.23606797749979,38.63935817272331,2.0,5.0990195135927845,12.165525060596439,12.165525060596439,12.041594578792296,21.213203435596427,16.1245154965971,15.0,20.0,13.0,4.5,4.5,0.5,3.5,4.0,4.123105625617661,4.0,13.0,17.0,16.0312195418814
324,51,517,0,17.25056666666646,1.4142135623730951,37.656340767525464,3.0,6.082762530298219,12.165525060596439,12.165525060596439,12.165525060596439,22.360679774997898,16.278820596099706,15.5,20.0,13.0,4.5,5.5,0.5,3.5,4.123105625617661,4.123105625617661,4.0,13.0,17.0,17.11724276862369
325,51,518,0,17.283933333333128,1.0,38.63935817272331,3.0,5.385164807134504,12.165525060596439,13.152946437965905,12.041594578792296,20.396078054371138,15.132745950421556,15.0,21.0,14.0,5.5,2.5,1.5,3.5,4.0,3.1622776601683795,3.5,12.0,17.0,16.1245154965971
326,51,519,0,17.317299999999793,1.0,38.8329756778952,4.0,5.0990195135927845,12.165525060596439,13.341664064126334,12.041594578792296,21.213203435596427,16.1245154965971,16.0,21.0,13.0,5.0,4.0,1.0,3.0,4.0,4.0,4.0,13.0,17.0,18.110770276274835
327,51,520,0,17.35066666666646,1.0,39.6232255123179,3.1622776601683795,5.0990195135927845,13.341664064126334,13.341664064126334,12.041594578792296,21.213203435596427,16.1245154965971,15.5,21.0,14.0,5.5,3.5,1.5,4.5,4.0,4.0,4.0,13.0,17.0,17.11724276862369
328,51,521,0,17.384033333333125,1.4142135623730951,38.47076812334269,4.0,6.082762530298219,12.165525060596439,12.36931687685298,11.045361017187261,22.20360331117452,16.1245154965971,15.5,20.0,14.0,6.0,5.0,1.0,3.0,3.0,3.1622776601683795,3.5,13.0,18.0,17.11724276862369
329,51,522,0,17.41739999999979,1.4142135623730951,39.6232255123179,3.0,5.385164807134504,13.152946437965905,13.341664064126334,11.045361017187261,20.396078054371138,15.132745950421556,14.5,20.0,13.0,5.5,3.5,1.5,3.5,3.1622776601683795,3.1622776601683795,3.0,13.0,17.0,16.1245154965971
330,51,523,0,17.450766666666457,1.4142135623730951,40.607881008493905,3.0,6.082762530298219,12.36931687685298,13.152946437965905,12.041594578792296,22.20360331117452,16.1245154965971,15.5,21.0,14.0,5.5,4.5,0.5,4.5,4.123105625617661,4.123105625617661,4.0,12.0,17.0,16.1245154965971
331,51,524,0,17.484133333333123,1.0,38.47076812334269,3.0,5.0990195135927845,12.165525060596439,12.165525060596439,12.0,20.09975124224178,15.033296378372908,15.0,20.0,14.0,5.0,3.0,1.0,4.0,6.082762530298219,6.082762530298219,6.0,11.0,16.0,17.029386365926403
332,51,525,0,17.51749999999979,1.0,37.656340767525464,3.0,6.082762530298219,11.180339887498949,12.165525060596439,12.0,21.095023109728988,15.033296378372908,15.0,20.0,13.0,4.5,4.5,0.5,2.5,5.0990195135927845,6.0,5.5,15.0,18.0,16.0312195418814
333,51,526,0,17.550866666666455,1.0,39.20459156782532,3.0,4.0,12.041594578792296,12.165525060596439,12.041594578792296,19.0,15.0,15.0,16.0,12.0,2.0,5.0,1.0,0.0,3.0,3.1622776601683795,3.0,15.0,17.0,18.0
334,51,527,0,17.58423333333312,1.0,39.11521443121589,4.0,6.0,12.041594578792296,12.041594578792296,11.0,21.02379604162864,15.033296378372908,15.0,17.0,14.0,4.5,5.5,0.5,1.5,3.0,2.0,2.5,15.0,17.0,19.026297590440446
335,51,528,0,17.617599999999786,1.0,36.345563690772494,3.0,6.082762530298219,12.041594578792296,11.180339887498949,11.045361017187261,20.223748416156685,14.142135623730951,14.0,17.0,12.0,3.5,5.5,0.5,1.5,3.1622776601683795,3.0,2.5,15.0,16.0,17.11724276862369
336,51,529,0,17.650966666666452,0.0,38.47076812334269,4.123105625617661,6.082762530298219,12.165525060596439,12.165525060596439,10.0,20.09975124224178,14.035668847618199,14.0,18.0,12.0,5.0,5.0,0.0,3.0,4.123105625617661,3.0,3.0,16.0,17.0,18.110770276274835
337,51,530,0,17.684333333333118,1.4142135623730951,38.3275357934736,3.0,6.082762530298219,12.041594578792296,13.152946437965905,11.0,21.095023109728988,15.033296378372908,14.5,18.0,13.0,4.5,5.5,0.5,2.5,3.0,3.0,3.0,15.0,17.0,18.027756377319946
338,51,531,0,17.717699999999784,1.0,38.47076812334269,3.0,6.0,12.041594578792296,12.165525060596439,11.045361017187261,20.09975124224178,14.142135623730951,14.0,18.0,12.0,4.0,5.0,1.0,2.0,3.0,3.0,2.5,14.0,17.0,19.026297590440446
339,51,532,0,17.75106666666645,1.0,37.21558813185679,3.0,6.082762530298219,12.165525060596439,11.180339887498949,11.0,20.09975124224178,14.035668847618199,14.0,16.0,12.0,3.0,6.0,1.0,2.0,3.0,3.0,3.0,15.0,18.0,19.026297590440446
340,51,533,0,17.784433333333116,1.0,40.19950248448356,3.0,5.0990195135927845,12.041594578792296,12.165525060596439,11.045361017187261,20.0,15.033296378372908,14.5,16.0,12.0,3.0,6.0,1.0,1.0,3.1622776601683795,3.1622776601683795,3.0,14.0,17.0,18.027756377319946
341,51,534,0,17.81779999999978,1.4142135623730951,38.118237105091836,3.0,6.082762530298219,11.045361017187261,12.165525060596439,12.041594578792296,22.02271554554524,16.0,15.5,16.0,13.0,2.5,7.5,1.5,0.5,3.1622776601683795,2.23606797749979,2.5,15.0,18.0,19.026297590440446
342,51,535,0,17.851166666666447,1.4142135623730951,38.118237105091836,3.0,6.0,11.045361017187261,12.041594578792296,11.0,21.02379604162864,15.033296378372908,14.5,16.0,13.0,3.5,6.5,0.5,1.5,3.1622776601683795,2.0,2.0,14.0,18.0,18.110770276274835
343,51,536,0,17.884533333333113,1.0,41.19465984809196,3.0,6.0,11.045361017187261,12.165525060596439,11.045361017187261,20.0,14.0,14.0,16.0,12.0,3.0,6.0,1.0,1.0,5.0990195135927845,5.0990195135927845,5.0,14.0,19.0,16.0312195418814
344,51,537,0,17.91789999999978,0.0,39.6232255123179,3.1622776601683795,5.0990195135927845,11.180339887498949,12.165525060596439,11.0,19.1049731745428,14.035668847618199,14.0,19.0,12.0,4.5,3.5,1.5,3.5,1.4142135623730951,1.0,1.0,15.0,19.0,18.110770276274835
345,51,538,0,17.951266666666445,0.0,38.47076812334269,3.1622776601683795,5.0990195135927845,11.180339887498949,12.165525060596439,12.041594578792296,20.223748416156685,15.132745950421556,15.0,19.0,13.0,4.0,4.0,0.0,2.0,3.0,2.23606797749979,2.0,15.0,19.0,19.1049731745428
346,51,539,0,17.98463333333311,3.1622776601683795,40.311288741492746,3.1622776601683795,4.123105625617661,13.341664064126334,13.152946437965905,12.041594578792296,22.360679774997898,18.24828759089466,16.5,19.0,14.0,4.5,5.5,2.5,3.5,2.0,3.1622776601683795,3.0,14.0,19.0,18.110770276274835
347,51,540,0,18.017999999999777,4.123105625617661,41.593268686170845,3.1622776601683795,4.123105625617661,13.341664064126334,13.152946437965905,12.041594578792296,23.345235059857504,19.235384061671343,17.0,21.0,14.0,5.5,5.5,2.5,4.5,3.1622776601683795,3.0,3.0,13.0,18.0,18.027756377319946
348,51,541,0,18.051366666666443,5.385164807134504,39.45883931389772,3.0,5.0990195135927845,13.341664064126334,13.152946437965905,12.165525060596439,25.495097567963924,20.396078054371138,17.5,21.0,15.0,6.0,7.0,2.0,5.0,3.1622776601683795,3.1622776601683795,2.5,14.0,19.0,17.029386365926403
349,51,542,0,18.08473333333311,4.0,40.311288741492746,3.1622776601683795,4.47213595499958,11.180339887498949,12.165525060596439,12.041594578792296,23.345235059857504,19.1049731745428,17.0,19.0,14.0,4.5,6.5,2.5,3.5,3.1622776601683795,3.1622776601683795,3.0,14.0,18.0,18.110770276274835
350,51,543,0,18.11809999999977,3.1622776601683795,42.42640687119285,3.0,5.0990195135927845,12.165525060596439,12.36931687685298,12.0,23.08679276123039,18.027756377319946,16.5,19.0,13.0,4.0,7.0,3.0,3.0,3.1622776601683795,2.23606797749979,2.0,13.0,17.0,17.11724276862369
351,51,544,0,18.15146666666644,2.23606797749979,40.607881008493905,3.0,4.123105625617661,12.165525060596439,13.152946437965905,11.180339887498949,20.396078054371138,16.278820596099706,15.0,20.0,13.0,5.5,3.5,0.5,4.5,3.1622776601683795,3.0,3.0,13.0,18.0,17.11724276862369
352,51,545,0,18.184833333333103,2.23606797749979,39.6232255123179,4.123105625617661,6.082762530298219,12.165525060596439,12.165525060596439,10.04987562112089,22.360679774997898,16.278820596099706,15.0,20.0,13.0,6.5,5.5,0.5,3.5,3.1622776601683795,2.0,2.5,13.0,18.0,17.11724276862369
353,51,546,0,18.21819999999977,2.23606797749979,40.44749683231337,4.123105625617661,5.0990195135927845,12.165525060596439,12.36931687685298,11.0,22.20360331117452,17.11724276862369,16.0,18.0,12.0,4.0,7.0,2.0,2.0,3.0,3.1622776601683795,3.0,13.0,19.0,17.11724276862369
354,51,547,0,18.25156666666644,4.0,39.20459156782532,3.1622776601683795,4.123105625617661,11.180339887498949,12.165525060596439,11.0,22.090722034374522,18.027756377319946,16.0,16.0,12.0,3.0,8.0,4.0,1.0,3.1622776601683795,3.1622776601683795,3.0,14.0,19.0,16.1245154965971
355,51,548,0,18.284933333333104,2.23606797749979,36.6742416417845,2.0,5.385164807134504,11.180339887498949,12.36931687685298,12.041594578792296,21.37755832643195,16.1245154965971,15.0,19.0,12.0,3.5,5.5,1.5,2.5,3.1622776601683795,3.1622776601683795,3.0,13.0,18.0,16.1245154965971
356,51,549,0,18.31829999999977,3.1622776601683795,40.311288741492746,4.0,6.082762530298219,12.165525060596439,12.165525060596439,11.045361017187261,24.186773244895647,18.110770276274835,16.5,18.0,13.0,4.5,8.5,2.5,2.5,3.1622776601683795,3.0,3.0,12.0,18.0,17.11724276862369
357,51,550,0,18.35166666666644,4.123105625617661,39.45883931389772,3.0,5.0990195135927845,12.36931687685298,12.165525060596439,12.041594578792296,24.186773244895647,19.1049731745428,17.0,19.0,13.0,4.0,8.0,3.0,3.0,3.1622776601683795,3.0,3.0,13.0,19.0,16.1245154965971
358,51,551,0,18.3850333333331,4.0,40.311288741492746,4.123105625617661,5.0990195135927845,12.165525060596439,12.165525060596439,11.0,24.08318915758459,19.026297590440446,17.0,18.0,13.0,4.5,8.5,3.5,2.5,3.1622776601683795,3.1622776601683795,3.0,13.0,19.0,18.110770276274835
359,51,552,0,18.418399999999767,5.0990195135927845,38.63935817272331,3.0,4.47213595499958,12.165525060596439,13.152946437965905,11.045361017187261,23.345235059857504,19.1049731745428,16.5,22.0,15.0,7.5,4.5,1.5,5.5,3.1622776601683795,3.1622776601683795,3.0,14.0,18.0,17.11724276862369
360,51,553,0,18.45176666666644,4.123105625617661,39.319206502675,3.0,4.0,12.165525060596439,13.152946437965905,12.041594578792296,23.08679276123039,19.1049731745428,17.0,19.0,14.0,4.5,6.5,2.5,3.5,3.0,3.0,3.0,13.0,19.0,17.11724276862369
361,51,554,0,18.4851333333331,1.4142135623730951,37.656340767525464,3.0,4.123105625617661,12.165525060596439,12.165525060596439,13.038404810405298,19.235384061671343,15.132745950421556,15.5,21.0,14.0,4.5,1.5,1.5,3.5,3.0,2.23606797749979,2.5,13.0,17.0,16.1245154965971
362,51,555,0,18.518499999999765,0.0,40.311288741492746,3.0,5.0990195135927845,12.041594578792296,12.36931687685298,12.0,20.024984394500787,15.0,15.0,18.0,13.0,3.5,4.5,0.5,1.5,3.0,3.1622776601683795,3.0,13.0,17.0,16.0312195418814
363,51,556,0,18.55186666666643,0.0,36.22154055254967,3.1622776601683795,5.0990195135927845,11.180339887498949,11.40175425099138,12.0,20.09975124224178,15.033296378372908,15.0,18.0,14.0,4.0,4.0,1.0,3.0,3.1622776601683795,4.123105625617661,3.5,13.0,17.0,16.1245154965971
364,51,557,0,18.585233333333097,1.0,38.118237105091836,3.0,5.0990195135927845,11.180339887498949,11.045361017187261,12.041594578792296,21.095023109728988,16.0312195418814,15.5,17.0,14.0,3.5,5.5,0.5,1.5,4.0,4.123105625617661,3.5,13.0,17.0,16.1245154965971
365,51,558,0,18.618599999999763,0.0,40.44749683231337,3.0,6.082762530298219,11.180339887498949,11.180339887498949,12.0,21.02379604162864,15.0,15.0,19.0,13.0,4.0,5.0,0.0,2.0,3.1622776601683795,4.123105625617661,3.5,13.0,17.0,16.1245154965971
366,51,559,0,18.65196666666643,0.0,37.21558813185679,4.123105625617661,5.0990195135927845,11.180339887498949,10.198039027185569,12.0,21.095023109728988,16.0312195418814,16.0,18.0,14.0,4.0,5.0,0.0,2.0,3.0,4.0,3.5,14.0,18.0,16.1245154965971
367,51,560,0,18.68533333333309,1.4142135623730951,35.510561809129406,3.0,6.082762530298219,11.180339887498949,12.165525060596439,13.0,21.095023109728988,15.033296378372908,15.5,20.0,14.0,4.0,4.0,1.0,3.0,3.1622776601683795,3.1622776601683795,3.0,12.0,16.0,16.1245154965971
368,51,561,0,18.71869999999976,1.0,37.48332962798263,3.0,5.0990195135927845,12.165525060596439,12.165525060596439,13.038404810405298,21.213203435596427,16.1245154965971,16.0,21.0,15.0,5.0,3.0,2.0,4.0,4.123105625617661,4.123105625617661,3.5,13.0,17.0,16.0312195418814
369,51,562,0,18.752066666666423,2.23606797749979,38.63935817272331,4.0,5.0,12.165525060596439,12.165525060596439,11.045361017187261,21.213203435596427,16.278820596099706,15.5,21.0,14.0,6.5,3.5,1.5,4.5,3.0,3.0,3.0,13.0,17.0,16.0312195418814
370,51,563,0,18.78543333333309,1.0,39.45883931389772,3.0,6.082762530298219,12.165525060596439,13.152946437965905,12.165525060596439,21.37755832643195,15.297058540778355,15.0,20.0,14.0,5.0,4.0,2.0,4.0,3.0,3.1622776601683795,3.0,13.0,17.0,15.033296378372908
371,51,564,0,18.81879999999976,1.4142135623730951,40.44749683231337,3.1622776601683795,5.0990195135927845,13.152946437965905,13.152946437965905,12.0,21.213203435596427,16.1245154965971,15.5,21.0,15.0,6.0,3.0,2.0,4.0,4.123105625617661,3.0,3.5,13.0,17.0,16.1245154965971
372,51,565,0,18.852166666666424,1.4142135623730951,37.656340767525464,3.0,5.0990195135927845,12.36931687685298,13.152946437965905,12.041594578792296,21.213203435596427,16.1245154965971,15.5,21.0,14.0,5.5,3.5,1.5,4.5,3.1622776601683795,3.0,2.5,13.0,16.0,15.033296378372908
373,51,566,0,18.88553333333309,1.4142135623730951,38.63935817272331,3.0,6.082762530298219,13.152946437965905,13.152946437965905,12.041594578792296,22.20360331117452,16.1245154965971,15.5,22.0,15.0,6.5,3.5,1.5,4.5,4.123105625617661,3.1622776601683795,3.5,13.0,17.0,17.11724276862369
374,51,567,0,18.91889999999976,4.123105625617661,38.63935817272331,2.23606797749979,4.123105625617661,11.180339887498949,12.165525060596439,12.0,22.20360331117452,18.110770276274835,16.0,22.0,15.0,6.5,3.5,0.5,5.5,4.123105625617661,3.1622776601683795,3.0,13.0,17.0,15.033296378372908
375,51,568,0,18.95226666666642,4.123105625617661,39.319206502675,2.0,4.123105625617661,12.165525060596439,12.165525060596439,12.041594578792296,22.20360331117452,18.110770276274835,16.0,20.0,15.0,5.5,4.5,0.5,4.5,4.123105625617661,3.0,3.0,13.0,17.0,16.1245154965971
376,51,569,0,18.985633333333087,3.1622776601683795,38.47076812334269,2.0,4.123105625617661,12.165525060596439,13.152946437965905,12.041594578792296,21.213203435596427,17.11724276862369,15.5,20.0,14.0,5.0,4.0,0.0,4.0,4.123105625617661,3.0,3.0,13.0,16.0,15.132745950421556
377,51,570,0,19.01899999999976,1.4142135623730951,38.63935817272331,2.0,4.123105625617661,13.152946437965905,12.165525060596439,12.041594578792296,19.235384061671343,15.132745950421556,14.5,21.0,14.0,5.5,1.5,2.5,4.5,4.123105625617661,3.0,3.5,13.0,17.0,14.035668847618199
378,51,571,0,19.05236666666642,1.0,39.45883931389772,3.0,5.0990195135927845,13.152946437965905,13.152946437965905,12.041594578792296,20.223748416156685,15.132745950421556,15.0,21.0,15.0,6.0,2.0,2.0,5.0,4.0,3.0,3.5,12.0,16.0,14.035668847618199
379,51,572,0,19.085733333333085,3.1622776601683795,40.44749683231337,2.0,4.123105625617661,12.165525060596439,13.038404810405298,12.041594578792296,21.213203435596427,17.11724276862369,15.5,20.0,14.0,5.0,4.0,0.0,4.0,3.1622776601683795,3.0,3.0,13.0,17.0,14.035668847618199
380,51,573,0,19.11909999999975,4.123105625617661,38.3275357934736,3.0,4.123105625617661,12.165525060596439,12.165525060596439,11.045361017187261,22.20360331117452,18.110770276274835,16.0,20.0,15.0,6.5,4.5,1.5,4.5,3.0,4.0,4.0,13.0,17.0,16.0312195418814
381,51,574,0,19.152466666666417,4.123105625617661,40.311288741492746,4.0,4.123105625617661,12.165525060596439,13.152946437965905,12.041594578792296,24.186773244895647,20.09975124224178,18.0,20.0,15.0,5.5,6.5,2.5,3.5,3.1622776601683795,3.0,3.0,13.0,17.0,15.033296378372908
382,51,575,0,19.185833333333083,4.0,40.44749683231337,3.1622776601683795,4.123105625617661,12.165525060596439,12.165525060596439,12.041594578792296,23.194827009486403,19.1049731745428,17.0,21.0,15.0,6.0,5.0,2.0,5.0,3.1622776601683795,3.0,3.5,14.0,16.0,15.132745950421556
383,51,576,0,19.21919999999975,5.0990195135927845,39.45883931389772,3.0,4.123105625617661,12.36931687685298,13.152946437965905,12.041594578792296,24.186773244895647,20.09975124224178,17.5,21.0,15.0,6.0,6.0,2.0,5.0,4.0,3.1622776601683795,3.0,14.0,17.0,15.033296378372908
384,51,577,0,19.25256666666641,4.123105625617661,38.47076812334269,3.1622776601683795,4.123105625617661,13.152946437965905,13.152946437965905,12.0,23.194827009486403,19.1049731745428,17.0,21.0,15.0,6.0,5.0,2.0,5.0,4.123105625617661,3.0,3.5,13.0,17.0,14.035668847618199
385,51,578,0,19.28593333333308,3.1622776601683795,39.6232255123179,3.1622776601683795,4.123105625617661,13.341664064126334,13.152946437965905,12.0,22.20360331117452,18.110770276274835,16.5,22.0,15.0,6.5,3.5,0.5,5.5,4.0,3.1622776601683795,3.5,13.0,16.0,15.033296378372908
386,51,579,0,19.319299999999743,1.0,40.44749683231337,4.0,5.0990195135927845,12.165525060596439,12.041594578792296,11.0,20.09975124224178,15.033296378372908,15.0,20.0,14.0,6.0,3.0,2.0,4.0,3.0,3.0,3.0,13.0,17.0,15.033296378372908
387,51,580,0,19.35266666666641,1.0,39.6232255123179,4.123105625617661,5.0990195135927845,12.165525060596439,12.165525060596439,11.0,20.223748416156685,15.132745950421556,15.0,20.0,13.0,5.5,3.5,1.5,2.5,4.123105625617661,3.0,3.0,13.0,16.0,15.132745950421556
388,51,581,0,19.38603333333308,2.0,38.63935817272331,2.0,4.123105625617661,12.165525060596439,13.152946437965905,12.0,18.24828759089466,14.142135623730951,14.0,20.0,13.0,4.5,1.5,2.5,3.5,3.1622776601683795,3.0,3.0,12.0,16.0,15.033296378372908
389,51,582,0,19.419399999999744,1.4142135623730951,39.45883931389772,3.0,4.123105625617661,12.165525060596439,12.165525060596439,12.165525060596439,20.396078054371138,16.278820596099706,15.5,21.0,15.0,6.0,2.0,2.0,4.0,4.123105625617661,3.1622776601683795,3.5,13.0,17.0,16.1245154965971
390,51,583,0,19.45276666666641,4.123105625617661,41.43669871020132,2.23606797749979,3.0,13.152946437965905,13.038404810405298,12.041594578792296,21.213203435596427,18.24828759089466,16.0,21.0,15.0,6.0,3.0,0.0,5.0,3.1622776601683795,3.1622776601683795,2.5,13.0,17.0,14.035668847618199
391,51,584,0,19.48613333333308,6.082762530298219,40.44749683231337,3.1622776601683795,5.0,13.038404810405298,13.038404810405298,10.04987562112089,24.186773244895647,19.235384061671343,16.0,21.0,15.0,8.0,6.0,2.0,5.0,4.0,3.1622776601683795,3.0,12.0,16.0,14.142135623730951
392,51,585,0,19.51949999999974,5.0990195135927845,41.30375285612676,4.0,4.123105625617661,13.152946437965905,13.038404810405298,10.04987562112089,23.194827009486403,19.1049731745428,16.5,20.0,15.0,7.5,5.5,1.5,4.5,2.23606797749979,3.0,2.5,13.0,17.0,15.033296378372908
393,51,586,0,19.552866666666407,2.23606797749979,41.30375285612676,4.0,5.0990195135927845,13.038404810405298,13.152946437965905,11.045361017187261,22.20360331117452,17.11724276862369,16.0,20.0,15.0,6.5,4.5,0.5,3.5,1.0,2.0,1.5,12.0,16.0,15.033296378372908
394,51,587,0,19.58623333333308,1.0,39.45883931389772,4.0,5.0990195135927845,12.165525060596439,13.038404810405298,11.045361017187261,20.223748416156685,15.132745950421556,15.0,19.0,13.0,5.0,4.0,1.0,3.0,3.0,2.0,2.0,12.0,16.0,15.132745950421556
395,51,588,0,19.61959999999974,1.4142135623730951,40.607881008493905,2.0,4.123105625617661,12.165525060596439,13.152946437965905,11.045361017187261,18.24828759089466,14.142135623730951,13.5,19.0,12.0,4.5,2.5,1.5,3.5,3.1622776601683795,2.0,2.0,12.0,16.0,14.035668847618199
396,51,589,0,19.652966666666405,1.4142135623730951,37.48332962798263,3.0,5.0990195135927845,12.165525060596439,13.152946437965905,11.045361017187261,20.223748416156685,15.132745950421556,14.5,20.0,14.0,6.0,3.0,2.0,4.0,2.23606797749979,2.0,2.5,12.0,15.0,16.1245154965971
397,51,590,0,19.68633333333307,1.4142135623730951,40.44749683231337,3.0,4.123105625617661,13.152946437965905,13.152946437965905,11.045361017187261,19.235384061671343,15.132745950421556,14.5,20.0,14.0,6.0,2.0,2.0,5.0,3.0,3.0,3.0,12.0,16.0,16.0312195418814
398,51,591,0,19.719699999999737,4.123105625617661,39.319206502675,4.0,5.0,12.041594578792296,13.152946437965905,10.198039027185569,23.194827009486403,18.24828759089466,16.0,21.0,16.0,8.5,4.5,0.5,5.5,3.1622776601683795,3.0,3.5,12.0,16.0,16.1245154965971
399,51,592,0,19.753066666666403,3.1622776601683795,40.44749683231337,4.0,6.082762530298219,12.165525060596439,13.152946437965905,10.198039027185569,23.345235059857504,17.26267650163207,15.5,22.0,16.0,9.0,4.0,1.0,6.0,4.0,3.1622776601683795,3.5,13.0,17.0,16.1245154965971
400,51,593,0,19.78643333333307,3.1622776601683795,40.44749683231337,2.23606797749979,4.123105625617661,13.152946437965905,13.152946437965905,11.0,20.223748416156685,16.1245154965971,14.5,20.0,14.0,6.0,3.0,1.0,5.0,4.123105625617661,3.1622776601683795,3.0,12.0,17.0,16.1245154965971
401,51,594,0,19.81979999999973,4.123105625617661,40.44749683231337,3.0,5.0990195135927845,13.152946437965905,14.142135623730951,10.04987562112089,22.20360331117452,17.11724276862369,15.0,21.0,15.0,8.0,4.0,1.0,6.0,4.0,4.123105625617661,4.0,12.0,18.0,16.1245154965971
402,51,595,0,19.8531666666664,4.123105625617661,40.44749683231337,3.0,5.385164807134504,12.165525060596439,12.165525060596439,11.0,23.194827009486403,18.027756377319946,16.0,21.0,15.0,7.0,5.0,0.0,5.0,4.0,4.123105625617661,4.0,12.0,17.0,15.132745950421556
403,51,596,0,19.886533333333063,5.0990195135927845,37.656340767525464,4.0,6.082762530298219,12.36931687685298,12.165525060596439,9.055385138137417,24.186773244895647,18.110770276274835,15.5,21.0,14.0,8.5,6.5,1.5,5.5,4.123105625617661,4.0,4.5,12.0,18.0,16.1245154965971
404,51,597,0,19.91989999999973,5.0990195135927845,41.43669871020132,4.0,5.0990195135927845,12.165525060596439,13.038404810405298,9.055385138137417,23.194827009486403,18.110770276274835,15.5,21.0,15.0,9.0,5.0,1.0,6.0,4.123105625617661,4.123105625617661,4.0,13.0,18.0,16.1245154965971
405,51,598,0,19.9532666666664,5.0990195135927845,40.44749683231337,2.0,3.1622776601683795,12.165525060596439,13.152946437965905,11.045361017187261,21.213203435596427,18.110770276274835,15.5,21.0,15.0,7.0,3.0,0.0,6.0,5.0,4.123105625617661,4.5,12.0,17.0,15.132745950421556
406,51,599,0,19.986633333333064,1.0,39.45883931389772,3.1622776601683795,4.123105625617661,11.180339887498949,11.180339887498949,11.0,19.1049731745428,15.033296378372908,14.5,20.0,14.0,6.0,2.0,2.0,4.0,4.123105625617661,4.123105625617661,4.0,12.0,17.0,15.132745950421556
407,51,600,0,20.01999999999973,1.0,38.63935817272331,3.0,4.123105625617661,12.165525060596439,13.152946437965905,12.041594578792296,19.235384061671343,15.132745950421556,15.0,21.0,14.0,5.5,1.5,2.5,4.5,4.123105625617661,4.0,4.0,11.0,16.0,16.1245154965971
408,51,601,0,20.053366666666395,0.0,37.656340767525464,3.1622776601683795,5.0990195135927845,12.165525060596439,12.165525060596439,12.041594578792296,20.223748416156685,15.132745950421556,15.0,22.0,15.0,6.5,1.5,2.5,5.5,4.123105625617661,5.0,4.5,12.0,17.0,15.132745950421556
409,51,602,0,20.08673333333306,1.0,39.45883931389772,4.123105625617661,4.123105625617661,12.165525060596439,12.165525060596439,11.0,20.09975124224178,16.0312195418814,15.5,21.0,15.0,7.0,2.0,2.0,5.0,4.0,4.0,4.0,12.0,17.0,17.11724276862369
410,51,603,0,20.120099999999727,0.0,35.510561809129406,3.1622776601683795,5.0990195135927845,11.180339887498949,12.36931687685298,12.0,20.09975124224178,15.033296378372908,15.0,20.0,14.0,5.0,3.0,2.0,3.0,4.123105625617661,4.123105625617661,3.5,12.0,17.0,16.1245154965971
411,51,604,0,20.1534666666664,1.4142135623730951,37.33630940518894,3.0,5.0,12.165525060596439,12.165525060596439,12.041594578792296,21.095023109728988,16.1245154965971,15.5,20.0,15.0,5.5,3.5,1.5,3.5,3.1622776601683795,4.0,4.0,13.0,18.0,16.278820596099706
412,51,605,0,20.18683333333306,0.0,36.345563690772494,4.123105625617661,5.0990195135927845,11.180339887498949,11.180339887498949,11.0,20.09975124224178,15.033296378372908,15.0,18.0,13.0,4.5,4.5,0.5,1.5,4.0,4.123105625617661,4.5,12.0,17.0,16.1245154965971
413,51,606,0,20.220199999999725,1.4142135623730951,36.6742416417845,3.1622776601683795,6.082762530298219,11.180339887498949,12.165525060596439,13.0,21.213203435596427,15.132745950421556,15.5,22.0,15.0,5.5,2.5,2.5,4.5,3.1622776601683795,4.123105625617661,4.0,11.0,16.0,16.1245154965971
414,51,607,0,20.25356666666639,4.123105625617661,37.48332962798263,2.0,5.0990195135927845,12.165525060596439,12.165525060596439,12.041594578792296,23.194827009486403,18.110770276274835,16.0,21.0,15.0,6.0,5.0,1.0,5.0,4.123105625617661,4.0,4.0,12.0,18.0,16.1245154965971
415,51,608,0,20.286933333333057,6.082762530298219,37.656340767525464,2.23606797749979,5.0990195135927845,12.165525060596439,13.038404810405298,12.041594578792296,25.317977802344327,20.223748416156685,17.0,22.0,15.0,6.5,6.5,1.5,5.5,4.0,3.1622776601683795,3.5,12.0,18.0,14.142135623730951
416,51,609,0,20.32029999999972,4.123105625617661,38.47076812334269,2.23606797749979,5.0990195135927845,12.165525060596439,13.152946437965905,11.045361017187261,22.360679774997898,17.26267650163207,15.0,20.0,14.0,6.0,5.0,1.0,5.0,4.123105625617661,4.0,4.0,12.0,18.0,16.278820596099706
417,51,610,0,20.35366666666639,4.47213595499958,39.6232255123179,3.0,6.082762530298219,12.165525060596439,13.152946437965905,10.198039027185569,23.53720459187964,17.46424919657298,15.0,20.0,13.0,6.5,6.5,1.5,4.5,3.1622776601683795,3.1622776601683795,3.0,11.0,17.0,15.132745950421556
418,51,611,0,20.38703333333305,4.123105625617661,39.319206502675,3.0,6.082762530298219,11.40175425099138,12.165525060596439,12.0,25.079872407968907,19.026297590440446,17.0,18.0,13.0,3.5,9.5,4.5,2.5,4.0,4.123105625617661,4.0,11.0,18.0,16.278820596099706
419,51,612,0,20.42039999999972,4.123105625617661,39.319206502675,3.0,6.082762530298219,12.165525060596439,13.152946437965905,12.041594578792296,25.179356624028344,19.1049731745428,17.0,18.0,13.0,3.5,9.5,4.5,2.5,4.0,4.123105625617661,4.0,10.0,18.0,16.278820596099706
420,51,613,0,20.453766666666382,4.123105625617661,36.6742416417845,3.0,4.123105625617661,11.180339887498949,12.165525060596439,11.045361017187261,22.20360331117452,18.110770276274835,16.0,19.0,12.0,4.5,6.5,2.5,3.5,4.123105625617661,3.1622776601683795,3.0,12.0,19.0,16.278820596099706
421,51,614,0,20.48713333333305,3.0,39.45883931389772,4.123105625617661,5.0990195135927845,11.180339887498949,12.36931687685298,11.0,23.08679276123039,18.027756377319946,16.5,18.0,12.0,4.0,8.0,3.0,2.0,3.0,3.1622776601683795,3.0,11.0,18.0,16.1245154965971
422,51,615,0,20.52049999999972,1.0,38.47076812334269,4.0,6.082762530298219,12.041594578792296,11.180339887498949,12.041594578792296,22.20360331117452,16.1245154965971,16.0,18.0,12.0,3.0,7.0,1.0,0.0,4.0,4.123105625617661,4.0,11.0,18.0,16.278820596099706
423,51,616,0,20.553866666666384,0.0,37.48332962798263,3.1622776601683795,3.1622776601683795,11.180339887498949,11.180339887498949,12.0,18.110770276274835,15.033296378372908,15.0,18.0,12.0,3.0,3.0,0.0,1.0,4.123105625617661,3.1622776601683795,3.0,10.0,18.0,14.317821063276353
424,51,617,0,20.58723333333305,0.0,40.607881008493905,3.1622776601683795,5.0990195135927845,11.40175425099138,12.36931687685298,13.0,21.095023109728988,16.0312195418814,16.0,20.0,13.0,3.5,4.5,0.5,2.5,3.0,4.123105625617661,4.0,10.0,17.0,16.1245154965971
425,51,618,0,20.620599999999715,2.23606797749979,37.33630940518894,5.0,6.082762530298219,11.045361017187261,12.165525060596439,10.04987562112089,23.194827009486403,17.11724276862369,16.0,18.0,13.0,5.5,7.5,1.5,1.5,3.1622776601683795,3.1622776601683795,3.5,11.0,19.0,16.278820596099706
426,51,619,0,20.65396666666638,3.1622776601683795,37.48332962798263,3.0,4.123105625617661,12.165525060596439,12.165525060596439,12.165525060596439,22.360679774997898,18.24828759089466,16.5,20.0,14.0,5.0,5.0,1.0,3.0,4.0,3.1622776601683795,3.5,11.0,18.0,15.132745950421556
427,51,620,0,20.687333333333047,5.0,38.47076812334269,3.1622776601683795,5.0990195135927845,12.165525060596439,12.36931687685298,11.045361017187261,24.186773244895647,19.1049731745428,16.5,18.0,12.0,4.0,9.0,4.0,2.0,4.123105625617661,4.123105625617661,4.0,12.0,19.0,16.278820596099706
428,51,621,0,20.72069999999972,3.1622776601683795,38.63935817272331,3.0,5.0990195135927845,12.36931687685298,12.36931687685298,11.180339887498949,22.360679774997898,17.26267650163207,15.5,19.0,12.0,4.5,6.5,2.5,3.5,4.123105625617661,3.1622776601683795,3.5,11.0,17.0,16.1245154965971
429,51,622,0,20.75406666666638,3.1622776601683795,39.81205847478876,3.1622776601683795,5.0990195135927845,13.341664064126334,12.36931687685298,11.045361017187261,22.360679774997898,17.26267650163207,15.5,21.0,13.0,6.0,5.0,1.0,5.0,4.123105625617661,4.123105625617661,4.0,11.0,18.0,16.278820596099706
430,51,623,0,20.787433333333045,1.0,37.8549864614954,3.0,4.47213595499958,11.180339887498949,11.180339887498949,11.045361017187261,18.439088914585774,14.142135623730951,14.0,20.0,12.0,5.0,2.0,2.0,3.0,4.123105625617661,4.123105625617661,4.0,11.0,17.0,15.297058540778355
431,51,624,0,20.82079999999971,0.0,41.30375285612676,4.123105625617661,5.0990195135927845,11.180339887498949,12.36931687685298,10.0,19.1049731745428,14.035668847618199,14.0,15.0,10.0,2.5,6.5,2.5,0.5,4.0,4.0,4.0,11.0,18.0,16.278820596099706
432,51,625,0,20.854166666666377,0.0,41.30375285612676,4.123105625617661,5.0990195135927845,11.180339887498949,12.36931687685298,10.0,19.1049731745428,14.035668847618199,14.0,15.0,10.0,2.5,6.5,2.5,0.5,5.0,5.0990195135927845,5.0,11.0,18.0,16.278820596099706
433,51,626,0,20.88753333333304,1.0,41.43669871020132,4.123105625617661,5.0990195135927845,11.40175425099138,11.40175425099138,10.0,18.110770276274835,13.038404810405298,13.5,16.0,10.0,3.0,5.0,1.0,1.0,4.0,4.123105625617661,4.0,11.0,18.0,16.278820596099706
434,51,627,0,20.92089999999971,1.4142135623730951,40.024992192379,3.1622776601683795,4.123105625617661,12.165525060596439,12.36931687685298,11.045361017187261,17.46424919657298,13.341664064126334,13.5,19.0,10.0,3.5,2.5,0.5,1.5,4.0,4.123105625617661,4.0,10.0,16.0,15.132745950421556
435,51,628,0,20.95426666666637,1.0,39.319206502675,3.0,4.123105625617661,11.180339887498949,11.180339887498949,11.045361017187261,18.24828759089466,14.142135623730951,14.0,15.0,10.0,1.5,5.5,2.5,0.5,4.0,4.123105625617661,4.0,11.0,18.0,16.278820596099706
436,51,629,0,20.98763333333304,1.4142135623730951,39.81205847478876,3.1622776601683795,4.123105625617661,12.165525060596439,12.36931687685298,11.045361017187261,17.46424919657298,13.341664064126334,13.5,19.0,11.0,4.0,2.0,1.0,2.0,4.123105625617661,3.1622776601683795,3.5,11.0,17.0,16.1245154965971
437,51,630,0,21.020999999999702,1.4142135623730951,39.81205847478876,3.1622776601683795,4.123105625617661,11.40175425099138,12.36931687685298,10.04987562112089,16.492422502470642,12.36931687685298,12.5,18.0,10.0,4.0,2.0,1.0,3.0,4.123105625617661,4.123105625617661,4.0,11.0,17.0,14.142135623730951
438,51,631,0,21.05436666666637,1.4142135623730951,38.8329756778952,3.1622776601683795,4.123105625617661,12.36931687685298,12.165525060596439,11.045361017187261,17.46424919657298,13.341664064126334,13.5,19.0,11.0,4.0,2.0,1.0,3.0,4.0,4.123105625617661,4.0,11.0,17.0,16.1245154965971
439,51,632,0,21.08773333333304,1.4142135623730951,39.81205847478876,3.0,4.123105625617661,12.36931687685298,12.36931687685298,10.04987562112089,16.278820596099706,12.165525060596439,12.5,18.0,10.0,4.0,2.0,1.0,3.0,4.123105625617661,4.123105625617661,4.0,11.0,17.0,15.132745950421556
440,51,633,0,21.121099999999704,1.0,39.81205847478876,4.123105625617661,5.0990195135927845,11.40175425099138,12.36931687685298,9.055385138137417,17.26267650163207,12.165525060596439,12.5,18.0,10.0,5.0,3.0,1.0,3.0,4.123105625617661,4.0,4.0,11.0,17.0,16.1245154965971
441,51,634,0,21.15446666666637,1.4142135623730951,40.024992192379,4.0,5.385164807134504,13.341664064126334,13.341664064126334,9.219544457292887,17.72004514666935,12.36931687685298,12.5,19.0,10.0,5.5,2.5,1.5,3.5,4.123105625617661,3.1622776601683795,3.0,11.0,17.0,17.26267650163207
442,51,635,0,21.187833333333035,1.4142135623730951,39.81205847478876,5.0,5.0990195135927845,12.165525060596439,12.36931687685298,9.055385138137417,18.24828759089466,13.152946437965905,13.5,18.0,10.0,5.0,4.0,1.0,2.0,3.0,4.123105625617661,4.0,12.0,18.0,16.1245154965971
443,51,636,0,21.2211999999997,1.0,41.30375285612676,3.1622776601683795,3.1622776601683795,11.180339887498949,11.180339887498949,11.0,16.1245154965971,13.038404810405298,13.5,15.0,10.0,1.5,3.5,1.5,0.5,4.123105625617661,5.0990195135927845,5.0,11.0,18.0,17.26267650163207
444,51,637,0,21.254566666666367,1.4142135623730951,40.44749683231337,4.0,5.0,12.165525060596439,12.36931687685298,10.04987562112089,20.09975124224178,15.132745950421556,14.5,16.0,10.0,3.0,7.0,3.0,0.0,4.0,4.0,4.0,12.0,18.0,16.278820596099706
445,51,638,0,21.28793333333304,1.0,41.30375285612676,4.0,5.0990195135927845,11.045361017187261,12.36931687685298,9.0,19.026297590440446,14.0,13.5,13.0,8.0,1.5,8.5,3.5,1.5,4.123105625617661,4.123105625617661,4.0,11.0,18.0,16.1245154965971
446,51,639,0,21.3212999999997,1.0,39.81205847478876,4.123105625617661,6.082762530298219,12.165525060596439,12.165525060596439,10.04987562112089,20.396078054371138,14.317821063276353,14.0,18.0,10.0,4.0,6.0,1.0,2.0,4.123105625617661,3.1622776601683795,3.5,10.0,17.0,16.1245154965971
447,51,640,0,21.354666666666365,0.0,41.30375285612676,4.0,6.082762530298219,10.04987562112089,10.198039027185569,11.045361017187261,21.095023109728988,15.033296378372908,15.0,16.0,11.0,2.5,7.5,2.5,0.5,4.0,3.0,3.5,11.0,17.0,17.11724276862369
448,51,641,0,21.38803333333303,2.23606797749979,42.579337712087536,4.0,6.082762530298219,12.041594578792296,12.165525060596439,10.198039027185569,22.360679774997898,16.278820596099706,15.0,18.0,11.0,4.5,7.5,2.5,1.5,5.0990195135927845,5.0990195135927845,5.0,9.0,17.0,17.11724276862369
449,51,1294,1,43.17646666666585,5.0,35.014282800023196,3.0,6.0,10.04987562112089,11.0,10.04987562112089,24.020824298928627,18.027756377319946,15.5,12.0,13.0,2.5,11.5,4.5,0.5,2.0,3.0,3.0,15.0,14.0,12.041594578792296
450,51,1295,0,43.20983333333252,3.0,33.06055050963308,3.0,7.0,9.055385138137417,10.04987562112089,12.041594578792296,25.019992006393608,18.027756377319946,16.5,15.0,13.0,2.0,11.0,4.0,0.0,2.0,2.0,2.5,16.0,17.0,14.035668847618199
451,51,1296,0,43.24319999999919,1.4142135623730951,35.35533905932738,4.0,6.0,10.04987562112089,10.198039027185569,12.0,23.021728866442675,17.029386365926403,16.5,19.0,14.0,4.5,6.5,0.5,1.5,3.0,3.1622776601683795,3.0,16.0,18.0,16.0312195418814
452,51,1297,0,43.27656666666585,1.0,35.35533905932738,3.0,6.082762530298219,10.04987562112089,11.045361017187261,13.0,23.021728866442675,17.0,16.5,19.0,14.0,3.5,6.5,0.5,1.5,2.0,2.0,2.5,17.0,19.0,16.0
453,51,1298,0,43.30993333333252,1.0,35.12833614050059,4.0,7.0,9.055385138137417,10.04987562112089,12.0,24.0,17.0,16.5,18.0,15.0,4.5,7.5,1.5,1.5,1.0,1.0,1.0,18.0,18.0,15.033296378372908
454,51,1299,0,43.34329999999918,1.0,35.05709628591621,3.0,8.0,10.04987562112089,11.045361017187261,13.0,25.0,17.0,16.5,17.0,15.0,3.0,9.0,1.0,1.0,1.0,2.0,2.0,19.0,18.0,14.035668847618199
455,51,1300,0,43.37666666666585,1.0,33.0,3.0,7.0,10.04987562112089,11.045361017187261,12.041594578792296,23.021728866442675,16.0312195418814,15.5,15.0,15.0,3.0,8.0,1.0,1.0,1.4142135623730951,2.0,1.5,18.0,15.0,14.035668847618199
456,51,1301,0,43.410033333332514,0.0,36.22154055254967,4.0,8.0,11.045361017187261,12.165525060596439,12.041594578792296,24.020824298928627,16.0312195418814,16.0,19.0,15.0,5.0,7.0,1.0,2.0,2.0,1.0,1.0,19.0,18.0,17.0
457,51,1302,0,43.44339999999918,2.0,36.124783736376884,3.0,7.0,11.045361017187261,12.041594578792296,12.0,24.0,17.0,16.0,18.0,15.0,4.5,7.5,0.5,2.5,2.0,1.0,1.0,21.0,20.0,19.026297590440446
458,51,1303,0,43.476766666665846,0.0,38.01315561749642,4.0,7.0710678118654755,11.045361017187261,12.041594578792296,12.041594578792296,23.08679276123039,16.0312195418814,16.0,16.0,15.0,3.5,7.5,0.5,0.5,2.0,2.23606797749979,2.0,20.0,18.0,19.026297590440446
459,51,1304,0,43.51013333333251,0.0,38.05259518088089,4.0,7.0710678118654755,11.045361017187261,12.041594578792296,11.0,22.02271554554524,15.0,15.0,17.0,15.0,5.0,6.0,1.0,2.0,1.0,2.0,2.0,20.0,18.0,18.027756377319946
460,51,1305,0,43.54349999999918,1.0,37.0,5.0,8.0,10.04987562112089,11.045361017187261,11.0,24.020824298928627,16.0312195418814,16.0,15.0,15.0,4.0,9.0,1.0,0.0,2.0,1.0,1.5,20.0,18.0,18.027756377319946
461,51,1306,0,43.57686666666584,0.0,36.05551275463989,4.0,7.0710678118654755,10.0,11.045361017187261,13.0,24.020824298928627,17.0,17.0,18.0,16.0,4.0,7.0,0.0,1.0,1.0,1.0,1.0,22.0,20.0,18.0
462,51,1307,0,43.61023333333251,1.0,38.0,3.0,8.06225774829855,11.0,12.041594578792296,13.038404810405298,25.079872407968907,17.029386365926403,16.5,15.0,15.0,2.0,10.0,2.0,1.0,1.0,1.0,1.5,21.0,19.0,17.029386365926403
463,51,1308,0,43.643599999999175,0.0,38.05259518088089,5.0,9.055385138137417,11.045361017187261,12.041594578792296,11.0,25.019992006393608,16.0,16.0,16.0,14.0,4.0,10.0,1.0,0.0,2.0,2.0,2.0,21.0,19.0,17.029386365926403
