,video_id,frame_seq,time_seconds,m1,m3,m4,m5,m6,m7,m8,m9,m10,m11,m12,m13,m14,m15,m16,m17,e1,e2,e3,b1,b2,b3,label_measures
0,140,0,0.0,1.9618688836101963,151.21669966441263,8.32350474839825,13.872507913997085,44.39202532479055,44.39202532479055,43.0047745333909,66.6024869486204,52.73378021397207,52.02190467748903,52.7155300731888,51.32827928178915,9.017130144098132,14.566133309696852,2.080876187099648,3.468126978499299,5.001803860319646,5.719781542162703,5.549003165598833,38.843022159191776,55.49003165598828,55.76679163547424,"{'others': ['m1', 'm3', 'm12', 'e1', 'e2']}"
1,140,1,0.0333666666666666,1.3631567731302994,151.31654203869235,5.452627092520856,14.99472450443227,44.98417351329704,45.00482266449392,43.62101674016674,65.43152511025016,50.43680060581789,49.7552222192528,51.79995737894808,50.43680060581789,7.497362252216249,14.313146117867175,2.044735159695392,4.771048705955764,7.948501569254818,7.340823881267815,6.815783865651042,36.805232874515696,57.25258447146888,53.78858407059635,"{'others': ['m1', 'm3', 'm12', 'e1', 'e2']}"
2,140,2,0.0667333333333332,2.734535387857818,150.42430369064073,6.836338469644602,16.407212327147022,42.38529851179658,43.77392455027592,43.77392455027603,69.74405568745031,53.34096625599809,51.95617236929911,54.690707757156815,51.956172369299,9.57087385750242,16.407212327147022,2.734535387857818,5.46907077571575,7.3629618672779635,7.362961867278006,6.836338469644602,38.28349543000979,57.42524314501469,60.7165389923642,"{'others': ['m1', 'm3', 'm12', 'e1', 'e2']}"
3,140,3,0.1000999999999998,8.144442035117095,146.60624078911476,9.501849040970114,17.69842203478992,42.079617181438834,43.45822849618823,42.079617181438834,77.38410549654198,59.72590825752605,55.65368723996755,54.29628023411465,52.93887322826174,11.537959549749417,23.754622602425115,3.3935175146320944,4.750924520485114,9.105763014664404,8.58499570072917,8.144442035117208,39.36480316973308,61.08331526337895,58.93397894619,"{'others': ['m1', 'm3', 'm12', 'e1', 'e2']}"
4,140,4,0.1334666666666664,6.996728919279917,151.15525624594815,11.28188638844188,18.245236799648296,43.40228352436423,44.77906508339163,41.98037351567962,78.41332460480146,60.18813796896966,56.673504246167454,54.57448557038356,51.775794002671546,11.194766270847936,25.18822410940777,4.198037351567905,2.7986915677120123,10.187391079573,11.539300947201944,9.79542048699193,41.98037351567962,64.36990605737543,67.87908933860186,"{'others': ['m1', 'm3', 'm12', 'e1', 'e2']}"
5,140,5,0.166833333333333,9.50184904097,154.76821099308395,9.598316986686948,16.288884070234417,42.079617181438834,43.45822849618823,40.74482734488063,76.06325570044122,59.787576738855805,54.97498373704104,51.58146622240884,48.86665221070314,9.501849040970114,25.790733111204418,6.787035029264303,2.714814011705812,8.58499570072917,9.882072167088094,8.823145538043605,40.72221017558593,61.08331526337895,59.13685038589699,"{'others': ['m1', 'm3', 'm12', 'e1', 'e2']}"
6,140,6,0.2001999999999996,6.99480304324004,162.3758819820265,9.892145329878534,15.452024971341084,46.16570008538383,47.58522919691488,41.9921277965102,74.26359694263694,58.822925012976285,55.25894404159578,53.16050312862387,47.564660694031886,8.39376365188798,23.78233034701589,6.994803043239926,1.3989606086480535,8.847803760366237,10.184586961732172,9.792724260536032,41.96881825943984,64.35218799780773,65.0930222723457,"{'others': ['m1', 'm3', 'm12', 'e1', 'e2']}"
7,140,7,0.2335666666666662,11.046244536336758,160.3192677404141,8.28468340225254,16.62679979059579,44.18497814534692,45.64936567941493,41.44642363175993,77.37300963106074,60.7700336124636,55.23122268168379,52.469661547599685,45.5657587123892,7.594293118731571,28.306001624362807,8.97507368577351,2.0711708505632487,9.763593022860752,10.05223426104951,8.975073685773566,41.42341701126281,63.51590608393633,61.51838443934751,"{'others': ['m1', 'm3', 'm12', 'e1', 'e2']}"
8,140,8,0.2669333333333328,4.3664115407518524,157.50585171943922,6.903902835210488,15.251219848496456,42.80419757830487,44.27119281883061,44.27119281883061,70.63606987791923,55.38634266389714,53.160051831120654,52.46966154759957,46.94653927943125,5.523122268168322,20.711708505631464,4.14234170112627,1.380780567042052,11.386208247429614,11.386208247429614,11.046244536336758,41.42341701126281,63.51590608393633,60.39238085947797,"{'others': ['m1', 'm3', 'm12', 'e1', 'e2']}"
9,140,9,0.3002999999999994,1.381694634152268,153.46765367806475,7.045287901368747,15.261316049721936,42.832533658719626,44.2358120033557,44.21422829287189,66.45075005980239,51.19733318433624,51.12270146363312,52.50439609778528,46.97761756117632,5.526778536608845,16.58033560982699,1.3816946341521543,1.3816946341521543,11.393745837917738,10.05888877005756,10.36270975614184,38.68744975626282,63.55795317100319,60.19496621613467,"{'others': ['m1', 'm3', 'm12', 'e1', 'e2']}"
10,140,10,0.333666666666666,1.3800900451873304,154.62552516501796,7.037106070925814,16.7895200306073,44.16288144599753,44.16288144599764,44.18444009089702,69.22496448961726,52.51600780268064,51.75337669452836,53.82351176230952,49.6832416267473,7.590495248530715,17.251125564842823,2.0701350677810524,3.4502251129684964,10.047207186066569,11.38051405834237,10.35067533890566,38.64252126524792,62.10405203343413,65.39064119729268,"{'others': ['m1', 'm3', 'm12', 'e1', 'e2']}"
11,140,11,0.3670333333333326,1.960360406183213,148.3799886470147,7.068179962883166,16.691867386679508,44.37954621886204,45.74407651379909,45.74407651379909,70.81759571872583,54.132221025234585,53.36808926609888,55.44736547127161,51.28881306092626,7.624012752299791,17.327301709772428,0.6930920683907971,4.851644478736262,8.766998257249634,10.0915728425489,9.010196889081612,38.81315582989015,60.99210201839878,65.6793879774469,"{'others': ['m1', 'm3', 'm12', 'e1', 'e2']}"
12,140,12,0.4003999999999992,1.409911086320335,156.65882389392516,7.18916414157819,15.572976950542884,46.52706584857128,47.95770643939992,45.117154762250834,67.69041712394262,52.16671019385251,52.16671019385251,56.39644345281352,49.34688802121184,7.754510974761843,14.804066406363631,2.1148666294805025,3.524777715800837,8.221123720343002,8.576154326921392,7.754510974761843,36.65768824432888,60.62617671177463,56.83533290049085,"{'others': ['m1', 'm3', 'm12', 'e1', 'e2']}"
13,140,13,0.4337666666666658,1.9952916785598371,153.9480997534603,8.582074010797479,15.583726185810976,43.7374125669968,45.17033653069945,45.148296843351545,70.6710793262275,55.09679231070684,54.31904463965725,56.43537105418943,49.38094967241568,7.759863519951068,17.63605345443409,0.7054421381773182,2.116326414532182,10.744974527348662,10.271392572920494,9.876189934483136,39.5047597379326,62.07890815960832,64.05165995856167,"{'others': ['m1', 'm3', 'm12', 'e1', 'e2']}"
14,140,14,0.4671333333333324,1.3656331927818428,161.23727546740398,8.3068224151849,15.083911631329428,47.79716174736427,49.181758410452176,42.42264285289811,67.1386167539881,52.05552984104163,51.21124472931888,54.62532771127337,49.162794940146114,9.5594323494729,15.021965120600155,2.7312663855636856,4.096899578345528,9.160945954170776,9.656484912294768,8.876615753081978,38.23772939789137,58.72222728961896,55.23644423914536,"{'others': ['m1', 'm3', 'm12', 'e1', 'e2']}"
15,140,15,0.5004999999999991,1.9568267946135596,152.30600299641554,7.055439345181028,16.661779768335805,45.66162137059973,47.04530686667852,44.36433192911198,69.30869462134953,52.65282403994219,51.8882061029542,53.96373434707243,48.4289923627573,6.918427480393916,17.987911449024182,1.3836854960787832,2.7673709921575664,7.451374437625911,9.784133973067796,8.993955724512091,34.59213740196947,56.73110533922994,58.70480383840655,"{'others': ['m1', 'm3', 'm12', 'e1', 'e2']}"
16,140,16,0.5338666666666656,0.0,149.29416295639254,8.288437313173063,18.0113334891366,45.60733081695438,45.607330816954494,44.22657820868463,70.50586914318887,52.511609568585534,52.493436316763,53.87484253562525,48.349217660176464,6.907031094310923,19.33968706407063,1.3814062188621392,2.762812437724392,10.520476329883738,11.391367504507828,10.360546641466442,37.29796790927901,62.16327984879837,61.54625931687147,"{'others': ['m1', 'm3', 'm12', 'e1', 'e2']}"
17,140,17,0.5672333333333321,2.7813681351108244,147.5764158026218,7.091125197707522,15.360607586999963,43.13363065026932,44.523614297878574,45.892574229328375,70.9794031239706,55.64474353772925,54.236678634660734,57.01804676977156,50.0646264319945,7.648762371554653,17.383550844442652,0.6953420337777061,3.4767101688885305,11.882009881746807,11.467874604789142,11.12547254044324,37.54846982399596,61.19009897243785,59.21440656326112,"{'others': ['m1', 'm3', 'm12', 'e1', 'e2']}"
18,140,18,0.6005999999999987,0.0,149.8335107704919,8.425911374495659,16.85182274899141,44.34840015187081,45.79584805401725,44.34840015187081,69.48184517827791,52.71088472821639,52.63802928948758,55.408451883671205,47.09718410112055,6.9260564854589575,18.00774686219313,1.3852112970918142,2.7704225941836285,9.292279870493656,10.084490462700993,8.311267782550658,40.171127615661646,62.33450836913016,60.34817330083112,"{'others': ['m1', 'm3', 'm12', 'e1', 'e2']}"
19,140,19,0.6339666666666652,1.3989606086479398,157.08278267076534,7.133327442243841,15.452024971341084,47.585229196915,50.44024206834663,41.99212779651008,65.88495549159273,50.440242068346514,49.6631016070038,55.95842434591975,44.76673947673578,8.39376365188798,15.388566695127906,2.7979212172959933,5.595842434591987,8.15727201181,8.509545171647217,8.39376365188798,32.176093998903866,58.75634556321575,63.51034645595168,"{'others': ['m1', 'm3', 'm12', 'e1', 'e2']}"
20,140,20,0.6673333333333318,1.4025852432840793,158.888828320037,7.151809524982559,14.303619049965029,46.30655944355114,47.70852006646793,40.67497205523671,63.25643897466311,49.11051635948626,48.38919089329886,53.29823924479297,42.07755729852079,7.012926216420169,15.428437676124304,1.4025852432839656,4.207755729852124,10.210974700190931,10.210974700190931,9.116804081346174,35.064631082100675,58.90858021792912,56.7310621847801,"{'others': ['m1', 'm3', 'm12', 'e1', 'e2']}"
21,140,21,0.7006999999999983,1.3972525588210374,158.2847267225106,7.124618062845563,15.433158944366356,44.79932505182915,46.193938795614805,42.010623664391225,65.90827138317442,50.47544651250691,49.60246583814455,55.890102352838994,44.71208188227115,8.383515352925883,15.369778147030727,1.3972525588210374,5.589010235283922,10.641158459568278,9.88006759372566,9.082141632336343,34.93131397052434,60.08186002930182,48.24063782800821,"{'others': ['m1', 'm3', 'm12', 'e1', 'e2']}"
22,140,22,0.7340666666666649,1.407038373616729,162.10889616746795,7.035191868083871,14.140560648992802,46.51746321994898,46.51746321994909,42.30484977264918,64.86126419338426,50.73149002620698,49.949862263395175,54.87449657105378,45.025227955736455,7.738711054892292,14.773902922976047,0.7035191868084212,4.924634307658721,7.577133531888777,8.558680297727808,8.4422302417006,35.175959340419126,61.90968843913765,52.7404831574978,"{'others': ['m1', 'm3', 'm12', 'e1', 'e2']}"
23,140,23,0.7674333333333314,1.3866671597039613,149.9909863894399,8.434767041042313,15.316239389608029,44.39501049776312,44.39501049776312,41.62311949425615,66.68989700619429,51.38158521886432,50.61335132919487,52.69335206875076,44.37334911052699,6.933335798519806,18.02667307615161,0.0,2.7733343194079225,10.095089302501336,9.80521751875366,9.706670117927786,36.05334615230311,62.40002218667848,54.94422557947562,"{'others': ['m1', 'm3', 'm12', 'e1', 'e2']}"
24,140,24,0.800799999999998,5.715349293608106,152.78776667806588,11.175706690687116,19.603486348980628,44.379279735059775,47.21144698906293,43.06078804077188,79.20633341211412,59.66999843075427,56.8332083422747,56.8332083422747,47.12997764969123,9.010142785970402,27.03042835791109,6.237791159517883,2.079263719839332,10.091512246149597,10.091512246149597,9.703230692583476,38.81292277033396,66.53643903485823,61.758760670605305,"{'others': ['m1', 'm3', 'm12', 'e1', 'e2']}"
25,140,25,0.8341666666666645,19.15117521766808,153.20940174134518,6.957432324979387,19.296445379449008,45.04800532029376,46.47199441422688,41.13810272073746,86.49027597381412,67.20594851604541,57.30751899853749,57.3075189985376,46.39180109405424,10.915717904483358,34.11161845151048,13.64464738060417,6.822323690302028,11.251664474907685,11.251664474907685,10.233485535453156,36.84054792763129,62.765377950779225,59.44432784241677,"{'others': ['m1', 'm3', 'm12', 'e1', 'e2']}"
26,140,26,0.867533333333331,17.754532880076813,154.2584229210567,5.614476269339147,17.91050541830003,43.59600789430623,46.378188828756414,40.94199539390806,82.1101276193585,64.23175635161017,55.14927570505131,55.830130960669294,44.93644687078256,9.531973578650875,31.31934175842412,12.255394601122475,6.808552556179279,9.91340215918522,9.913402159185274,9.531973578650875,36.7661838033676,64.00039402808432,60.668749781697066,"{'others': ['m1', 'm3', 'm12', 'e1', 'e2']}"
27,140,27,0.9008999999999976,4.432422071779354,158.88857595113612,9.911197057469073,16.87816040404745,43.47390428331205,44.8748532676786,42.25937312473858,73.36964035441868,56.50251659120583,53.96371479739673,56.0661971921005,43.45130282387788,7.709102113913786,23.127306341741477,4.905792254308835,2.1024823947037703,10.674685918091512,10.204201915814066,10.512411973518851,36.44302817486528,67.27943663052059,61.06455729120556,"{'others': ['m1', 'm3', 'm12', 'e1', 'e2']}"
28,140,28,0.934266666666664,3.0709505254874427,152.746992309497,5.6625529791754055,13.802205984038006,43.96932011810208,44.03361845143016,41.406617952114246,63.71019746279307,49.91593683127266,48.06797891369854,52.18809139201562,42.57449560927592,6.180168717475453,15.793764500215277,0.6866854130528282,3.4334270652641408,8.685959765041925,8.685959765041925,8.240224956634052,34.33427065264186,61.801687174755386,59.8323308466631,"{'others': ['m1', 'm3', 'm12', 'e1', 'e2']}"
29,140,29,0.9676333333333308,1.3682512161981322,150.73136314867688,6.976739650891448,13.750754541238845,42.43785053208862,45.173016456555565,42.50397030814624,63.31027157842553,49.56016691359707,49.25704378313378,51.99354621553016,43.78403891834114,5.473004864792642,15.05076337817968,0.0,2.736502432396378,9.178508189147507,9.961019210064368,10.26188412148622,35.574531621152175,62.93955594511539,62.11619415324622,"{'others': ['m1', 'm3', 'm12', 'e1', 'e2']}"
