,frame_seq,m1,m3,m4,m5,m6,m7,m8,m9,m10,m11,m12,m13,m14,m15,m16,m17,e1,e2,e3,b1,b2,b3
0,167,3.0,25.179356624028344,3.0,4.123105625617661,7.0710678118654755,7.0710678118654755,6.082762530298219,16.1245154965971,12.041594578792296,10.5,12.0,9.0,4.5,5.5,1.5,2.5,3.0,3.0,3.0,8.0,10.0,9.055385138137417
1,168,2.0,23.194827009486403,3.0,5.0990195135927845,7.0710678118654755,7.0710678118654755,5.385164807134504,15.297058540778355,10.198039027185569,9.0,12.0,9.0,5.5,4.5,0.5,3.5,4.0,3.0,3.0,6.0,8.0,8.06225774829855
2,169,2.23606797749979,22.20360331117452,3.0,4.0,6.082762530298219,6.082762530298219,5.0990195135927845,14.142135623730951,10.198039027185569,9.0,11.0,8.0,4.5,4.5,0.5,2.5,3.1622776601683795,3.0,3.0,7.0,9.0,9.0
3,170,2.0,20.09975124224178,2.0,4.0,5.0990195135927845,6.0,7.0710678118654755,15.033296378372908,11.045361017187261,10.0,13.0,11.0,5.0,3.0,1.0,3.0,4.0,4.0,4.0,8.0,8.0,8.0
4,171,1.4142135623730951,21.095023109728988,2.0,5.0,7.0710678118654755,6.082762530298219,5.0990195135927845,13.152946437965905,8.246211251235321,7.5,10.0,8.0,4.0,4.0,1.0,2.0,3.0,3.1622776601683795,3.0,8.0,8.0,7.0
5,172,2.0,21.095023109728988,3.0,4.0,6.0,7.0,3.1622776601683795,12.041594578792296,8.06225774829855,7.0,9.0,7.0,5.0,4.0,0.0,2.0,3.0,3.0,3.0,7.0,7.0,7.0
6,173,0.0,18.110770276274835,3.0,4.0,5.0990195135927845,5.0990195135927845,5.385164807134504,12.165525060596439,8.246211251235321,8.0,11.0,9.0,5.0,2.0,1.0,3.0,3.0,3.0,3.0,6.0,6.0,7.0
7,174,1.0,21.02379604162864,3.0,4.0,6.082762530298219,6.082762530298219,4.47213595499958,12.165525060596439,8.246211251235321,7.5,9.0,8.0,4.5,3.5,0.5,2.5,2.23606797749979,3.0,3.0,6.0,7.0,7.0
8,175,1.4142135623730951,14.035668847618199,2.0,4.0,4.0,5.0990195135927845,6.082762530298219,11.180339887498949,7.280109889280518,7.5,12.0,11.0,5.5,0.5,4.5,3.5,2.23606797749979,3.0,3.0,6.0,6.0,6.0
9,247,6.324555320336759,31.04834939252005,2.0,4.47213595499958,9.219544457292887,9.486832980505138,9.219544457292887,21.840329667841555,17.46424919657298,14.0,18.0,10.0,5.0,7.0,3.0,4.0,4.123105625617661,3.1622776601683795,3.0,4.0,15.0,12.36931687685298
10,258,3.1622776601683795,33.06055050963308,3.0,6.082762530298219,9.055385138137417,10.04987562112089,10.198039027185569,22.360679774997898,16.278820596099706,14.5,16.0,18.0,7.0,5.0,1.0,3.0,4.123105625617661,4.0,4.5,12.0,11.0,10.0
11,265,2.23606797749979,54.0,3.0,9.055385138137417,11.0,12.0,12.165525060596439,26.30589287593181,17.26267650163207,16.0,12.0,12.0,0.0,14.0,5.0,2.0,9.055385138137417,11.045361017187261,11.0,20.0,18.0,32.0
12,283,1.4142135623730951,25.317977802344327,2.23606797749979,3.1622776601683795,8.06225774829855,8.06225774829855,7.0,13.341664064126334,10.198039027185569,9.5,7.0,11.0,2.0,4.0,0.0,0.0,2.23606797749979,3.1622776601683795,3.5,10.0,6.0,8.06225774829855
13,285,1.0,24.020824298928627,2.23606797749979,3.0,6.0,6.0,6.0,12.041594578792296,9.055385138137417,8.5,8.0,9.0,2.5,3.5,0.5,0.5,3.0,4.0,4.0,9.0,8.0,8.0
14,286,2.0,23.0,2.0,3.0,5.0,7.0710678118654755,5.0,12.0,9.0,8.0,7.0,7.0,2.0,5.0,2.0,0.0,3.0,3.0,3.5,7.0,8.0,9.055385138137417
15,287,0.0,24.020824298928627,2.0,3.0,6.082762530298219,7.0710678118654755,6.082762530298219,11.045361017187261,8.06225774829855,8.0,8.0,7.0,1.5,3.5,0.5,0.5,3.0,3.0,3.0,7.0,8.0,8.06225774829855
16,309,4.0,41.43669871020132,4.123105625617661,9.055385138137417,11.045361017187261,11.045361017187261,11.180339887498949,28.284271247461902,19.235384061671343,17.0,14.0,8.0,0.0,17.0,8.0,3.0,2.23606797749979,2.8284271247461903,2.0,12.0,20.0,20.223748416156685
17,310,4.0,36.49657518178932,4.123105625617661,8.246211251235321,10.198039027185569,11.045361017187261,11.180339887498949,27.459060435491963,19.235384061671343,17.0,15.0,9.0,1.0,15.0,7.0,1.0,2.0,2.8284271247461903,2.0,11.0,19.0,18.24828759089466
18,311,5.0,36.22154055254967,3.1622776601683795,8.06225774829855,9.055385138137417,10.0,11.180339887498949,27.294688127912362,19.235384061671343,16.5,13.0,9.0,0.0,16.0,7.0,2.0,2.23606797749979,2.23606797749979,1.5,11.0,19.0,18.110770276274835
19,312,4.0,34.36568055487916,4.123105625617661,8.06225774829855,8.06225774829855,10.04987562112089,10.198039027185569,26.30589287593181,18.24828759089466,16.0,14.0,9.0,1.5,14.5,6.5,1.5,1.4142135623730951,2.23606797749979,1.5,11.0,18.0,17.11724276862369
20,312,6.0,30.59411708155671,2.0,5.0990195135927845,8.246211251235321,8.246211251235321,7.0710678118654755,20.09975124224178,15.033296378372908,12.0,6.0,12.0,2.0,11.0,5.0,1.0,2.8284271247461903,3.1622776601683795,3.0,16.0,8.0,13.152946437965905
21,313,3.1622776601683795,33.37663853655727,4.0,8.06225774829855,9.055385138137417,10.04987562112089,10.198039027185569,25.317977802344327,17.26267650163207,15.5,14.0,9.0,1.5,13.5,5.5,1.5,2.0,2.23606797749979,2.0,10.0,17.0,15.132745950421556
22,314,5.0,34.132096331752024,3.0,7.0710678118654755,8.0,9.0,9.219544457292887,24.186773244895647,17.11724276862369,14.5,11.0,8.0,0.5,14.5,6.5,2.5,1.4142135623730951,2.8284271247461903,1.5,10.0,17.0,16.1245154965971
23,314,6.0,27.65863337187866,2.23606797749979,5.0990195135927845,7.0710678118654755,8.246211251235321,6.0,19.1049731745428,14.035668847618199,11.0,5.0,11.0,2.0,11.0,5.0,0.0,2.8284271247461903,2.0,2.0,15.0,8.0,13.341664064126334
24,315,4.0,33.24154027718932,3.1622776601683795,7.0710678118654755,8.06225774829855,9.055385138137417,9.055385138137417,23.194827009486403,16.1245154965971,14.0,11.0,7.0,0.0,14.0,7.0,2.0,2.0,2.23606797749979,1.5,10.0,16.0,16.1245154965971
25,315,6.0,25.709920264364882,2.0,5.0990195135927845,7.280109889280518,7.280109889280518,5.0990195135927845,18.110770276274835,13.038404810405298,10.0,4.0,10.0,2.0,11.0,5.0,1.0,2.23606797749979,3.1622776601683795,2.5,14.0,7.0,12.165525060596439
26,316,4.0,33.13608305156178,3.0,7.0710678118654755,8.06225774829855,9.055385138137417,8.06225774829855,22.090722034374522,15.033296378372908,13.0,9.0,6.0,0.5,14.5,7.5,2.5,1.0,2.8284271247461903,2.0,8.0,15.0,16.0312195418814
27,317,3.0,29.427877939124322,3.0,6.082762530298219,7.0710678118654755,8.06225774829855,9.219544457292887,21.213203435596427,15.132745950421556,13.5,12.0,7.0,0.5,11.5,4.5,1.5,1.4142135623730951,2.8284271247461903,2.0,8.0,15.0,15.132745950421556
28,318,3.1622776601683795,30.265491900843113,3.0,7.0,7.0710678118654755,8.06225774829855,9.219544457292887,22.20360331117452,15.297058540778355,13.5,11.0,7.0,0.0,13.0,6.0,2.0,2.0,2.23606797749979,2.0,8.0,15.0,14.142135623730951
29,319,3.0,29.274562336608895,3.1622776601683795,7.0,7.0710678118654755,8.06225774829855,8.246211251235321,21.213203435596427,14.317821063276353,12.5,10.0,6.0,0.0,13.0,6.0,2.0,2.23606797749979,2.23606797749979,2.0,8.0,14.0,13.038404810405298
30,320,2.0,29.154759474226502,3.0,6.082762530298219,7.0,8.0,8.06225774829855,19.1049731745428,13.038404810405298,12.0,9.0,6.0,0.5,11.5,5.5,2.5,2.0,1.4142135623730951,1.5,8.0,14.0,14.035668847618199
31,321,3.0,29.274562336608895,3.0,6.082762530298219,8.06225774829855,8.06225774829855,8.246211251235321,20.223748416156685,14.142135623730951,12.5,10.0,6.0,0.0,12.0,5.0,2.0,1.0,1.4142135623730951,1.0,8.0,14.0,14.142135623730951
32,322,3.0,28.284271247461902,3.0,6.082762530298219,7.0710678118654755,8.0,7.280109889280518,19.235384061671343,13.152946437965905,11.5,9.0,5.0,0.0,12.0,6.0,2.0,1.4142135623730951,2.23606797749979,2.0,7.0,13.0,13.152946437965905
33,323,4.0,27.294688127912362,2.23606797749979,5.0990195135927845,7.0710678118654755,7.0710678118654755,7.0710678118654755,18.24828759089466,13.152946437965905,11.0,9.0,5.0,0.0,11.0,6.0,1.0,0.0,1.4142135623730951,1.0,8.0,14.0,13.152946437965905
34,325,2.0,25.179356624028344,3.1622776601683795,5.0,6.0,7.0,7.0710678118654755,17.11724276862369,12.165525060596439,11.0,8.0,5.0,0.5,10.5,5.5,2.5,2.0,2.8284271247461903,1.5,7.0,12.0,12.041594578792296
35,326,3.0,24.186773244895647,2.0,5.0990195135927845,6.082762530298219,6.082762530298219,7.0710678118654755,17.11724276862369,12.041594578792296,10.5,8.0,5.0,0.5,10.5,5.5,1.5,1.4142135623730951,1.4142135623730951,1.0,7.0,12.0,12.041594578792296
36,327,4.0,24.186773244895647,2.0,4.123105625617661,6.0,6.082762530298219,7.280109889280518,17.26267650163207,13.152946437965905,11.0,9.0,6.0,0.5,9.5,4.5,1.5,1.4142135623730951,1.4142135623730951,1.0,8.0,12.0,11.045361017187261
37,340,1.4142135623730951,49.09175083453431,4.123105625617661,7.0,13.038404810405298,14.035668847618199,16.0312195418814,28.160255680657446,21.213203435596427,20.5,15.0,18.0,0.5,11.5,2.5,2.5,4.123105625617661,4.0,4.0,13.0,7.0,15.297058540778355
38,341,1.4142135623730951,49.16299421312742,4.0,7.0710678118654755,14.035668847618199,14.035668847618199,14.317821063276353,26.476404589747453,19.4164878389476,18.5,13.0,17.0,1.0,11.0,3.0,3.0,3.0,3.0,3.0,12.0,7.0,12.041594578792296
39,342,1.0,46.09772228646444,4.0,7.0710678118654755,12.0,13.038404810405298,14.317821063276353,25.495097567963924,18.439088914585774,18.0,13.0,16.0,0.5,10.5,2.5,2.5,4.0,4.0,4.0,11.0,7.0,13.038404810405298
40,343,1.0,42.1070065428546,4.123105625617661,7.0,12.0,13.0,13.152946437965905,24.331050121192877,17.46424919657298,17.0,12.0,15.0,0.5,10.5,2.5,2.5,3.0,3.0,3.5,11.0,6.0,14.142135623730951
41,344,1.0,39.11521443121589,3.0,7.0710678118654755,11.045361017187261,11.045361017187261,13.152946437965905,23.345235059857504,16.278820596099706,16.0,12.0,15.0,0.5,9.5,1.5,2.5,2.23606797749979,3.0,2.5,9.0,6.0,12.041594578792296
42,345,1.0,39.20459156782532,3.0,7.0710678118654755,11.045361017187261,12.041594578792296,12.165525060596439,22.360679774997898,15.297058540778355,15.0,10.0,14.0,0.0,10.0,2.0,3.0,2.0,2.23606797749979,2.5,9.0,5.0,12.041594578792296
43,345,0.0,22.0,2.0,3.0,6.0,5.0,6.0,11.0,8.0,8.0,8.0,8.0,2.0,3.0,0.0,0.0,3.0,4.0,3.5,8.0,7.0,9.055385138137417
44,346,1.0,38.118237105091836,3.0,5.0990195135927845,11.045361017187261,11.0,12.165525060596439,20.396078054371138,15.297058540778355,15.0,11.0,14.0,0.5,7.5,1.5,2.5,2.0,2.0,2.0,8.0,4.0,10.0
45,346,0.0,21.0,2.0,2.0,5.0990195135927845,6.0,6.0,10.0,8.0,8.0,8.0,8.0,2.0,2.0,0.0,1.0,3.0,3.0,3.0,8.0,7.0,9.055385138137417
46,347,1.4142135623730951,35.12833614050059,3.0,5.0,10.0,10.04987562112089,10.44030650891055,19.4164878389476,14.560219778561036,13.5,10.0,13.0,1.5,7.5,1.5,1.5,2.0,3.0,2.5,9.0,5.0,11.045361017187261
47,347,1.0,21.0,2.0,2.0,6.0,6.0,5.0,10.0,8.0,7.5,7.0,7.0,2.0,3.0,0.0,0.0,3.0,3.0,2.5,7.0,7.0,8.06225774829855
48,348,1.4142135623730951,33.06055050963308,3.0,5.0,9.055385138137417,10.04987562112089,10.198039027185569,19.235384061671343,14.317821063276353,13.5,10.0,12.0,1.0,8.0,2.0,2.0,2.0,2.0,2.0,8.0,4.0,11.045361017187261
49,348,0.0,19.0,2.0,2.0,5.0,6.0,5.0,9.0,7.0,7.0,7.0,7.0,2.0,2.0,0.0,0.0,3.0,3.0,3.0,7.0,7.0,8.0
50,349,1.4142135623730951,31.144823004794873,2.0,5.0,9.055385138137417,9.055385138137417,11.180339887498949,19.235384061671343,14.317821063276353,13.5,9.0,12.0,0.5,8.5,2.5,2.5,2.0,2.0,2.0,8.0,4.0,8.06225774829855
51,349,0.0,16.0312195418814,2.0,3.1622776601683795,4.0,5.0,6.082762530298219,11.180339887498949,8.06225774829855,8.0,9.0,10.0,3.5,1.5,1.5,1.5,2.0,2.0,2.0,7.0,7.0,8.0
52,350,1.0,30.066592756745816,3.0,5.0,8.0,8.06225774829855,9.055385138137417,17.11724276862369,12.165525060596439,12.0,10.0,12.0,2.0,6.0,1.0,1.0,2.0,2.0,2.5,8.0,4.0,9.055385138137417
53,351,0.0,29.154759474226502,2.0,5.0990195135927845,8.06225774829855,8.06225774829855,10.198039027185569,17.26267650163207,12.165525060596439,12.0,9.0,12.0,0.5,6.5,1.5,1.5,2.23606797749979,2.0,2.0,7.0,4.0,10.04987562112089
54,352,1.0,29.068883707497267,2.23606797749979,3.1622776601683795,9.055385138137417,9.0,9.055385138137417,15.297058540778355,12.165525060596439,11.5,9.0,11.0,1.0,5.0,1.0,1.0,2.0,2.0,2.0,7.0,4.0,8.06225774829855
55,353,1.0,27.073972741361768,2.23606797749979,4.123105625617661,7.0,7.0,8.06225774829855,15.297058540778355,11.180339887498949,10.5,8.0,10.0,1.0,6.0,1.0,1.0,1.0,2.0,1.5,7.0,4.0,8.0
56,354,1.0,27.018512172212592,2.23606797749979,3.1622776601683795,8.06225774829855,8.0,9.055385138137417,15.297058540778355,12.165525060596439,11.5,9.0,10.0,0.5,5.5,1.5,1.5,2.0,1.0,1.5,6.0,3.0,8.0
57,355,1.4142135623730951,26.1725046566048,2.0,3.0,7.0710678118654755,8.0,8.246211251235321,14.317821063276353,11.40175425099138,10.5,7.0,10.0,0.5,5.5,1.5,1.5,2.0,1.0,1.0,5.0,3.0,8.06225774829855
58,356,0.0,25.079872407968907,2.23606797749979,3.0,6.082762530298219,7.0,8.06225774829855,13.152946437965905,10.198039027185569,10.0,7.0,9.0,0.0,5.0,1.0,2.0,2.0,2.0,2.0,6.0,3.0,7.0710678118654755
59,399,12.36931687685298,91.54780172128658,7.0710678118654755,15.132745950421556,22.090722034374522,25.079872407968907,24.515301344262525,59.033888572581766,43.93176527297759,37.0,34.0,24.0,5.0,29.0,13.0,1.0,9.219544457292887,9.486832980505138,9.0,20.0,37.0,29.614185789921695
60,400,23.194827009486403,97.49358953285082,7.280109889280518,13.341664064126334,24.331050121192877,26.30589287593181,15.652475842498529,58.9406481131655,45.60701700396552,32.5,32.0,15.0,9.5,33.5,20.5,5.5,6.708203932499369,6.324555320336759,5.5,20.0,42.0,33.24154027718932
61,401,21.37755832643195,97.67292357659824,7.280109889280518,12.36931687685298,24.515301344262525,26.30589287593181,16.55294535724685,57.28001396647874,44.9221548904324,32.5,34.0,16.0,10.0,30.0,18.0,6.0,8.06225774829855,6.324555320336759,6.0,22.0,42.0,32.984845004941285
62,402,18.24828759089466,93.74433316206373,8.246211251235321,13.341664064126334,23.53720459187964,25.495097567963924,16.55294535724685,56.04462507680822,42.720018726587654,32.0,36.0,18.0,12.0,27.0,15.0,8.0,7.280109889280518,7.280109889280518,6.5,23.0,41.0,32.984845004941285
63,403,18.24828759089466,96.33794683301072,7.280109889280518,13.341664064126334,23.345235059857504,25.495097567963924,17.08800749063506,55.78530272392541,42.44997055358225,32.0,36.0,20.0,12.0,26.0,15.0,8.0,8.246211251235321,7.280109889280518,6.5,23.0,39.0,33.734255586866
64,404,18.24828759089466,93.38094023943002,8.246211251235321,14.317821063276353,23.345235059857504,26.68332812825267,16.15549442140351,56.753854494650845,42.44997055358225,32.0,37.0,21.0,14.0,26.0,13.0,9.0,8.06225774829855,8.246211251235321,7.0,23.0,40.0,31.78049716414141
65,405,20.396078054371138,95.1892851112981,7.280109889280518,12.165525060596439,24.331050121192877,25.495097567963924,15.811388300841896,55.54277630799526,43.41658669218482,32.0,37.0,22.0,14.5,24.5,14.5,9.5,8.06225774829855,7.0710678118654755,6.5,23.0,39.0,33.734255586866
66,406,19.235384061671343,95.1892851112981,7.280109889280518,12.165525060596439,22.561028345356956,24.73863375370596,15.811388300841896,54.3415126767741,42.20189569201838,31.5,38.0,23.0,15.5,22.5,12.5,11.5,7.280109889280518,7.0710678118654755,6.0,22.0,37.0,30.805843601498726
67,407,18.24828759089466,94.2019108086455,8.06225774829855,14.142135623730951,23.345235059857504,25.709920264364882,15.811388300841896,56.089214649520635,41.97618372363071,32.0,39.0,24.0,16.5,23.5,11.5,10.5,7.0710678118654755,7.0,6.5,23.0,37.0,30.59411708155671
68,408,19.235384061671343,95.03683496413377,7.0710678118654755,13.152946437965905,23.345235059857504,25.709920264364882,15.524174696260024,54.91812087098393,41.773197148410844,31.5,38.0,24.0,16.0,23.0,12.0,11.0,7.0710678118654755,8.06225774829855,7.0,22.0,37.0,28.635642126552707
69,409,19.1049731745428,94.2019108086455,7.280109889280518,11.40175425099138,22.561028345356956,24.73863375370596,16.492422502470642,54.12947441089743,42.7551166528639,32.5,40.0,25.0,16.5,20.5,11.5,12.5,7.0710678118654755,7.0710678118654755,6.0,21.0,35.0,29.427877939124322
70,410,19.1049731745428,94.04786015641186,7.0710678118654755,11.180339887498949,24.331050121192877,26.476404589747453,15.524174696260024,52.773099207835045,41.593268686170845,31.5,39.0,25.0,17.0,20.0,11.0,12.0,8.06225774829855,7.0,6.5,21.0,36.0,31.575306807693888
71,411,18.110770276274835,92.91393867445294,7.0710678118654755,12.041594578792296,22.360679774997898,24.515301344262525,16.492422502470642,53.600373133029585,41.593268686170845,32.0,40.0,27.0,17.5,19.5,9.5,12.5,7.0710678118654755,7.0710678118654755,6.0,22.0,36.0,29.614185789921695
72,412,18.110770276274835,93.90420650854784,8.06225774829855,12.041594578792296,22.360679774997898,24.515301344262525,14.560219778561036,52.61178575186362,40.607881008493905,31.0,40.0,27.0,19.5,18.5,8.5,13.5,7.0710678118654755,7.0,6.5,21.0,34.0,29.614185789921695
73,413,19.1049731745428,94.89467845985885,8.06225774829855,11.045361017187261,21.37755832643195,23.53720459187964,14.317821063276353,52.46903848937962,41.43669871020132,31.5,40.0,27.0,19.5,18.5,9.5,13.5,6.082762530298219,6.082762530298219,5.5,21.0,35.0,30.59411708155671
74,414,17.11724276862369,93.7709976485267,8.06225774829855,12.0,22.360679774997898,23.345235059857504,15.297058540778355,52.3450093132096,40.44749683231337,31.5,40.0,28.0,19.0,18.0,8.0,13.0,5.0990195135927845,7.0710678118654755,6.0,20.0,34.0,28.635642126552707
75,415,19.1049731745428,96.51942809610924,7.0710678118654755,12.0,23.194827009486403,26.476404589747453,16.492422502470642,54.45181356024793,42.579337712087536,32.5,40.0,30.0,19.0,19.0,8.0,13.0,7.280109889280518,7.0,6.5,21.0,31.0,30.265491900843113
76,416,21.02379604162864,90.44888059008801,8.06225774829855,12.041594578792296,23.194827009486403,25.495097567963924,15.132745950421556,56.22277118748239,44.181444068749045,33.5,40.0,31.0,20.5,20.5,8.5,13.5,7.0710678118654755,7.0710678118654755,6.5,22.0,31.0,30.4138126514911
77,417,17.11724276862369,95.25754563287887,9.0,13.0,25.179356624028344,27.294688127912362,14.142135623730951,53.150729063673246,40.19950248448356,31.5,38.0,31.0,20.5,18.5,6.5,13.5,8.0,8.0,7.5,21.0,28.0,30.14962686336267
78,418,17.11724276862369,94.13288479590966,8.0,12.0,23.021728866442675,25.179356624028344,14.035668847618199,51.088159097779204,39.11521443121589,30.5,36.0,31.0,19.5,17.5,6.5,11.5,9.0,9.0,8.5,23.0,26.0,32.0624390837628
79,419,15.0,94.02127418834527,9.0,13.0,23.08679276123039,24.08318915758459,13.0,50.0,37.0,29.5,35.0,33.0,21.0,16.0,4.0,13.0,10.0,10.0,9.5,24.0,24.0,35.014282800023196
80,420,17.0,96.04686356149273,10.0,12.041594578792296,25.0,27.0,15.132745950421556,54.08326913195984,42.04759208325728,33.5,35.0,38.0,21.5,17.5,5.5,11.5,9.0,9.055385138137417,8.5,27.0,23.0,34.0147027033899
81,421,17.029386365926403,93.13431161500041,9.055385138137417,12.165525060596439,25.019992006393608,26.0,14.035668847618199,52.08646657242167,40.01249804748511,31.5,33.0,38.0,21.5,16.5,4.5,11.5,11.045361017187261,11.045361017187261,10.5,28.0,21.0,33.015148038438355
82,422,18.0,96.42095207992918,9.055385138137417,12.165525060596439,25.019992006393608,27.073972741361768,14.035668847618199,53.150729063673246,41.048751503547585,32.0,32.0,41.0,22.5,16.5,3.5,12.5,11.180339887498949,10.04987562112089,9.5,30.0,18.0,35.05709628591621
83,423,21.0,94.64142856064674,9.055385138137417,13.152946437965905,24.08318915758459,26.076809620810597,16.1245154965971,59.21148537234985,46.09772228646444,35.5,33.0,44.0,22.5,20.5,5.5,12.5,11.045361017187261,11.045361017187261,10.5,32.0,19.0,32.14031735997639
84,424,29.017236257093817,92.77930803794561,8.06225774829855,14.142135623730951,22.090722034374522,24.08318915758459,16.0312195418814,67.1863081289633,53.08483775994799,38.5,34.0,46.0,24.0,27.0,11.0,15.0,12.041594578792296,11.180339887498949,10.5,33.0,17.0,32.14031735997639
85,425,24.020824298928627,91.7877987534291,8.06225774829855,14.142135623730951,22.090722034374522,24.186773244895647,16.0312195418814,62.20128616033595,48.093658625644196,36.0,33.0,45.0,23.0,23.0,7.0,14.0,13.152946437965905,11.045361017187261,11.0,33.0,16.0,33.13608305156178
86,426,21.02379604162864,91.0823802938856,8.06225774829855,14.317821063276353,24.186773244895647,25.317977802344327,16.1245154965971,59.413803110051795,45.17742799230607,34.5,32.0,46.0,23.0,20.0,4.0,13.0,13.152946437965905,13.038404810405298,12.0,35.0,16.0,34.23448553724738
87,427,20.0,90.93404203047393,8.06225774829855,13.341664064126334,22.20360331117452,23.345235059857504,16.0312195418814,57.21887800367987,44.04543109109048,34.0,31.0,44.0,21.5,19.5,4.5,11.5,13.152946437965905,13.152946437965905,12.0,34.0,16.0,34.36568055487916
88,428,18.027756377319946,90.93404203047393,9.055385138137417,13.341664064126334,21.213203435596427,23.345235059857504,16.1245154965971,56.43580423808985,43.18564576337837,34.0,31.0,44.0,21.5,18.5,3.5,11.5,11.180339887498949,11.045361017187261,11.0,34.0,17.0,35.22782990761707
89,429,17.0,92.91393867445294,9.055385138137417,14.317821063276353,21.213203435596427,24.186773244895647,16.0312195418814,56.22277118748239,42.04759208325728,33.5,31.0,44.0,21.5,18.5,3.5,10.5,12.165525060596439,12.041594578792296,11.5,34.0,16.0,34.36568055487916
90,430,18.0,92.77930803794561,10.198039027185569,14.142135623730951,21.095023109728988,22.20360331117452,16.1245154965971,58.309518948453004,44.181444068749045,35.0,32.0,44.0,22.0,20.0,3.0,11.0,13.152946437965905,12.165525060596439,12.0,35.0,16.0,33.37663853655727
91,431,17.029386365926403,90.79647570252934,8.06225774829855,14.142135623730951,23.08679276123039,24.186773244895647,18.027756377319946,57.21887800367987,43.104524124504614,34.5,31.0,43.0,19.0,20.0,4.0,10.0,13.038404810405298,13.038404810405298,12.5,35.0,17.0,36.22154055254967
92,432,17.029386365926403,92.65527507918802,8.06225774829855,14.142135623730951,21.095023109728988,23.08679276123039,17.029386365926403,56.22277118748239,42.1070065428546,33.5,29.0,40.0,17.5,21.5,5.5,8.5,13.152946437965905,13.152946437965905,12.5,35.0,19.0,33.24154027718932
93,433,17.0,92.5418824100742,7.0710678118654755,16.1245154965971,23.08679276123039,24.08318915758459,18.027756377319946,58.137767414994535,42.04759208325728,33.5,30.0,40.0,17.0,23.0,5.0,9.0,14.142135623730951,14.035668847618199,13.5,34.0,18.0,32.38826948140329
94,434,17.0,96.42095207992918,8.06225774829855,16.1245154965971,23.08679276123039,24.186773244895647,17.0,58.077534382926416,42.01190307520001,33.5,30.0,39.0,17.5,23.5,5.5,8.5,15.297058540778355,15.0,14.0,34.0,18.0,34.36568055487916
95,435,16.0312195418814,94.53041838477179,8.0,16.1245154965971,23.08679276123039,25.079872407968907,18.0,58.077534382926416,42.01190307520001,34.0,30.0,40.0,17.0,23.0,6.0,8.0,15.132745950421556,13.038404810405298,13.0,35.0,19.0,32.2490309931942
96,436,16.0312195418814,95.42536350467836,8.06225774829855,15.132745950421556,21.095023109728988,22.090722034374522,18.027756377319946,57.07889277132134,42.01190307520001,34.0,29.0,38.0,15.5,23.5,7.5,6.5,15.132745950421556,14.035668847618199,14.0,35.0,20.0,31.400636936215164
97,437,15.033296378372908,95.524865872714,8.0,15.132745950421556,22.090722034374522,23.08679276123039,19.026297590440446,57.0350769263968,42.0,34.5,28.0,38.0,14.0,24.0,7.0,5.0,16.278820596099706,14.035668847618199,14.0,35.0,20.0,32.14031735997639
98,438,14.035668847618199,95.42536350467836,8.0,13.152946437965905,22.090722034374522,23.08679276123039,19.026297590440446,54.037024344425184,41.0,34.0,28.0,37.0,13.5,21.5,6.5,4.5,16.1245154965971,14.035668847618199,13.5,35.0,19.0,31.144823004794873
99,439,6.0,93.53608929178085,9.055385138137417,15.132745950421556,22.02271554554524,24.020824298928627,18.027756377319946,48.041648597857254,33.0,30.0,26.0,36.0,13.0,17.0,1.0,4.0,13.152946437965905,12.041594578792296,12.0,34.0,19.0,33.24154027718932
100,440,8.0,93.53608929178085,9.055385138137417,14.142135623730951,20.09975124224178,21.095023109728988,20.024984394500787,51.03920062069938,37.0,33.0,29.0,39.0,14.0,17.0,2.0,4.0,15.132745950421556,14.035668847618199,13.5,35.0,19.0,31.400636936215164
101,441,12.0,92.5418824100742,9.055385138137417,13.152946437965905,22.090722034374522,23.194827009486403,20.024984394500787,54.037024344425184,41.0,35.0,30.0,40.0,15.0,19.0,4.0,5.0,16.1245154965971,15.0,14.5,37.0,21.0,32.38826948140329
102,442,15.0,92.5418824100742,8.06225774829855,13.152946437965905,22.090722034374522,24.186773244895647,20.024984394500787,56.0357029044876,43.0,35.5,30.0,40.0,15.0,21.0,5.0,7.0,14.142135623730951,13.038404810405298,12.5,36.0,19.0,32.2490309931942
103,443,11.045361017187261,93.7709976485267,9.055385138137417,15.132745950421556,22.090722034374522,24.186773244895647,18.027756377319946,53.08483775994799,38.01315561749642,32.5,27.0,39.0,15.0,20.0,3.0,6.0,6.324555320336759,6.324555320336759,5.5,36.0,20.0,34.36568055487916
104,444,10.04987562112089,92.65527507918802,8.06225774829855,16.1245154965971,22.090722034374522,24.186773244895647,17.029386365926403,51.24451190127583,35.12833614050059,30.0,28.0,39.0,16.5,17.5,0.5,7.5,5.0990195135927845,4.47213595499958,3.5,36.0,20.0,33.37663853655727
105,445,11.180339887498949,93.64827814754524,7.0710678118654755,15.132745950421556,23.08679276123039,24.186773244895647,18.0,51.24451190127583,36.124783736376884,30.5,28.0,39.0,15.5,17.5,0.5,7.5,4.123105625617661,4.47213595499958,4.0,35.0,20.0,34.52535300326414
106,446,15.033296378372908,92.77930803794561,8.06225774829855,16.1245154965971,23.194827009486403,25.317977802344327,18.027756377319946,57.07889277132134,41.012193308819754,33.5,28.0,40.0,16.0,23.0,4.0,7.0,5.0990195135927845,5.385164807134504,4.5,37.0,19.0,37.48332962798263
107,447,17.029386365926403,92.77930803794561,9.055385138137417,17.11724276862369,23.194827009486403,25.179356624028344,17.0,60.13318551349163,43.04648650006177,34.5,28.0,40.0,17.0,26.0,7.0,7.0,5.0990195135927845,5.385164807134504,4.5,36.0,19.0,34.36568055487916
108,448,18.027756377319946,94.76286192385707,8.06225774829855,16.1245154965971,23.194827009486403,25.317977802344327,18.0,60.13318551349163,44.04543109109048,35.0,28.0,40.0,16.0,26.0,8.0,7.0,5.385164807134504,5.385164807134504,4.5,36.0,18.0,34.52535300326414
109,449,16.0312195418814,95.75489543621255,8.06225774829855,16.278820596099706,23.194827009486403,25.179356624028344,18.0,58.215118311311535,42.04759208325728,34.0,27.0,39.0,15.0,25.0,7.0,6.0,7.280109889280518,7.280109889280518,6.0,36.0,18.0,34.52535300326414
110,450,17.029386365926403,95.75489543621255,9.055385138137417,15.297058540778355,23.08679276123039,24.186773244895647,17.0,58.215118311311535,43.04648650006177,34.5,27.0,39.0,16.0,25.0,8.0,7.0,8.246211251235321,8.246211251235321,7.5,36.0,18.0,33.54101966249684
111,451,17.029386365926403,95.88534820294495,8.06225774829855,16.1245154965971,24.186773244895647,26.30589287593181,17.0,58.137767414994535,42.04759208325728,33.5,26.0,39.0,15.5,25.5,7.5,6.5,9.219544457292887,8.246211251235321,8.0,36.0,19.0,34.36568055487916
112,452,18.027756377319946,94.76286192385707,8.06225774829855,15.297058540778355,22.20360331117452,24.331050121192877,18.0,59.21148537234985,44.04543109109048,35.0,27.0,39.0,15.0,26.0,9.0,6.0,11.180339887498949,9.055385138137417,9.0,36.0,18.0,34.52535300326414
113,453,17.029386365926403,93.64827814754524,7.0710678118654755,16.1245154965971,23.194827009486403,25.179356624028344,18.0,58.137767414994535,42.04759208325728,33.5,27.0,38.0,14.5,25.5,8.5,5.5,11.180339887498949,10.198039027185569,10.0,36.0,18.0,34.36568055487916
114,454,15.132745950421556,95.63472172804185,8.06225774829855,16.1245154965971,22.090722034374522,25.179356624028344,17.0,56.22277118748239,40.11234224026316,32.5,25.0,36.0,13.5,25.5,7.5,5.5,12.165525060596439,10.04987562112089,9.5,35.0,17.0,32.55764119219941
115,455,15.132745950421556,97.86725703727473,7.0710678118654755,14.142135623730951,22.20360331117452,24.331050121192877,18.0,54.230987451824994,40.11234224026316,32.5,24.0,37.0,12.5,23.5,7.5,4.5,12.36931687685298,11.045361017187261,10.5,37.0,18.0,35.35533905932738
116,456,13.152946437965905,95.88534820294495,8.06225774829855,15.132745950421556,22.20360331117452,25.317977802344327,17.0,53.23532661682466,38.118237105091836,31.5,23.0,36.0,12.5,23.5,6.5,3.5,11.180339887498949,10.198039027185569,9.5,37.0,19.0,34.52535300326414
117,457,13.152946437965905,95.88534820294495,8.06225774829855,15.297058540778355,22.20360331117452,24.186773244895647,17.0,53.33854141237835,38.118237105091836,31.5,23.0,36.0,12.5,23.5,5.5,3.5,9.219544457292887,9.486832980505138,8.5,37.0,18.0,33.37663853655727
118,458,13.341664064126334,96.0260381354974,8.06225774829855,16.1245154965971,23.194827009486403,25.317977802344327,17.0,54.3323108288245,38.2099463490856,31.5,23.0,37.0,13.0,24.0,6.0,4.0,4.47213595499958,5.830951894845301,4.0,37.0,19.0,34.36568055487916
119,459,15.132745950421556,96.0260381354974,7.0710678118654755,16.1245154965971,23.194827009486403,25.179356624028344,18.0,56.22277118748239,40.11234224026316,32.5,24.0,38.0,13.0,25.0,7.0,5.0,4.123105625617661,5.0,4.0,37.0,19.0,35.510561809129406
120,460,17.11724276862369,94.89467845985885,7.0710678118654755,16.278820596099706,24.186773244895647,25.317977802344327,18.0,58.309518948453004,42.1070065428546,33.5,25.0,38.0,13.5,26.5,7.5,5.5,3.1622776601683795,5.0,3.5,38.0,19.0,35.510561809129406
121,461,19.026297590440446,95.75489543621255,8.06225774829855,16.278820596099706,24.186773244895647,26.1725046566048,17.0,60.207972893961475,44.04543109109048,34.5,26.0,38.0,15.0,28.0,9.0,6.0,5.385164807134504,5.830951894845301,5.0,37.0,19.0,35.510561809129406
122,462,22.090722034374522,97.01546268507923,7.0710678118654755,15.132745950421556,25.317977802344327,27.16615541441225,17.029386365926403,61.1310068623117,46.04345773288535,35.0,24.0,38.0,14.0,30.0,12.0,6.0,5.385164807134504,5.385164807134504,5.0,38.0,20.0,34.52535300326414
123,463,23.08679276123039,95.88534820294495,7.0710678118654755,15.297058540778355,24.186773244895647,26.1725046566048,17.029386365926403,62.20128616033595,47.042533945356304,35.5,25.0,38.0,14.5,30.5,12.5,6.5,6.708203932499369,7.280109889280518,6.0,38.0,20.0,35.510561809129406
124,464,23.021728866442675,97.01546268507923,7.0710678118654755,14.317821063276353,24.186773244895647,26.30589287593181,18.027756377319946,62.289646009589745,48.093658625644196,36.5,25.0,39.0,14.0,30.0,13.0,6.0,6.324555320336759,6.324555320336759,6.0,37.0,19.0,36.345563690772494
125,465,22.090722034374522,97.01546268507923,8.06225774829855,15.132745950421556,23.194827009486403,26.1725046566048,16.0,61.204574992397426,46.09772228646444,35.0,24.0,38.0,15.0,30.0,12.0,6.0,7.280109889280518,7.615773105863909,7.0,38.0,20.0,34.52535300326414
126,466,21.095023109728988,98.00510190801293,8.06225774829855,16.278820596099706,24.186773244895647,25.179356624028344,17.029386365926403,62.20128616033595,46.04345773288535,35.5,25.0,39.0,15.0,30.0,12.0,6.0,7.615773105863909,8.246211251235321,7.0,37.0,19.0,37.33630940518894
127,467,19.026297590440446,97.86725703727473,8.06225774829855,16.278820596099706,23.194827009486403,25.317977802344327,18.0,61.204574992397426,45.044422518220834,35.5,26.0,39.0,14.5,28.5,10.5,5.5,7.280109889280518,7.615773105863909,6.5,37.0,20.0,35.510561809129406
128,468,22.090722034374522,96.74709297958259,7.0710678118654755,15.132745950421556,24.186773244895647,25.179356624028344,17.0,61.204574992397426,46.09772228646444,35.0,26.0,38.0,15.0,29.0,11.0,7.0,7.615773105863909,6.324555320336759,6.0,35.0,18.0,35.35533905932738
129,469,22.02271554554524,96.87620966986684,7.0710678118654755,15.297058540778355,24.186773244895647,26.1725046566048,16.0,60.207972893961475,45.044422518220834,34.0,24.0,37.0,14.5,29.5,11.5,6.5,7.615773105863909,8.54400374531753,7.0,36.0,19.0,36.22154055254967
130,470,21.02379604162864,95.88534820294495,8.06225774829855,15.297058540778355,23.194827009486403,25.179356624028344,17.0,61.204574992397426,46.04345773288535,35.5,24.0,37.0,13.5,30.5,12.5,5.5,7.280109889280518,7.280109889280518,6.5,37.0,19.0,35.510561809129406
131,471,21.095023109728988,97.01546268507923,8.06225774829855,16.278820596099706,25.179356624028344,27.294688127912362,17.029386365926403,62.20128616033595,46.04345773288535,35.5,24.0,38.0,14.0,31.0,12.0,6.0,8.246211251235321,8.246211251235321,7.0,37.0,19.0,34.52535300326414
132,472,23.021728866442675,96.0260381354974,7.0710678118654755,15.297058540778355,23.345235059857504,25.317977802344327,17.0,62.20128616033595,47.042533945356304,35.5,23.0,37.0,13.0,32.0,14.0,5.0,8.54400374531753,8.246211251235321,7.0,38.0,20.0,34.52535300326414
133,473,22.090722034374522,97.32420048477151,7.0710678118654755,16.278820596099706,24.331050121192877,25.317977802344327,17.0,62.289646009589745,46.09772228646444,35.0,21.0,37.0,12.0,33.0,14.0,4.0,8.246211251235321,7.280109889280518,7.0,38.0,20.0,33.37663853655727
134,474,23.021728866442675,97.01546268507923,7.0710678118654755,15.524174696260024,23.345235059857504,26.476404589747453,17.0,62.289646009589745,47.042533945356304,35.5,23.0,37.0,13.0,32.0,13.0,5.0,8.246211251235321,7.280109889280518,6.5,37.0,19.0,34.52535300326414
135,475,23.08679276123039,96.0260381354974,8.06225774829855,16.278820596099706,23.194827009486403,25.317977802344327,16.0,63.28506932918696,47.095647357266465,35.5,24.0,38.0,15.0,32.0,14.0,6.0,8.54400374531753,7.280109889280518,6.5,37.0,19.0,34.52535300326414
136,476,24.020824298928627,96.0260381354974,7.0710678118654755,15.297058540778355,24.331050121192877,27.294688127912362,18.0,64.19501538281614,49.040799340956916,37.0,25.0,39.0,14.0,32.0,14.0,6.0,9.219544457292887,8.246211251235321,7.5,36.0,19.0,36.49657518178932
137,477,25.019992006393608,96.87620966986684,7.0710678118654755,15.297058540778355,24.331050121192877,26.30589287593181,17.0,64.19501538281614,49.040799340956916,36.5,25.0,38.0,14.5,32.5,14.5,6.5,9.219544457292887,8.246211251235321,7.0,36.0,19.0,35.35533905932738
138,478,26.019223662515376,98.00510190801293,6.082762530298219,15.297058540778355,23.194827009486403,26.30589287593181,18.0,65.19202405202648,50.039984012787215,37.0,26.0,40.0,15.0,32.0,14.0,8.0,8.246211251235321,8.246211251235321,7.0,37.0,18.0,35.510561809129406
139,479,26.076809620810597,97.01546268507923,7.0710678118654755,15.132745950421556,24.186773244895647,26.30589287593181,17.029386365926403,65.12296062065974,50.039984012787215,37.0,25.0,39.0,15.0,33.0,15.0,7.0,9.219544457292887,8.54400374531753,7.5,36.0,19.0,35.510561809129406
140,480,25.079872407968907,97.01546268507923,7.0710678118654755,15.297058540778355,24.331050121192877,26.30589287593181,18.027756377319946,65.19202405202648,50.039984012787215,37.5,25.0,39.0,14.0,33.0,14.0,6.0,8.54400374531753,8.246211251235321,7.5,38.0,19.0,36.49657518178932
141,481,25.079872407968907,97.01546268507923,6.082762530298219,15.297058540778355,24.331050121192877,27.294688127912362,18.027756377319946,64.19501538281614,49.040799340956916,36.5,24.0,38.0,13.0,33.0,14.0,6.0,8.54400374531753,8.246211251235321,7.5,37.0,19.0,34.52535300326414
142,482,23.08679276123039,97.01546268507923,7.0710678118654755,15.297058540778355,24.331050121192877,26.476404589747453,17.0,62.289646009589745,47.095647357266465,35.5,23.0,37.0,13.0,32.0,14.0,5.0,8.54400374531753,8.54400374531753,7.5,38.0,20.0,34.713109915419565
143,483,24.08318915758459,96.0260381354974,6.082762530298219,15.297058540778355,24.331050121192877,26.476404589747453,18.027756377319946,63.198101237299845,48.041648597857254,36.0,24.0,38.0,13.0,32.0,14.0,6.0,9.219544457292887,7.280109889280518,7.0,38.0,20.0,34.52535300326414
144,484,23.08679276123039,95.1892851112981,7.0710678118654755,16.278820596099706,24.331050121192877,26.30589287593181,17.029386365926403,63.198101237299845,47.042533945356304,35.5,22.0,37.0,12.5,33.5,14.5,4.5,9.486832980505138,8.246211251235321,7.5,38.0,19.0,33.734255586866
145,485,23.08679276123039,96.17692030835673,7.0710678118654755,15.297058540778355,23.194827009486403,26.476404589747453,17.029386365926403,62.20128616033595,47.042533945356304,35.5,22.0,37.0,12.5,32.5,14.5,5.5,8.54400374531753,9.486832980505138,8.0,38.0,19.0,34.713109915419565
146,486,24.08318915758459,96.0260381354974,6.082762530298219,16.492422502470642,23.345235059857504,25.317977802344327,18.027756377319946,64.28063471995279,48.041648597857254,36.0,24.0,38.0,13.0,33.0,14.0,6.0,8.54400374531753,8.246211251235321,8.0,37.0,18.0,34.713109915419565
147,487,24.08318915758459,96.33794683301072,7.0710678118654755,15.297058540778355,24.331050121192877,26.476404589747453,17.0,63.28506932918696,48.093658625644196,36.0,23.0,39.0,14.0,32.0,14.0,6.0,8.246211251235321,7.615773105863909,6.5,38.0,18.0,31.575306807693888
148,488,24.186773244895647,96.17692030835673,7.0710678118654755,15.297058540778355,24.515301344262525,26.30589287593181,17.029386365926403,63.28506932918696,48.093658625644196,36.0,24.0,39.0,14.5,31.5,12.5,5.5,8.54400374531753,8.246211251235321,8.0,38.0,18.0,34.713109915419565
149,489,24.08318915758459,96.17692030835673,7.0710678118654755,14.317821063276353,24.331050121192877,26.30589287593181,17.0,62.289646009589745,48.093658625644196,36.0,25.0,40.0,15.5,29.5,12.5,6.5,5.0990195135927845,6.324555320336759,5.5,40.0,20.0,36.6742416417845
150,490,23.08679276123039,95.35197952848173,7.280109889280518,14.317821063276353,25.317977802344327,26.30589287593181,17.0,61.40032573203501,47.16990566028302,35.5,24.0,40.0,15.0,29.0,12.0,7.0,4.123105625617661,5.0,3.5,38.0,19.0,35.510561809129406
151,491,23.08679276123039,93.90420650854784,7.280109889280518,15.132745950421556,25.317977802344327,27.16615541441225,16.0312195418814,61.204574992397426,46.09772228646444,34.5,26.0,39.0,16.5,28.5,10.5,7.5,3.1622776601683795,4.242640687119285,3.0,39.0,20.0,36.49657518178932
152,492,22.090722034374522,95.03683496413377,8.06225774829855,16.278820596099706,23.345235059857504,25.495097567963924,17.029386365926403,63.198101237299845,47.042533945356304,36.0,27.0,41.0,17.0,29.0,11.0,8.0,5.0990195135927845,5.830951894845301,4.5,38.0,20.0,33.734255586866
153,493,22.090722034374522,94.89467845985885,7.0710678118654755,15.297058540778355,24.331050121192877,25.179356624028344,17.11724276862369,61.1310068623117,46.010868281309364,35.0,27.0,40.0,16.5,27.5,10.5,7.5,4.123105625617661,5.0,3.5,37.0,20.0,33.54101966249684
154,494,19.1049731745428,94.76286192385707,8.246211251235321,15.132745950421556,24.186773244895647,25.179356624028344,17.11724276862369,59.135437767890075,44.04543109109048,34.5,28.0,40.0,17.0,25.0,8.0,8.0,5.385164807134504,5.385164807134504,4.5,36.0,19.0,34.52535300326414
155,495,19.026297590440446,92.77930803794561,8.06225774829855,15.297058540778355,23.194827009486403,25.179356624028344,17.029386365926403,59.135437767890075,44.01136216933077,34.5,28.0,40.0,17.0,25.0,8.0,8.0,6.082762530298219,5.385164807134504,4.5,38.0,21.0,35.35533905932738
156,496,18.027756377319946,93.7709976485267,8.246211251235321,16.1245154965971,23.194827009486403,25.179356624028344,17.029386365926403,59.135437767890075,43.04648650006177,34.0,28.0,40.0,17.0,25.0,8.0,8.0,5.0990195135927845,5.0,4.5,37.0,20.0,34.36568055487916
157,497,18.027756377319946,92.5418824100742,9.055385138137417,16.278820596099706,23.194827009486403,26.1725046566048,17.0,60.207972893961475,44.04543109109048,35.0,31.0,41.0,19.0,24.0,6.0,9.0,5.385164807134504,5.830951894845301,5.0,36.0,20.0,36.345563690772494
158,498,18.027756377319946,92.65527507918802,8.06225774829855,16.1245154965971,22.20360331117452,24.186773244895647,17.0,59.135437767890075,43.04648650006177,34.0,30.0,41.0,18.5,23.5,6.5,8.5,6.324555320336759,5.830951894845301,4.5,36.0,19.0,35.35533905932738
159,499,21.095023109728988,92.77930803794561,8.06225774829855,15.132745950421556,22.090722034374522,24.08318915758459,17.029386365926403,61.1310068623117,46.04345773288535,35.5,30.0,42.0,19.0,25.0,8.0,10.0,7.280109889280518,7.615773105863909,6.5,36.0,20.0,37.48332962798263
160,500,21.02379604162864,91.6624241442479,8.06225774829855,15.132745950421556,23.194827009486403,24.08318915758459,18.027756377319946,62.07253821135398,47.01063709417264,36.5,31.0,42.0,18.5,25.5,8.5,9.5,6.082762530298219,6.324555320336759,6.0,36.0,21.0,35.35533905932738
161,501,22.02271554554524,90.55385138137417,8.06225774829855,15.033296378372908,22.090722034374522,24.186773244895647,18.0,63.071388124885914,48.041648597857254,37.0,32.0,42.0,19.0,26.0,9.0,10.0,8.246211251235321,7.280109889280518,6.5,36.0,20.0,36.345563690772494
162,502,23.021728866442675,90.44888059008801,8.06225774829855,15.132745950421556,22.090722034374522,24.08318915758459,18.0,64.1248781675256,49.040799340956916,37.5,33.0,42.0,19.5,26.5,9.5,10.5,9.219544457292887,7.280109889280518,6.5,36.0,21.0,36.345563690772494
163,503,22.02271554554524,90.55385138137417,9.055385138137417,15.132745950421556,22.090722034374522,24.020824298928627,18.027756377319946,64.07027391856539,49.01020301937138,38.0,33.0,43.0,20.0,26.0,9.0,10.0,9.219544457292887,8.246211251235321,7.5,35.0,21.0,35.12833614050059
164,504,23.021728866442675,92.43916918709297,8.0,17.26267650163207,22.02271554554524,25.079872407968907,17.029386365926403,65.06919393998976,48.0,36.5,33.0,42.0,20.5,27.5,9.5,11.5,9.219544457292887,8.246211251235321,7.5,35.0,21.0,35.22782990761707
165,505,24.020824298928627,91.44397191723465,8.0,15.132745950421556,22.090722034374522,24.08318915758459,17.029386365926403,64.03124237432849,49.0,37.0,32.0,41.0,19.5,27.5,10.5,10.5,9.219544457292887,8.246211251235321,8.0,36.0,22.0,34.23448553724738
166,506,24.020824298928627,91.44397191723465,9.055385138137417,16.1245154965971,22.02271554554524,24.020824298928627,18.110770276274835,67.02984409947557,51.0,39.0,34.0,43.0,20.5,28.5,10.5,11.5,10.04987562112089,9.219544457292887,8.5,35.0,22.0,34.23448553724738
167,507,24.020824298928627,89.35882720806042,8.0,16.1245154965971,22.02271554554524,24.020824298928627,18.0,66.06814663663572,50.00999900019995,38.0,35.0,43.0,21.0,27.0,10.0,13.0,9.219544457292887,8.246211251235321,8.0,34.0,22.0,35.12833614050059
168,508,26.019223662515376,91.44397191723465,8.06225774829855,16.1245154965971,22.090722034374522,24.08318915758459,18.027756377319946,68.06614430096654,52.009614495783374,39.0,34.0,43.0,20.5,29.5,11.5,11.5,9.219544457292887,8.54400374531753,8.0,36.0,23.0,35.22782990761707
169,509,27.018512172212592,91.44397191723465,8.0,16.1245154965971,22.02271554554524,24.08318915758459,17.029386365926403,68.0294054067798,52.0,38.5,34.0,43.0,21.5,29.5,11.5,12.5,10.04987562112089,8.246211251235321,7.5,34.0,21.0,36.124783736376884
170,510,26.019223662515376,89.35882720806042,9.0,16.1245154965971,22.090722034374522,24.08318915758459,18.027756377319946,69.02897942168927,53.0,40.0,36.0,44.0,22.0,29.0,11.0,12.0,10.04987562112089,9.219544457292887,8.5,34.0,22.0,35.22782990761707
171,511,26.019223662515376,89.27485648266257,9.0,17.11724276862369,22.02271554554524,23.021728866442675,18.027756377319946,70.02856560004639,53.0,40.0,37.0,44.0,22.5,29.5,11.5,13.5,10.198039027185569,8.246211251235321,7.5,34.0,23.0,34.132096331752024
172,512,27.018512172212592,88.2779700718135,8.0,16.1245154965971,22.02271554554524,24.08318915758459,18.0,69.06518659932803,53.009433122794285,39.5,36.0,43.0,21.5,29.5,12.5,12.5,10.04987562112089,8.246211251235321,7.5,35.0,23.0,35.12833614050059
173,513,27.0,88.36288813749809,9.055385138137417,16.1245154965971,22.02271554554524,23.021728866442675,18.027756377319946,70.02856560004639,54.0,40.5,36.0,44.0,22.0,30.0,12.0,13.0,10.198039027185569,8.246211251235321,8.0,34.0,23.0,36.124783736376884
174,514,23.021728866442675,84.29116205154607,9.0,16.1245154965971,21.02379604162864,22.0,19.0,67.06713054842886,51.0098029794274,39.5,38.0,45.0,22.5,25.5,8.5,12.5,10.04987562112089,9.219544457292887,8.5,36.0,25.0,34.132096331752024
175,515,13.038404810405298,82.29823813423954,10.0,14.142135623730951,19.0,21.0,22.02271554554524,59.135437767890075,45.044422518220834,38.5,38.0,45.0,19.5,17.5,2.5,9.5,10.04987562112089,8.246211251235321,8.0,34.0,23.0,33.24154027718932
176,516,2.23606797749979,82.29823813423954,11.0,13.152946437965905,18.0,18.110770276274835,24.08318915758459,50.24937810560445,37.12142238654117,36.0,38.0,45.0,17.5,8.5,5.5,6.5,9.055385138137417,9.219544457292887,8.5,35.0,24.0,33.13608305156178
177,517,1.0,78.31347265956222,11.045361017187261,12.165525060596439,17.029386365926403,18.027756377319946,24.020824298928627,47.265209192385896,35.12833614050059,35.0,38.0,45.0,17.5,5.5,7.5,6.5,9.055385138137417,9.219544457292887,8.5,36.0,25.0,34.132096331752024
178,518,1.0,78.31347265956222,11.045361017187261,12.165525060596439,19.0,19.026297590440446,25.019992006393608,48.25971404805462,36.124783736376884,36.0,39.0,46.0,17.5,5.5,7.5,7.5,6.082762530298219,7.280109889280518,6.5,35.0,24.0,34.132096331752024
179,519,1.0,78.23042886243178,10.04987562112089,12.165525060596439,17.029386365926403,19.026297590440446,24.020824298928627,46.2709412050371,34.132096331752024,34.0,38.0,44.0,17.0,5.0,8.0,7.0,4.0,4.47213595499958,4.0,35.0,26.0,33.13608305156178
180,520,1.4142135623730951,79.30952023559341,10.0,14.142135623730951,17.029386365926403,19.026297590440446,24.08318915758459,47.265209192385896,33.13608305156178,33.5,38.0,45.0,17.5,5.5,8.5,7.5,4.0,5.385164807134504,5.0,34.0,24.0,32.2490309931942
181,521,1.0,80.39900496896712,11.045361017187261,13.152946437965905,18.027756377319946,20.024984394500787,22.090722034374522,46.389654018972806,33.24154027718932,33.0,37.0,45.0,19.0,5.0,9.0,8.0,5.0,6.708203932499369,5.0,35.0,23.0,35.22782990761707
182,522,1.0,78.40918313565064,10.04987562112089,14.317821063276353,18.110770276274835,19.1049731745428,22.090722034374522,46.52956049652737,32.2490309931942,32.0,37.0,45.0,19.0,5.0,10.0,8.0,6.082762530298219,6.708203932499369,6.0,36.0,21.0,37.33630940518894
183,523,2.0,78.63841300535,10.04987562112089,14.142135623730951,18.027756377319946,19.235384061671343,21.37755832643195,45.89117562233506,31.78049716414141,31.0,36.0,46.0,20.0,4.0,11.0,10.0,5.0990195135927845,6.4031242374328485,5.0,35.0,18.0,36.49657518178932
184,524,1.4142135623730951,78.77182237323191,11.180339887498949,13.601470508735444,18.110770276274835,19.235384061671343,21.095023109728988,46.87216658103186,33.37663853655727,32.5,35.0,46.0,19.5,5.5,9.5,8.5,5.0990195135927845,6.4031242374328485,4.5,35.0,14.0,38.63935817272331
185,525,3.605551275463989,80.89499366462674,11.180339887498949,15.524174696260024,19.235384061671343,20.396078054371138,18.24828759089466,48.27007354458868,32.7566787083184,30.5,36.0,48.0,24.0,5.0,11.0,11.0,5.0990195135927845,6.4031242374328485,5.0,36.0,15.0,39.6232255123179
186,526,14.142135623730951,88.45903006477066,10.198039027185569,13.601470508735444,21.37755832643195,22.360679774997898,19.235384061671343,57.0701322935211,43.56604182158393,36.0,35.0,51.0,24.0,13.0,2.0,13.0,4.47213595499958,5.0,4.5,35.0,13.0,38.8329756778952
187,527,15.132745950421556,88.11923740024082,10.198039027185569,13.601470508735444,21.213203435596427,23.345235059857504,18.110770276274835,56.88585061331157,43.41658669218482,35.5,36.0,50.0,25.0,13.0,2.0,14.0,4.123105625617661,6.4031242374328485,4.5,34.0,13.0,36.87817782917155
188,528,16.1245154965971,90.2551937563706,10.04987562112089,12.649110640673518,21.213203435596427,23.345235059857504,18.110770276274835,56.71860364994893,44.28317965096906,36.0,35.0,50.0,24.5,13.5,0.5,13.5,6.082762530298219,7.211102550927978,5.5,35.0,12.0,40.792156108742276
189,529,17.26267650163207,91.41115905621152,9.219544457292887,12.36931687685298,22.360679774997898,24.515301344262525,18.110770276274835,56.88585061331157,44.553338819890925,35.5,34.0,50.0,24.0,14.0,0.0,13.0,4.47213595499958,6.4031242374328485,4.5,37.0,14.0,39.81205847478876
190,530,17.11724276862369,90.4267659490264,9.219544457292887,12.649110640673518,22.360679774997898,25.495097567963924,18.110770276274835,56.88585061331157,44.40720662234904,35.5,34.0,50.0,24.0,14.0,1.0,13.0,6.324555320336759,6.708203932499369,5.5,37.0,13.0,38.8329756778952
191,531,17.11724276862369,89.62700485902673,9.219544457292887,13.601470508735444,21.37755832643195,23.345235059857504,18.24828759089466,58.05170109479997,44.553338819890925,35.5,33.0,50.0,23.5,15.5,0.5,12.5,5.385164807134504,6.4031242374328485,5.0,37.0,13.0,40.024992192379
192,532,14.317821063276353,87.29833904490967,9.219544457292887,11.40175425099138,22.360679774997898,24.515301344262525,18.24828759089466,53.150729063673246,41.773197148410844,34.0,33.0,48.0,22.5,11.5,2.5,11.5,5.0990195135927845,6.4031242374328485,4.5,38.0,14.0,39.05124837953327
193,533,8.246211251235321,82.56512580987206,9.219544457292887,13.601470508735444,20.396078054371138,21.587033144922902,18.439088914585774,49.47726750741192,35.90264614203248,31.0,34.0,50.0,24.0,6.0,9.0,12.0,5.0990195135927845,6.4031242374328485,4.5,39.0,13.0,39.05124837953327
194,534,2.8284271247461903,79.2464510246358,11.180339887498949,14.560219778561036,18.439088914585774,20.396078054371138,17.46424919657298,45.60701700396552,31.04834939252005,29.0,34.0,48.0,24.0,3.0,12.0,11.0,3.1622776601683795,5.656854249492381,3.5,39.0,15.0,37.36308338453881
195,535,3.1622776601683795,87.29833904490967,10.198039027185569,14.560219778561036,19.235384061671343,20.615528128088304,18.439088914585774,44.9221548904324,30.364452901377952,28.5,31.0,46.0,20.5,4.5,10.5,9.5,3.605551275463989,5.0,3.0,39.0,14.0,37.36308338453881
196,536,2.23606797749979,82.56512580987206,10.198039027185569,13.601470508735444,19.4164878389476,21.587033144922902,18.439088914585774,43.68065933568311,30.083217912982647,28.5,32.0,48.0,22.0,2.0,13.0,10.0,4.123105625617661,5.656854249492381,3.5,39.0,13.0,38.3275357934736
197,537,2.0,86.31338250816034,10.198039027185569,13.601470508735444,20.396078054371138,21.37755832643195,17.46424919657298,41.7612260356422,28.160255680657446,27.0,30.0,45.0,20.5,2.5,11.5,8.5,4.123105625617661,5.830951894845301,4.0,38.0,13.0,38.3275357934736
198,538,3.605551275463989,89.44271909999159,10.198039027185569,14.560219778561036,20.396078054371138,22.360679774997898,17.26267650163207,44.64302857109943,30.083217912982647,28.0,29.0,45.0,20.0,6.0,9.0,8.0,4.123105625617661,6.4031242374328485,4.5,38.0,12.0,38.3275357934736
199,539,2.23606797749979,82.56512580987206,11.180339887498949,15.524174696260024,19.4164878389476,21.37755832643195,17.46424919657298,45.60701700396552,30.083217912982647,28.5,31.0,47.0,22.0,5.0,11.0,10.0,4.47213595499958,6.4031242374328485,4.0,37.0,12.0,39.05124837953327
200,540,5.0,82.37718130647589,11.180339887498949,15.524174696260024,19.235384061671343,21.37755832643195,17.26267650163207,48.507731342539614,32.984845004941285,30.0,34.0,49.0,24.5,5.5,10.5,12.5,6.324555320336759,7.211102550927978,5.0,36.0,12.0,36.87817782917155
201,541,7.615773105863909,81.21576201698781,10.198039027185569,15.524174696260024,19.235384061671343,21.37755832643195,18.24828759089466,51.419840528729765,35.90264614203248,31.5,34.0,48.0,23.0,9.0,7.0,11.0,5.0990195135927845,5.830951894845301,4.5,37.0,14.0,39.81205847478876
202,542,5.830951894845301,80.89499366462674,11.180339887498949,14.560219778561036,20.09975124224178,21.213203435596427,18.24828759089466,49.47726750741192,34.92849839314596,31.5,36.0,48.0,24.0,6.0,9.0,12.0,6.324555320336759,6.708203932499369,5.5,35.0,11.0,37.656340767525464
203,543,2.23606797749979,80.06247560499239,12.165525060596439,15.524174696260024,18.24828759089466,20.223748416156685,19.235384061671343,48.27007354458868,32.7566787083184,31.5,36.0,49.0,23.5,4.5,11.5,10.5,6.324555320336759,6.4031242374328485,4.5,35.0,12.0,37.8549864614954
204,544,2.23606797749979,78.91767862779544,11.180339887498949,13.601470508735444,18.24828759089466,20.396078054371138,19.6468827043885,46.57252408878007,32.984845004941285,31.0,36.0,48.0,23.0,3.0,12.0,10.0,6.082762530298219,7.211102550927978,5.5,34.0,12.0,37.48332962798263
205,545,2.23606797749979,75.8023746329889,11.180339887498949,14.560219778561036,19.235384061671343,21.213203435596427,20.396078054371138,47.53945729601885,32.984845004941285,31.5,39.0,50.0,24.5,1.5,13.5,11.5,5.0990195135927845,5.830951894845301,4.5,34.0,12.0,36.6742416417845
206,546,1.4142135623730951,78.91767862779544,12.36931687685298,14.560219778561036,18.24828759089466,20.223748416156685,19.4164878389476,47.53945729601885,32.984845004941285,31.5,37.0,49.0,24.0,3.0,12.0,11.0,5.0990195135927845,6.4031242374328485,4.0,34.0,11.0,35.6931365951495
207,547,2.0,79.90619500389191,11.180339887498949,13.601470508735444,20.223748416156685,21.37755832643195,19.4164878389476,44.64302857109943,31.04834939252005,30.0,36.0,48.0,23.0,1.0,14.0,11.0,5.0990195135927845,5.656854249492381,3.5,33.0,11.0,36.87817782917155
208,548,2.0,82.56512580987206,11.180339887498949,11.40175425099138,18.24828759089466,20.396078054371138,19.4164878389476,42.44997055358225,31.04834939252005,30.0,32.0,48.0,21.0,1.0,12.0,9.0,4.47213595499958,5.656854249492381,3.5,34.0,11.0,36.87817782917155
209,549,2.0,81.21576201698781,11.180339887498949,11.40175425099138,19.235384061671343,20.396078054371138,20.223748416156685,43.174066289845804,31.78049716414141,31.0,32.0,46.0,19.0,3.0,10.0,8.0,4.47213595499958,6.4031242374328485,4.0,35.0,14.0,35.6931365951495
210,550,2.0,83.18653737234169,11.180339887498949,12.36931687685298,19.235384061671343,20.396078054371138,20.396078054371138,44.384682042344295,32.01562118716424,31.0,35.0,49.0,22.0,1.0,12.0,10.0,4.123105625617661,5.0,3.5,35.0,13.0,38.8329756778952
211,551,2.23606797749979,81.21576201698781,11.180339887498949,13.601470508735444,18.24828759089466,19.4164878389476,20.223748416156685,46.32493928760188,32.7566787083184,31.5,35.0,49.0,22.0,3.0,12.0,9.0,3.1622776601683795,5.0,3.5,37.0,15.0,37.656340767525464
212,552,3.605551275463989,76.79192665899195,12.041594578792296,13.601470508735444,19.1049731745428,21.095023109728988,19.4164878389476,48.27007354458868,34.713109915419565,32.5,39.0,50.0,25.5,2.5,11.5,12.5,3.1622776601683795,5.656854249492381,3.5,37.0,16.0,36.6742416417845
213,553,2.8284271247461903,77.78174593052023,12.165525060596439,15.297058540778355,19.235384061671343,19.235384061671343,19.235384061671343,49.03060268852505,33.734255586866,32.0,38.0,49.0,24.5,4.5,11.5,10.5,5.0990195135927845,6.4031242374328485,4.5,37.0,15.0,36.87817782917155
214,554,2.8284271247461903,78.91767862779544,12.165525060596439,15.297058540778355,20.223748416156685,21.213203435596427,19.4164878389476,49.24428900898052,33.95585369269929,32.0,38.0,50.0,25.0,4.0,13.0,12.0,6.324555320336759,5.830951894845301,4.5,38.0,15.0,37.8549864614954
215,555,3.1622776601683795,78.44743462982075,12.041594578792296,15.524174696260024,18.24828759089466,20.396078054371138,19.4164878389476,48.507731342539614,32.984845004941285,31.5,35.0,50.0,23.5,4.5,11.5,10.5,5.0990195135927845,7.211102550927978,5.5,38.0,15.0,35.90264614203248
216,556,7.280109889280518,83.02409288875127,10.04987562112089,15.524174696260024,19.235384061671343,21.37755832643195,20.223748416156685,52.952809179494906,37.48332962798263,33.5,34.0,47.0,20.5,11.5,5.5,9.5,6.324555320336759,8.06225774829855,6.0,37.0,15.0,36.87817782917155
217,557,7.280109889280518,83.02409288875127,10.198039027185569,17.26267650163207,19.235384061671343,21.37755832643195,19.1049731745428,53.75872022286245,36.49657518178932,32.5,34.0,47.0,21.5,12.5,6.5,10.5,6.324555320336759,6.708203932499369,5.5,36.0,14.0,35.90264614203248
218,558,10.04987562112089,85.0,10.198039027185569,17.46424919657298,21.213203435596427,23.345235059857504,19.1049731745428,56.71860364994893,39.319206502675,34.0,34.0,47.0,21.5,15.5,2.5,10.5,6.324555320336759,6.708203932499369,5.5,37.0,15.0,35.6931365951495
219,559,13.038404810405298,82.87339742040264,10.198039027185569,14.560219778561036,20.09975124224178,22.20360331117452,20.09975124224178,57.706152185014034,43.289721643826724,36.5,36.0,48.0,22.0,15.0,1.0,11.0,7.280109889280518,6.708203932499369,5.5,37.0,16.0,37.656340767525464
220,560,4.47213595499958,80.62257748298549,11.045361017187261,12.649110640673518,18.027756377319946,19.1049731745428,22.20360331117452,50.00999900019995,37.48332962798263,35.0,36.0,46.0,19.0,8.0,5.0,8.0,6.324555320336759,6.708203932499369,6.0,37.0,16.0,35.6931365951495
221,561,2.23606797749979,79.63039620647382,10.198039027185569,11.180339887498949,18.110770276274835,20.09975124224178,24.08318915758459,44.721359549995796,33.54101966249684,33.5,34.0,44.0,15.0,5.0,7.0,5.0,7.0710678118654755,7.615773105863909,6.0,37.0,16.0,35.6931365951495
222,562,1.4142135623730951,79.63039620647382,11.180339887498949,11.40175425099138,17.11724276862369,19.1049731745428,23.08679276123039,44.721359549995796,33.37663853655727,33.5,35.0,45.0,17.0,4.0,8.0,6.0,7.280109889280518,7.615773105863909,7.0,36.0,17.0,34.713109915419565
223,563,6.324555320336759,81.74350127074322,10.198039027185569,13.341664064126334,19.235384061671343,21.213203435596427,23.08679276123039,52.773099207835045,39.45883931389772,36.0,36.0,47.0,18.5,10.5,3.5,7.5,7.280109889280518,6.708203932499369,6.0,36.0,16.0,33.734255586866
224,564,11.180339887498949,83.86298349093002,11.045361017187261,15.297058540778355,21.213203435596427,23.194827009486403,19.1049731745428,56.568542494923804,41.30375285612676,35.5,35.0,47.0,22.0,15.0,2.0,10.0,5.0990195135927845,6.708203932499369,5.5,37.0,17.0,36.6742416417845
225,565,12.165525060596439,83.02409288875127,10.04987562112089,16.278820596099706,21.213203435596427,23.194827009486403,19.1049731745428,57.55866572463264,41.30375285612676,35.0,35.0,48.0,22.5,15.5,1.5,11.5,5.385164807134504,6.708203932499369,5.5,37.0,18.0,34.713109915419565
226,566,13.038404810405298,84.8528137423857,10.04987562112089,15.297058540778355,21.213203435596427,23.194827009486403,18.110770276274835,56.43580423808985,41.19465984809196,34.5,34.0,46.0,22.0,16.0,1.0,11.0,5.385164807134504,6.708203932499369,6.0,37.0,17.0,34.713109915419565
227,567,12.041594578792296,83.02409288875127,10.198039027185569,15.297058540778355,21.213203435596427,23.08679276123039,19.026297590440446,56.43580423808985,41.19465984809196,35.0,35.0,48.0,22.5,14.5,1.5,11.5,5.0990195135927845,6.4031242374328485,5.0,36.0,16.0,33.734255586866
228,568,12.165525060596439,84.8528137423857,9.055385138137417,14.317821063276353,21.213203435596427,23.194827009486403,19.1049731745428,54.589376255824725,40.311288741492746,34.0,35.0,47.0,22.0,13.0,2.0,11.0,6.324555320336759,7.211102550927978,5.5,37.0,17.0,33.734255586866
229,569,11.045361017187261,83.86298349093002,10.198039027185569,14.317821063276353,20.09975124224178,22.090722034374522,18.110770276274835,53.600373133029585,39.319206502675,33.5,35.0,47.0,23.0,12.0,3.0,12.0,6.082762530298219,5.830951894845301,4.5,37.0,17.0,34.92849839314596
230,570,12.165525060596439,85.0,10.04987562112089,15.297058540778355,21.213203435596427,23.345235059857504,18.24828759089466,55.731499172371095,40.44749683231337,34.0,35.0,48.0,23.5,13.5,2.5,11.5,5.0990195135927845,5.830951894845301,5.0,36.0,17.0,34.52535300326414
231,571,12.165525060596439,83.86298349093002,10.04987562112089,15.297058540778355,21.095023109728988,23.194827009486403,18.110770276274835,55.57877292636101,40.311288741492746,34.0,36.0,48.0,24.0,13.0,3.0,13.0,5.0990195135927845,5.830951894845301,4.5,35.0,16.0,34.713109915419565
232,572,15.033296378372908,81.74350127074322,10.198039027185569,14.317821063276353,21.095023109728988,23.345235059857504,18.110770276274835,57.55866572463264,43.289721643826724,35.5,36.0,47.0,23.5,15.5,0.5,12.5,4.123105625617661,5.0,4.0,36.0,16.0,33.734255586866
233,573,14.142135623730951,81.88406438373708,11.045361017187261,13.341664064126334,21.095023109728988,23.194827009486403,18.24828759089466,56.71860364994893,43.41658669218482,36.0,36.0,48.0,24.0,14.0,0.0,13.0,4.123105625617661,6.4031242374328485,4.5,34.0,16.0,33.54101966249684
234,574,15.132745950421556,82.87339742040264,10.04987562112089,14.317821063276353,20.223748416156685,23.345235059857504,18.24828759089466,57.706152185014034,43.41658669218482,35.5,36.0,48.0,24.0,15.0,1.0,12.0,3.1622776601683795,4.242640687119285,3.0,33.0,15.0,35.510561809129406
235,575,14.142135623730951,82.87339742040264,10.04987562112089,14.317821063276353,20.223748416156685,22.360679774997898,18.110770276274835,56.568542494923804,42.2965719651132,35.0,36.0,48.0,24.0,14.0,1.0,12.0,4.47213595499958,5.656854249492381,4.0,35.0,16.0,34.52535300326414
236,576,14.142135623730951,82.87339742040264,10.04987562112089,13.152946437965905,19.235384061671343,21.213203435596427,19.1049731745428,56.43580423808985,43.289721643826724,36.0,36.0,48.0,23.0,14.0,1.0,12.0,5.385164807134504,6.708203932499369,5.5,36.0,16.0,33.734255586866
237,577,14.035668847618199,83.86298349093002,10.04987562112089,13.341664064126334,21.095023109728988,22.20360331117452,18.110770276274835,55.44366510251645,42.190046219457976,35.0,36.0,48.0,24.0,13.0,1.0,13.0,5.385164807134504,6.4031242374328485,5.0,36.0,16.0,32.55764119219941
238,578,12.165525060596439,82.87339742040264,10.04987562112089,14.317821063276353,19.1049731745428,22.20360331117452,18.027756377319946,54.45181356024793,40.19950248448356,34.0,36.0,48.0,24.0,12.0,3.0,13.0,5.385164807134504,6.4031242374328485,5.0,36.0,17.0,33.734255586866
239,579,12.041594578792296,84.01190391843289,10.04987562112089,15.297058540778355,20.09975124224178,22.20360331117452,17.11724276862369,54.45181356024793,39.20459156782532,33.0,34.0,47.0,23.5,13.5,2.5,12.5,4.123105625617661,6.4031242374328485,5.0,36.0,17.0,33.54101966249684
240,580,12.165525060596439,83.72574275573791,10.04987562112089,14.317821063276353,21.095023109728988,23.194827009486403,18.027756377319946,54.45181356024793,40.19950248448356,34.0,36.0,47.0,23.5,12.5,2.5,12.5,5.385164807134504,6.4031242374328485,5.0,37.0,17.0,32.7566787083184
241,581,13.152946437965905,84.71717653463199,9.055385138137417,14.317821063276353,21.095023109728988,23.194827009486403,19.026297590440446,55.44366510251645,41.19465984809196,34.5,36.0,47.0,22.5,13.5,1.5,12.5,5.385164807134504,6.708203932499369,5.5,37.0,17.0,33.95585369269929
242,582,13.152946437965905,83.86298349093002,10.04987562112089,16.278820596099706,21.213203435596427,22.20360331117452,19.026297590440446,58.42088667591412,42.190046219457976,35.5,36.0,48.0,23.0,16.0,1.0,12.0,4.47213595499958,5.830951894845301,4.5,37.0,19.0,34.713109915419565
243,583,15.132745950421556,83.72574275573791,9.055385138137417,15.297058540778355,21.213203435596427,22.20360331117452,18.027756377319946,57.42821606144492,42.190046219457976,34.5,35.0,46.0,22.5,16.5,0.5,11.5,3.605551275463989,5.0,2.5,37.0,19.0,35.6931365951495
244,584,15.132745950421556,84.71717653463199,10.04987562112089,16.1245154965971,20.09975124224178,23.194827009486403,18.027756377319946,59.30430001273095,43.18564576337837,35.5,36.0,47.0,23.5,17.5,0.5,12.5,4.123105625617661,5.0,4.0,39.0,21.0,36.6742416417845
245,585,16.0312195418814,83.72574275573791,9.055385138137417,16.278820596099706,20.09975124224178,23.194827009486403,19.1049731745428,60.40695324215582,44.181444068749045,36.0,36.0,47.0,22.5,18.5,0.5,12.5,5.0990195135927845,5.830951894845301,5.0,41.0,21.0,36.87817782917155
246,586,15.033296378372908,81.61494961096282,10.198039027185569,17.26267650163207,21.095023109728988,23.08679276123039,18.0,60.29925372672534,43.104524124504614,35.5,37.0,47.0,24.0,18.0,0.0,13.0,5.0990195135927845,6.708203932499369,5.5,42.0,20.0,38.07886552931954
247,587,15.033296378372908,80.62257748298549,10.198039027185569,16.278820596099706,21.095023109728988,22.090722034374522,19.026297590440446,60.40695324215582,44.181444068749045,36.5,38.0,48.0,24.0,17.0,0.0,13.0,4.123105625617661,5.0,4.0,40.0,20.0,39.293765408777
248,588,17.029386365926403,81.74350127074322,9.219544457292887,15.297058540778355,21.095023109728988,23.08679276123039,19.026297590440446,60.40695324215582,45.17742799230607,36.5,37.0,48.0,23.5,17.5,1.5,13.5,5.0990195135927845,7.211102550927978,5.5,41.0,20.0,39.05124837953327
249,589,16.0312195418814,82.73451516749222,10.198039027185569,16.278820596099706,21.095023109728988,23.194827009486403,18.027756377319946,60.40695324215582,44.181444068749045,36.0,37.0,48.0,24.5,17.5,0.5,13.5,6.324555320336759,7.211102550927978,5.5,41.0,20.0,40.024992192379
250,590,17.029386365926403,81.74350127074322,10.04987562112089,16.278820596099706,21.095023109728988,22.20360331117452,18.110770276274835,61.40032573203501,45.17742799230607,36.5,38.0,49.0,25.5,17.5,0.5,14.5,6.082762530298219,6.708203932499369,5.5,41.0,19.0,39.05124837953327
251,591,16.0312195418814,81.61494961096282,10.04987562112089,15.297058540778355,20.09975124224178,21.095023109728988,19.1049731745428,60.40695324215582,45.17742799230607,37.0,39.0,49.0,25.0,16.0,1.0,14.0,6.324555320336759,7.615773105863909,6.5,42.0,19.0,42.20189569201838
252,592,17.029386365926403,80.75270893288967,10.04987562112089,14.317821063276353,21.095023109728988,22.20360331117452,18.24828759089466,59.53990258641679,45.27692569068709,36.5,38.0,49.0,25.5,15.5,0.5,14.5,6.082762530298219,7.211102550927978,5.5,40.0,18.0,41.97618372363071
253,593,17.11724276862369,81.61494961096282,11.045361017187261,14.142135623730951,20.09975124224178,22.090722034374522,17.11724276862369,59.413803110051795,45.27692569068709,36.5,40.0,50.0,28.0,14.0,1.0,16.0,7.0710678118654755,6.708203932499369,6.0,41.0,18.0,40.024992192379
254,594,16.1245154965971,82.73451516749222,10.04987562112089,14.317821063276353,21.095023109728988,22.20360331117452,18.110770276274835,58.54912467321779,44.28317965096906,36.0,38.0,49.0,25.5,14.5,0.5,14.5,7.280109889280518,8.06225774829855,7.0,41.0,18.0,41.23105625617661
255,595,16.1245154965971,82.73451516749222,11.045361017187261,14.142135623730951,21.095023109728988,22.20360331117452,17.11724276862369,58.42088667591412,44.28317965096906,36.0,38.0,49.0,26.5,14.5,0.5,14.5,5.385164807134504,7.211102550927978,5.5,40.0,17.0,42.20189569201838
256,596,17.029386365926403,85.15867542417507,9.219544457292887,13.341664064126334,21.095023109728988,23.194827009486403,19.026297590440446,58.42088667591412,45.17742799230607,36.5,38.0,52.0,26.0,13.0,1.0,16.0,6.324555320336759,6.708203932499369,6.0,41.0,17.0,41.23105625617661
257,597,16.1245154965971,82.73451516749222,11.045361017187261,13.341664064126334,20.09975124224178,22.20360331117452,17.11724276862369,57.55866572463264,44.28317965096906,36.0,39.0,50.0,27.5,12.5,1.5,15.5,6.082762530298219,6.4031242374328485,5.0,41.0,17.0,40.26164427839479
258,598,17.029386365926403,80.75270893288967,10.198039027185569,12.649110640673518,21.095023109728988,22.20360331117452,19.026297590440446,58.54912467321779,46.17358552246078,37.5,41.0,52.0,27.5,11.5,1.5,16.5,6.324555320336759,7.211102550927978,5.5,40.0,16.0,41.48493702538308
259,599,18.24828759089466,82.73451516749222,10.04987562112089,11.40175425099138,21.095023109728988,22.20360331117452,18.110770276274835,57.706152185014034,46.389654018972806,37.0,40.0,51.0,27.5,11.5,1.5,16.5,6.082762530298219,5.830951894845301,4.5,38.0,16.0,41.48493702538308
260,600,17.26267650163207,82.73451516749222,10.04987562112089,11.40175425099138,21.213203435596427,22.20360331117452,19.1049731745428,57.706152185014034,46.389654018972806,37.5,40.0,51.0,26.5,11.5,0.5,15.5,5.385164807134504,6.708203932499369,5.5,40.0,19.0,40.52159917870962
261,601,17.26267650163207,82.73451516749222,10.198039027185569,12.36931687685298,20.09975124224178,23.08679276123039,18.110770276274835,57.87054518492115,45.5411901469428,36.5,40.0,51.0,27.5,11.5,1.5,16.5,3.1622776601683795,5.0,3.5,39.0,18.0,40.52159917870962
262,602,17.11724276862369,82.73451516749222,10.198039027185569,11.704699910719626,20.223748416156685,22.20360331117452,19.1049731745428,57.87054518492115,46.389654018972806,37.5,40.0,51.0,26.5,11.5,0.5,15.5,3.1622776601683795,4.242640687119285,2.5,38.0,16.0,40.52159917870962
263,603,17.26267650163207,84.8528137423857,10.198039027185569,12.36931687685298,20.396078054371138,21.213203435596427,17.11724276862369,56.88585061331157,44.553338819890925,35.5,38.0,50.0,27.0,12.0,1.0,15.0,2.23606797749979,3.605551275463989,1.0,37.0,14.0,39.293765408777
264,604,17.11724276862369,82.73451516749222,10.198039027185569,11.40175425099138,21.095023109728988,23.194827009486403,18.24828759089466,56.88585061331157,45.5411901469428,36.5,40.0,51.0,27.5,10.5,1.5,16.5,2.23606797749979,4.242640687119285,2.5,37.0,15.0,38.600518131237564
265,605,17.26267650163207,82.73451516749222,10.198039027185569,12.36931687685298,20.09975124224178,22.20360331117452,18.110770276274835,57.87054518492115,45.5411901469428,36.5,40.0,51.0,27.5,11.5,1.5,16.5,3.1622776601683795,4.242640687119285,2.5,38.0,16.0,39.293765408777
266,606,17.11724276862369,83.86298349093002,10.198039027185569,12.36931687685298,20.223748416156685,22.20360331117452,19.235384061671343,58.855755878248644,46.52956049652737,37.5,40.0,52.0,27.0,12.0,1.0,15.0,4.123105625617661,5.0,3.5,38.0,16.0,38.600518131237564
267,607,16.278820596099706,83.72574275573791,11.180339887498949,12.36931687685298,20.223748416156685,22.360679774997898,18.24828759089466,58.05170109479997,45.70557952810576,37.0,40.0,51.0,27.5,11.5,1.5,15.5,4.123105625617661,5.0,3.5,39.0,17.0,39.56008088970496
268,608,17.26267650163207,83.86298349093002,10.04987562112089,13.341664064126334,20.223748416156685,22.20360331117452,18.24828759089466,58.855755878248644,45.5411901469428,36.5,40.0,52.0,28.0,12.0,2.0,16.0,4.0,5.0,3.5,39.0,17.0,38.3275357934736
269,609,16.1245154965971,82.73451516749222,10.198039027185569,13.341664064126334,21.213203435596427,23.194827009486403,19.1049731745428,58.69412236331676,45.39823785126467,37.0,41.0,52.0,27.5,11.5,2.5,16.5,5.0990195135927845,5.830951894845301,4.5,39.0,16.0,40.52159917870962
270,610,16.278820596099706,82.87339742040264,10.04987562112089,13.341664064126334,20.09975124224178,22.20360331117452,19.1049731745428,58.69412236331676,45.39823785126467,37.0,40.0,52.0,27.0,12.0,2.0,16.0,4.123105625617661,5.830951894845301,4.5,41.0,17.0,38.600518131237564
271,611,16.1245154965971,84.01190391843289,9.219544457292887,13.341664064126334,21.213203435596427,22.20360331117452,20.223748416156685,58.855755878248644,45.5411901469428,37.0,39.0,52.0,25.5,12.5,1.5,14.5,5.0990195135927845,5.0,3.5,41.0,16.0,39.56008088970496
272,612,16.1245154965971,82.87339742040264,10.198039027185569,11.40175425099138,20.223748416156685,23.345235059857504,19.1049731745428,56.71860364994893,45.39823785126467,37.0,40.0,52.0,27.0,10.0,2.0,16.0,4.123105625617661,5.0,3.5,41.0,17.0,39.84971769034255
273,613,15.132745950421556,84.01190391843289,10.198039027185569,11.40175425099138,20.223748416156685,22.20360331117452,19.235384061671343,55.90169943749474,44.553338819890925,36.5,38.0,51.0,25.5,10.5,1.5,14.5,4.123105625617661,5.0,3.5,42.0,16.0,41.48493702538308
274,614,17.11724276862369,83.86298349093002,10.198039027185569,13.341664064126334,20.223748416156685,22.20360331117452,18.24828759089466,58.855755878248644,45.5411901469428,36.5,39.0,51.0,27.0,13.0,1.0,15.0,4.123105625617661,5.830951894845301,4.5,41.0,16.0,39.56008088970496
275,615,16.278820596099706,83.18653737234169,10.04987562112089,12.36931687685298,20.223748416156685,21.37755832643195,19.1049731745428,57.706152185014034,45.39823785126467,37.0,39.0,53.0,27.0,11.0,2.0,15.0,4.123105625617661,5.830951894845301,4.0,41.0,15.0,40.52159917870962
276,616,17.26267650163207,84.01190391843289,10.04987562112089,13.341664064126334,22.20360331117452,23.194827009486403,18.110770276274835,58.69412236331676,45.39823785126467,36.5,39.0,52.0,27.5,12.5,2.5,15.5,4.123105625617661,5.830951894845301,4.0,40.0,16.0,41.48493702538308
277,617,18.110770276274835,83.02409288875127,9.219544457292887,13.341664064126334,21.213203435596427,23.345235059857504,19.026297590440446,59.53990258641679,46.2709412050371,37.0,39.0,52.0,26.5,13.5,0.5,15.5,5.0990195135927845,7.211102550927978,5.5,41.0,15.0,41.48493702538308
278,618,16.278820596099706,85.0,9.055385138137417,12.649110640673518,22.360679774997898,23.345235059857504,18.110770276274835,55.90169943749474,43.41658669218482,35.0,36.0,49.0,24.5,12.5,1.5,13.5,4.123105625617661,5.830951894845301,4.5,42.0,17.0,40.52159917870962
279,619,5.830951894845301,84.17244204607586,11.045361017187261,14.560219778561036,21.213203435596427,22.360679774997898,18.110770276274835,49.03060268852505,34.52535300326414,31.5,35.0,49.0,24.0,6.0,9.0,12.0,4.123105625617661,5.0,3.5,40.0,15.0,41.48493702538308
280,620,5.385164807134504,85.0,11.180339887498949,14.560219778561036,20.223748416156685,22.360679774997898,17.029386365926403,47.853944456021594,33.37663853655727,30.5,34.0,47.0,23.5,6.5,8.5,10.5,4.123105625617661,5.830951894845301,4.0,42.0,17.0,41.7612260356422
281,621,6.708203932499369,82.03657720797473,10.198039027185569,13.341664064126334,20.223748416156685,21.37755832643195,17.11724276862369,47.07440918375928,33.734255586866,30.0,33.0,46.0,22.5,6.5,8.5,10.5,5.0990195135927845,6.708203932499369,5.0,42.0,17.0,41.48493702538308
282,622,4.47213595499958,86.14522621712709,10.04987562112089,13.601470508735444,20.223748416156685,21.37755832643195,17.26267650163207,45.12205669071391,31.575306807693888,29.0,33.0,47.0,23.0,4.0,10.0,11.0,4.123105625617661,5.0,3.0,42.0,17.0,37.36308338453881
283,623,8.246211251235321,87.13208364316786,10.198039027185569,14.560219778561036,21.37755832643195,22.360679774997898,17.029386365926403,49.8196748283246,35.35533905932738,31.0,33.0,47.0,23.0,9.0,6.0,11.0,4.47213595499958,5.656854249492381,3.5,42.0,17.0,40.26164427839479
284,624,17.11724276862369,87.13208364316786,9.055385138137417,13.601470508735444,21.213203435596427,23.345235059857504,17.029386365926403,56.568542494923804,43.18564576337837,34.5,34.0,48.0,24.0,15.0,0.0,13.0,4.47213595499958,5.656854249492381,4.0,42.0,18.0,39.293765408777
285,625,16.278820596099706,85.70880934886448,10.04987562112089,13.152946437965905,21.095023109728988,23.08679276123039,18.027756377319946,57.42821606144492,44.28317965096906,36.0,38.0,49.0,25.5,13.5,0.5,14.5,3.605551275463989,5.656854249492381,3.5,38.0,15.0,38.8329756778952
286,626,13.038404810405298,84.71717653463199,10.198039027185569,15.297058540778355,21.095023109728988,23.08679276123039,17.029386365926403,55.44366510251645,40.19950248448356,33.5,36.0,47.0,24.5,13.5,1.5,13.5,4.0,6.4031242374328485,4.0,40.0,17.0,41.0
287,627,12.041594578792296,85.70880934886448,11.180339887498949,15.297058540778355,21.095023109728988,23.08679276123039,17.029386365926403,55.44366510251645,40.19950248448356,34.0,36.0,47.0,24.5,13.5,2.5,12.5,5.0990195135927845,5.830951894845301,4.5,39.0,19.0,39.81205847478876
288,628,13.038404810405298,84.38009243891595,10.198039027185569,15.132745950421556,21.095023109728988,23.194827009486403,17.0,55.226805085936306,40.11234224026316,33.5,37.0,45.0,24.0,14.0,2.0,13.0,5.0990195135927845,6.708203932499369,5.0,37.0,18.0,39.6232255123179
289,629,12.165525060596439,83.38465086573187,10.04987562112089,17.11724276862369,20.024984394500787,23.08679276123039,18.027756377319946,57.3149195236284,40.19950248448356,34.0,37.0,45.0,23.0,16.0,1.0,13.0,4.123105625617661,5.830951894845301,4.5,37.0,19.0,36.6742416417845
290,630,14.142135623730951,84.38009243891595,10.04987562112089,17.11724276862369,21.02379604162864,23.194827009486403,17.0,58.215118311311535,41.10960958218893,34.0,36.0,44.0,23.0,18.0,0.0,12.0,5.0990195135927845,5.830951894845301,4.5,37.0,21.0,35.510561809129406
291,631,13.038404810405298,84.48076704197234,10.04987562112089,18.24828759089466,21.095023109728988,23.194827009486403,18.027756377319946,59.30430001273095,41.10960958218893,34.5,36.0,45.0,22.5,18.5,0.5,11.5,5.0,5.830951894845301,5.0,37.0,21.0,32.55764119219941
292,632,15.033296378372908,82.49242389456137,9.055385138137417,18.110770276274835,21.02379604162864,24.08318915758459,17.029386365926403,59.21148537234985,41.10960958218893,33.5,34.0,43.0,21.5,20.5,1.5,11.5,2.0,4.242640687119285,2.5,34.0,19.0,30.265491900843113
293,633,13.038404810405298,79.30952023559341,10.04987562112089,17.26267650163207,21.095023109728988,24.186773244895647,17.029386365926403,57.3149195236284,40.11234224026316,33.5,36.0,43.0,22.5,17.5,0.5,11.5,6.324555320336759,6.324555320336759,5.5,33.0,18.0,26.30589287593181
294,634,13.152946437965905,79.51100552753688,10.04987562112089,17.11724276862369,20.09975124224178,23.08679276123039,17.11724276862369,57.42821606144492,40.311288741492746,33.5,35.0,44.0,22.5,17.5,0.5,11.5,5.0990195135927845,5.830951894845301,4.5,32.0,17.0,27.294688127912362
295,635,13.038404810405298,80.39900496896712,10.04987562112089,17.11724276862369,20.09975124224178,23.08679276123039,17.26267650163207,57.42821606144492,40.311288741492746,33.5,36.0,44.0,23.0,17.0,1.0,12.0,4.123105625617661,5.385164807134504,4.0,30.0,16.0,27.294688127912362
296,636,14.142135623730951,80.30566605165541,9.055385138137417,15.132745950421556,22.090722034374522,24.08318915758459,17.029386365926403,55.326304774492215,40.19950248448356,33.0,36.0,43.0,22.5,15.5,1.5,12.5,3.1622776601683795,5.385164807134504,4.5,29.0,14.0,26.30589287593181
297,637,13.152946437965905,77.52418977325722,9.055385138137417,16.1245154965971,22.20360331117452,24.186773244895647,18.110770276274835,56.43580423808985,40.311288741492746,33.5,38.0,47.0,24.5,13.5,3.5,13.5,3.1622776601683795,5.0,3.5,28.0,13.0,27.294688127912362
298,638,13.038404810405298,77.52418977325722,10.04987562112089,15.132745950421556,22.090722034374522,24.08318915758459,17.11724276862369,55.326304774492215,40.19950248448356,33.5,39.0,48.0,26.5,11.5,4.5,15.5,2.23606797749979,5.0,3.5,26.0,12.0,26.1725046566048
299,639,11.0,82.29823813423954,10.04987562112089,17.26267650163207,22.02271554554524,24.08318915758459,18.110770276274835,56.32051136131489,39.11521443121589,33.5,36.0,43.0,21.5,16.5,1.5,11.5,4.123105625617661,4.47213595499958,3.5,24.0,11.0,28.160255680657446
300,640,12.0,79.22752047110903,10.04987562112089,16.278820596099706,21.095023109728988,24.08318915758459,18.110770276274835,56.32051136131489,40.11234224026316,34.0,38.0,44.0,23.0,15.0,2.0,12.0,4.0,5.0990195135927845,4.5,25.0,13.0,25.179356624028344
301,641,11.0,80.09993757800315,10.04987562112089,17.11724276862369,21.02379604162864,23.021728866442675,19.026297590440446,57.14017850864661,40.049968789001575,34.5,40.0,44.0,23.0,15.0,2.0,12.0,6.082762530298219,7.0710678118654755,6.0,25.0,14.0,26.076809620810597
302,642,9.055385138137417,77.31752712031083,11.045361017187261,18.110770276274835,21.02379604162864,22.090722034374522,17.11724276862369,55.326304774492215,37.21558813185679,32.5,36.0,43.0,22.5,15.5,2.5,11.5,4.123105625617661,5.385164807134504,4.5,26.0,15.0,23.08679276123039
303,643,11.0,77.1621668954417,10.04987562112089,16.1245154965971,21.02379604162864,22.02271554554524,18.110770276274835,55.226805085936306,39.11521443121589,33.5,38.0,43.0,22.5,14.5,2.5,11.5,2.23606797749979,5.0,3.5,26.0,13.0,23.194827009486403
304,644,9.055385138137417,70.34912934784623,10.04987562112089,15.132745950421556,19.026297590440446,20.024984394500787,18.110770276274835,52.3450093132096,37.21558813185679,32.5,39.0,46.0,24.5,9.5,6.5,14.5,3.1622776601683795,4.47213595499958,3.5,25.0,14.0,23.021728866442675
305,645,11.045361017187261,77.05841939723393,10.0,16.1245154965971,20.0,22.0,18.110770276274835,55.226805085936306,39.11521443121589,33.5,40.0,43.0,23.5,13.5,3.5,13.5,2.23606797749979,4.242640687119285,2.5,24.0,13.0,22.20360331117452
306,646,10.04987562112089,77.1621668954417,10.0,15.132745950421556,21.02379604162864,22.090722034374522,18.027756377319946,53.150729063673246,38.05259518088089,33.0,38.0,43.0,22.5,12.5,3.5,12.5,2.0,4.47213595499958,3.5,22.0,12.0,22.20360331117452
307,647,3.1622776601683795,73.24616030891995,11.045361017187261,16.1245154965971,20.024984394500787,21.02379604162864,19.026297590440446,49.25444142409901,33.13608305156178,31.5,41.0,47.0,25.0,5.0,12.0,14.0,4.0,4.47213595499958,3.0,23.0,13.0,22.20360331117452
308,648,4.123105625617661,74.16872656315464,11.045361017187261,15.033296378372908,21.02379604162864,22.02271554554524,18.027756377319946,48.16637831516918,33.13608305156178,31.0,42.0,47.0,26.5,3.5,12.5,14.5,4.0,4.47213595499958,3.5,22.0,12.0,22.02271554554524
309,649,2.23606797749979,72.17340230306452,12.041594578792296,16.0312195418814,20.024984394500787,20.09975124224178,19.026297590440446,49.16299421312742,33.13608305156178,32.0,42.0,47.0,25.5,4.5,12.5,13.5,4.123105625617661,5.385164807134504,4.0,23.0,12.0,24.08318915758459
310,650,2.23606797749979,73.17103251970687,11.045361017187261,15.033296378372908,20.09975124224178,21.095023109728988,20.024984394500787,48.16637831516918,33.13608305156178,32.0,43.0,48.0,25.5,2.5,12.5,13.5,2.23606797749979,3.605551275463989,2.5,24.0,12.0,23.194827009486403
311,651,1.4142135623730951,71.17583859709698,12.041594578792296,17.11724276862369,19.026297590440446,20.09975124224178,20.024984394500787,50.24937810560445,33.13608305156178,32.5,43.0,48.0,25.5,4.5,12.5,13.5,3.0,4.47213595499958,3.5,23.0,12.0,23.194827009486403
312,652,2.23606797749979,75.32595834106593,12.041594578792296,16.1245154965971,18.027756377319946,20.09975124224178,19.0,49.16299421312742,33.06055050963308,32.0,36.0,43.0,20.5,9.5,7.5,8.5,3.1622776601683795,4.47213595499958,3.5,25.0,14.0,22.090722034374522
313,653,2.23606797749979,74.16872656315464,12.0,17.11724276862369,19.026297590440446,20.024984394500787,20.024984394500787,51.15662224971465,34.058772731852805,33.0,40.0,45.0,22.5,8.5,9.5,10.5,3.1622776601683795,4.47213595499958,3.5,24.0,14.0,24.08318915758459
314,654,3.1622776601683795,73.10950690573696,11.0,17.11724276862369,20.024984394500787,21.095023109728988,20.024984394500787,51.15662224971465,34.058772731852805,32.5,41.0,45.0,23.0,8.0,10.0,12.0,1.0,3.605551275463989,2.5,24.0,14.0,25.079872407968907
315,655,2.23606797749979,75.05997601918082,11.0,17.11724276862369,19.026297590440446,22.090722034374522,20.0,50.08991914547278,33.015148038438355,32.0,39.0,42.0,20.5,9.5,7.5,9.5,2.23606797749979,4.47213595499958,3.0,24.0,16.0,25.079872407968907
316,656,2.23606797749979,77.10382610480494,11.045361017187261,17.029386365926403,19.1049731745428,21.095023109728988,20.024984394500787,50.15974481593781,33.13608305156178,32.0,38.0,42.0,20.0,10.0,8.0,9.0,3.0,5.830951894845301,4.5,22.0,13.0,22.090722034374522
317,657,4.123105625617661,79.1580697086532,11.045361017187261,17.11724276862369,19.026297590440446,22.02271554554524,20.024984394500787,52.23983154643591,35.12833614050059,33.0,38.0,43.0,20.5,11.5,6.5,9.5,3.1622776601683795,4.47213595499958,3.5,23.0,13.0,25.079872407968907
318,658,13.038404810405298,77.31752712031083,10.04987562112089,14.142135623730951,20.09975124224178,23.021728866442675,20.024984394500787,57.21887800367987,43.104524124504614,36.5,38.0,45.0,21.5,15.5,0.5,10.5,3.0,4.123105625617661,3.0,23.0,14.0,25.079872407968907
319,659,14.035668847618199,78.23042886243178,11.045361017187261,15.132745950421556,20.024984394500787,23.021728866442675,19.026297590440446,59.21148537234985,44.10215414239989,37.0,39.0,45.0,23.0,17.0,1.0,12.0,3.0,3.605551275463989,2.5,23.0,12.0,24.186773244895647
320,660,14.142135623730951,80.30566605165541,11.045361017187261,15.132745950421556,21.02379604162864,23.08679276123039,20.0,60.207972893961475,45.09988913511872,38.0,39.0,46.0,22.5,17.5,0.5,11.5,1.0,4.242640687119285,2.0,23.0,11.0,24.186773244895647
321,661,14.035668847618199,78.16009211867653,11.045361017187261,15.132745950421556,21.02379604162864,23.021728866442675,18.027756377319946,58.215118311311535,43.104524124504614,36.0,40.0,45.0,24.5,15.5,0.5,12.5,4.0,6.324555320336759,4.5,24.0,14.0,24.020824298928627
322,662,15.033296378372908,79.22752047110903,10.04987562112089,15.132745950421556,21.02379604162864,22.090722034374522,19.026297590440446,59.21148537234985,44.10215414239989,36.5,38.0,44.0,22.0,18.0,1.0,11.0,3.0,3.605551275463989,2.5,23.0,13.0,22.02271554554524
323,663,12.041594578792296,77.1621668954417,10.04987562112089,15.132745950421556,21.095023109728988,23.021728866442675,19.026297590440446,56.22277118748239,41.10960958218893,35.0,38.0,43.0,21.5,15.5,0.5,10.5,3.0,5.385164807134504,4.5,25.0,15.0,22.20360331117452
324,664,4.123105625617661,80.22468448052632,11.045361017187261,18.110770276274835,20.024984394500787,22.090722034374522,18.027756377319946,51.24451190127583,33.13608305156178,31.0,35.0,41.0,20.0,13.0,6.0,9.0,3.0,5.385164807134504,4.0,25.0,15.0,23.08679276123039
325,665,6.324555320336759,80.22468448052632,10.04987562112089,17.11724276862369,20.09975124224178,22.02271554554524,20.0,53.23532661682466,36.124783736376884,33.0,38.0,44.0,21.0,12.0,6.0,10.0,3.0,4.47213595499958,3.5,25.0,15.0,25.079872407968907
326,666,12.165525060596439,81.30190649671138,10.04987562112089,17.11724276862369,21.095023109728988,23.08679276123039,20.024984394500787,59.135437767890075,42.04759208325728,36.0,38.0,45.0,21.5,17.5,0.5,10.5,2.0,4.47213595499958,3.5,25.0,14.0,25.079872407968907
327,667,10.04987562112089,79.1580697086532,11.045361017187261,16.0312195418814,20.024984394500787,22.02271554554524,22.0,59.07622195096772,43.04648650006177,38.0,40.0,45.0,20.5,16.5,0.5,9.5,2.0,3.605551275463989,2.5,25.0,14.0,25.079872407968907
328,668,2.23606797749979,77.23341245859851,12.041594578792296,15.132745950421556,20.024984394500787,21.02379604162864,24.0,52.23983154643591,37.12142238654117,36.5,40.0,46.0,19.0,9.0,7.0,7.0,4.123105625617661,5.385164807134504,4.5,26.0,14.0,23.194827009486403
329,669,1.4142135623730951,75.1065909225016,11.045361017187261,15.132745950421556,21.0,22.02271554554524,23.0,50.15974481593781,35.05709628591621,34.5,42.0,46.0,21.0,6.0,11.0,11.0,4.123105625617661,6.324555320336759,5.0,26.0,15.0,25.079872407968907
330,670,0.0,75.1065909225016,12.041594578792296,16.1245154965971,21.02379604162864,22.02271554554524,23.0,51.088159097779204,35.014282800023196,35.0,44.0,48.0,23.0,5.0,12.0,11.0,5.0,6.324555320336759,5.5,26.0,15.0,24.08318915758459
331,671,2.0,73.06161783043132,13.038404810405298,17.11724276862369,19.026297590440446,21.0,22.02271554554524,54.147945482723536,37.05401462729781,36.0,45.0,48.0,24.5,7.5,10.5,11.5,6.082762530298219,7.280109889280518,6.0,27.0,17.0,25.019992006393608
332,672,2.0,72.11102550927978,13.038404810405298,17.11724276862369,20.024984394500787,21.02379604162864,22.02271554554524,54.147945482723536,37.05401462729781,36.0,46.0,50.0,26.0,6.0,12.0,13.0,5.0,5.385164807134504,4.5,25.0,16.0,23.08679276123039
333,673,3.1622776601683795,73.43704787094863,11.045361017187261,18.110770276274835,19.026297590440446,20.09975124224178,22.0,54.147945482723536,36.05551275463989,34.5,39.0,47.0,21.0,11.0,9.0,10.0,3.0,5.385164807134504,4.0,25.0,16.0,23.021728866442675
334,674,6.082762530298219,73.24616030891995,12.041594578792296,17.11724276862369,19.026297590440446,21.213203435596427,20.024984394500787,55.08175741568164,38.01315561749642,35.0,38.0,44.0,21.0,14.0,4.0,9.0,4.0,5.385164807134504,4.5,25.0,17.0,23.021728866442675
335,675,14.0,75.1065909225016,10.04987562112089,17.11724276862369,19.0,21.02379604162864,21.0,62.07253821135398,45.0111097397076,38.0,40.0,44.0,21.0,20.0,2.0,11.0,5.0,5.385164807134504,5.0,25.0,17.0,22.02271554554524
336,676,19.0,77.10382610480494,11.0,19.1049731745428,23.0,25.019992006393608,19.026297590440446,68.06614430096654,49.01020301937138,39.5,42.0,46.0,25.0,24.0,4.0,14.0,3.0,5.385164807134504,4.5,24.0,16.0,22.090722034374522
337,677,25.019992006393608,81.15417426109393,10.04987562112089,19.1049731745428,23.021728866442675,25.019992006393608,19.0,73.10950690573696,54.037024344425184,41.5,43.0,48.0,26.5,27.5,7.5,16.5,4.0,5.0990195135927845,4.0,23.0,13.0,25.019992006393608
338,678,28.0178514522438,83.21658488546619,10.04987562112089,18.027756377319946,24.020824298928627,27.018512172212592,18.0,74.06078584514209,56.0357029044876,42.0,43.0,49.0,28.0,28.0,9.0,17.0,5.0,5.0990195135927845,5.0,25.0,14.0,27.16615541441225
339,679,29.0,85.21150157109074,11.045361017187261,17.11724276862369,25.019992006393608,28.0178514522438,18.027756377319946,75.1065909225016,58.034472514187634,43.5,45.0,51.0,30.0,27.0,8.0,19.0,5.0990195135927845,6.082762530298219,5.5,25.0,13.0,26.076809620810597
340,680,28.0,86.37129152675674,11.045361017187261,18.110770276274835,25.079872407968907,27.073972741361768,17.11724276862369,74.16872656315464,56.08029957123981,42.0,43.0,51.0,30.0,27.0,7.0,18.0,4.123105625617661,5.385164807134504,4.5,25.0,12.0,25.179356624028344
341,681,26.019223662515376,86.46964785403026,11.045361017187261,19.1049731745428,25.179356624028344,27.16615541441225,19.1049731745428,75.23961722390672,56.142675390472796,43.0,43.0,52.0,28.5,27.5,6.5,16.5,4.123105625617661,5.385164807134504,4.5,26.0,11.0,28.284271247461902
342,682,28.0178514522438,86.46964785403026,10.04987562112089,19.1049731745428,26.1725046566048,28.071337695236398,18.110770276274835,75.23961722390672,56.142675390472796,42.0,43.0,52.0,29.5,27.5,6.5,17.5,5.0990195135927845,5.385164807134504,5.0,26.0,11.0,24.331050121192877
343,683,27.0,86.57944328765345,10.198039027185569,18.24828759089466,25.179356624028344,27.16615541441225,19.1049731745428,74.33034373659252,56.142675390472796,42.5,42.0,52.0,28.0,27.0,7.0,16.0,6.324555320336759,6.324555320336759,5.5,27.0,12.0,25.317977802344327
344,684,26.019223662515376,87.5728268357257,10.04987562112089,17.11724276862369,25.079872407968907,28.160255680657446,19.235384061671343,72.3394774656273,55.226805085936306,42.0,41.0,51.0,27.0,26.0,7.0,16.0,3.1622776601683795,5.385164807134504,4.5,25.0,10.0,24.331050121192877
345,685,22.02271554554524,87.46427842267951,10.198039027185569,18.110770276274835,25.179356624028344,27.16615541441225,18.110770276274835,68.3593446428504,50.24937810560445,39.0,40.0,49.0,26.5,23.5,3.5,14.5,4.123105625617661,6.324555320336759,5.0,26.0,12.0,25.179356624028344
346,686,16.0312195418814,85.37564055396598,10.04987562112089,17.11724276862369,24.186773244895647,26.076809620810597,19.1049731745428,62.289646009589745,45.17742799230607,37.0,37.0,45.0,22.0,21.0,2.0,11.0,3.1622776601683795,4.47213595499958,3.5,24.0,11.0,23.08679276123039
347,687,9.055385138137417,85.28774824088158,11.045361017187261,17.26267650163207,22.090722034374522,25.079872407968907,17.11724276862369,54.45181356024793,37.21558813185679,32.5,36.0,43.0,22.5,14.5,3.5,10.5,3.0,4.47213595499958,3.5,24.0,12.0,25.079872407968907
348,688,11.045361017187261,84.2140130857092,10.04987562112089,16.1245154965971,24.08318915758459,26.1725046566048,19.026297590440446,56.22277118748239,40.11234224026316,34.5,37.0,43.0,21.0,16.0,2.0,10.0,4.0,5.385164807134504,4.5,24.0,12.0,24.186773244895647
349,689,17.029386365926403,83.21658488546619,10.0,16.1245154965971,22.02271554554524,25.079872407968907,18.110770276274835,61.204574992397426,45.09988913511872,36.5,39.0,45.0,24.0,19.0,2.0,13.0,2.23606797749979,4.47213595499958,3.0,22.0,11.0,24.186773244895647
350,690,16.0312195418814,82.21921916437786,10.0,17.11724276862369,22.0,25.079872407968907,19.1049731745428,62.20128616033595,45.09988913511872,37.0,39.0,45.0,23.0,20.0,2.0,13.0,2.0,3.605551275463989,2.5,23.0,12.0,23.08679276123039
351,691,10.198039027185569,82.21921916437786,11.045361017187261,15.132745950421556,21.02379604162864,24.020824298928627,22.02271554554524,58.309518948453004,43.18564576337837,38.0,40.0,46.0,21.0,15.0,1.0,9.0,3.1622776601683795,5.0990195135927845,4.0,23.0,12.0,23.194827009486403
352,692,1.0,82.49242389456137,12.041594578792296,12.36931687685298,21.095023109728988,21.02379604162864,24.08318915758459,48.507731342539614,36.22154055254967,36.0,38.0,47.0,18.5,5.5,7.5,6.5,4.0,5.385164807134504,4.5,25.0,12.0,21.095023109728988
353,693,1.0,79.40403012442127,10.04987562112089,10.198039027185569,20.024984394500787,20.09975124224178,25.079872407968907,45.39823785126467,35.22782990761707,35.0,39.0,47.0,18.0,2.0,9.0,8.0,5.0990195135927845,6.324555320336759,5.5,26.0,12.0,22.360679774997898
354,694,1.0,78.91767862779544,10.04987562112089,10.198039027185569,19.235384061671343,20.223748416156685,24.186773244895647,44.553338819890925,34.36568055487916,34.0,37.0,49.0,19.0,1.0,11.0,8.0,4.47213595499958,6.324555320336759,5.5,29.0,12.0,23.345235059857504
355,695,2.23606797749979,80.06247560499239,10.04987562112089,10.198039027185569,19.235384061671343,21.213203435596427,25.179356624028344,44.721359549995796,34.52535300326414,34.5,37.0,50.0,18.5,0.5,11.5,7.5,6.324555320336759,7.280109889280518,6.5,29.0,10.0,25.317977802344327
356,696,3.1622776601683795,77.27871634544663,10.198039027185569,11.180339887498949,19.235384061671343,20.396078054371138,24.331050121192877,48.83646178829912,37.656340767525464,35.5,36.0,50.0,19.0,5.0,9.0,8.0,4.123105625617661,5.0,3.5,32.0,11.0,24.73863375370596
357,697,14.035668847618199,80.8084154033477,11.180339887498949,16.492422502470642,20.615528128088304,22.561028345356956,21.587033144922902,63.150613615387776,46.69047011971501,39.0,36.0,53.0,23.5,17.5,0.5,10.5,5.385164807134504,7.211102550927978,5.0,33.0,8.0,25.96150997149434
358,698,18.24828759089466,83.67795408588812,11.180339887498949,18.439088914585774,22.80350850198276,23.53720459187964,19.6468827043885,67.468511173732,49.03060268852505,39.0,33.0,54.0,24.5,22.5,1.5,10.5,5.0,7.0710678118654755,4.0,33.0,4.0,27.202941017470888
359,699,18.24828759089466,83.24061508662703,11.180339887498949,18.439088914585774,22.80350850198276,24.73863375370596,17.72004514666935,65.5133574166368,47.07440918375928,37.0,30.0,53.0,24.5,22.5,1.5,10.5,2.8284271247461903,5.0,2.5,35.0,5.0,26.248809496813376
360,700,21.37755832643195,83.5224520712844,11.40175425099138,16.492422502470642,21.840329667841555,23.769728648009426,17.46424919657298,66.70832032063167,50.21951811795888,38.5,29.0,53.0,24.0,24.0,5.0,10.0,4.242640687119285,5.656854249492381,3.5,38.0,6.0,27.51363298439521
361,701,20.223748416156685,82.28000972289685,11.40175425099138,17.46424919657298,23.08679276123039,24.041630560342615,18.681541692269406,67.68308503607086,50.21951811795888,39.0,31.0,54.0,24.5,23.5,2.5,10.5,3.605551275463989,5.656854249492381,3.5,35.0,6.0,25.632011235952593
362,702,19.4164878389476,82.96987405076617,10.198039027185569,17.46424919657298,22.80350850198276,25.0,19.6468827043885,66.70832032063167,49.24428900898052,38.5,32.0,54.0,24.0,22.0,1.0,11.0,4.242640687119285,5.0,3.0,36.0,7.0,24.698178070456937
363,703,18.24828759089466,79.30952023559341,11.180339887498949,14.317821063276353,21.37755832643195,22.561028345356956,18.24828759089466,61.98386886924694,47.67598976424087,38.0,32.0,51.0,23.5,19.5,2.5,10.5,5.385164807134504,5.830951894845301,4.5,34.0,8.0,26.248809496813376
364,704,4.47213595499958,76.48529270389177,12.165525060596439,18.24828759089466,19.4164878389476,20.223748416156685,19.235384061671343,53.9351462406472,35.6931365951495,33.0,33.0,48.0,21.5,12.5,7.5,8.5,4.47213595499958,5.0,3.5,31.0,8.0,26.92582403567252
365,705,2.8284271247461903,70.8590149522275,11.045361017187261,17.11724276862369,18.24828759089466,20.09975124224178,20.223748416156685,50.635955604688654,33.54101966249684,32.0,37.0,48.0,22.5,7.5,10.5,10.5,4.123105625617661,5.0,3.5,30.0,12.0,26.30589287593181
366,706,3.1622776601683795,69.26037828369117,11.045361017187261,17.11724276862369,19.026297590440446,21.095023109728988,21.095023109728988,52.3450093132096,35.22782990761707,33.5,43.0,49.0,25.0,6.0,12.0,14.0,4.123105625617661,5.0,4.0,30.0,15.0,25.179356624028344
367,707,2.23606797749979,70.02856560004639,11.045361017187261,16.1245154965971,19.0,21.0,21.0,50.15974481593781,34.058772731852805,33.0,45.0,47.0,25.0,4.0,12.0,14.0,4.123105625617661,5.385164807134504,4.5,26.0,16.0,27.073972741361768
368,708,1.4142135623730951,71.00704190430693,11.045361017187261,16.0312195418814,20.0,21.02379604162864,22.02271554554524,50.039984012787215,34.0147027033899,33.5,47.0,48.0,25.5,2.5,14.5,14.5,5.0,5.385164807134504,4.5,23.0,18.0,25.0
369,709,1.0,70.02856560004639,11.0,15.132745950421556,19.0,20.024984394500787,23.0,50.039984012787215,35.0,34.5,43.0,45.0,21.0,6.0,11.0,11.0,4.0,5.385164807134504,4.5,25.0,20.0,27.018512172212592
370,710,7.0710678118654755,73.24616030891995,12.041594578792296,16.0312195418814,18.027756377319946,20.09975124224178,24.0,59.07622195096772,43.04648650006177,39.5,41.0,47.0,20.0,15.0,2.0,8.0,4.0,5.385164807134504,4.5,28.0,20.0,26.076809620810597
371,711,12.041594578792296,74.33034373659252,10.04987562112089,17.11724276862369,20.09975124224178,21.095023109728988,22.090722034374522,61.29437168288782,44.181444068749045,38.0,39.0,46.0,20.5,18.5,0.5,9.5,5.0990195135927845,6.324555320336759,5.0,30.0,18.0,26.1725046566048
372,712,9.055385138137417,71.449282711585,11.045361017187261,16.1245154965971,18.110770276274835,19.1049731745428,21.095023109728988,57.3149195236284,41.19465984809196,36.5,38.0,46.0,21.0,15.0,3.0,10.0,5.0990195135927845,6.324555320336759,5.5,33.0,17.0,26.30589287593181
373,713,2.23606797749979,70.57619995437555,11.180339887498949,19.235384061671343,18.110770276274835,19.1049731745428,21.213203435596427,53.75872022286245,34.52535300326414,33.0,36.0,45.0,19.5,12.5,8.5,8.5,5.0990195135927845,5.385164807134504,4.5,34.0,16.0,29.427877939124322
374,714,2.23606797749979,70.8590149522275,11.180339887498949,18.24828759089466,19.235384061671343,20.223748416156685,21.213203435596427,52.773099207835045,34.52535300326414,33.0,36.0,47.0,20.5,10.5,9.5,9.5,5.0990195135927845,5.830951894845301,5.0,35.0,16.0,27.459060435491963
375,715,5.0990195135927845,74.67261881037788,10.198039027185569,18.110770276274835,19.235384061671343,22.20360331117452,21.213203435596427,54.589376255824725,36.49657518178932,33.5,35.0,45.0,19.0,14.0,7.0,8.0,5.0990195135927845,5.830951894845301,5.0,34.0,16.0,27.459060435491963
376,716,6.082762530298219,78.5175139698144,11.045361017187261,21.213203435596427,20.223748416156685,22.20360331117452,19.235384061671343,57.55866572463264,36.345563690772494,33.0,35.0,44.0,20.5,17.5,5.5,8.5,6.082762530298219,6.324555320336759,5.5,32.0,18.0,27.16615541441225
377,717,8.06225774829855,80.30566605165541,11.045361017187261,20.024984394500787,20.024984394500787,22.090722034374522,19.1049731745428,58.215118311311535,38.2099463490856,34.0,36.0,43.0,20.5,18.5,2.5,9.5,4.123105625617661,6.324555320336759,5.5,30.0,18.0,27.16615541441225
378,718,8.0,79.1012010022604,11.045361017187261,20.024984394500787,21.02379604162864,23.021728866442675,19.026297590440446,58.077534382926416,38.05259518088089,34.0,38.0,42.0,21.0,18.0,3.0,10.0,5.0990195135927845,7.0710678118654755,6.5,28.0,21.0,25.0
379,719,12.0,80.00624975587844,10.04987562112089,19.0,21.02379604162864,24.020824298928627,20.0,61.00819617067857,42.01190307520001,36.0,39.0,40.0,19.5,21.5,1.5,9.5,5.0,6.0,6.0,27.0,23.0,27.0
380,720,14.035668847618199,83.0,10.0,21.02379604162864,22.0,25.0,20.0,65.0,44.01136216933077,37.0,40.0,40.0,20.0,25.0,4.0,10.0,5.0990195135927845,7.0710678118654755,6.0,24.0,23.0,25.0
381,721,16.0,84.00595217006948,9.0,21.0,22.02271554554524,25.019992006393608,20.09975124224178,66.03029607687671,45.044422518220834,37.0,40.0,39.0,19.5,26.5,4.5,10.5,4.123105625617661,5.0990195135927845,5.0,24.0,24.0,25.019992006393608
382,722,20.024984394500787,83.0,9.0,18.0,21.0,24.020824298928627,20.024984394500787,67.02984409947557,49.040799340956916,39.0,39.0,39.0,19.0,28.0,9.0,10.0,6.082762530298219,7.0,6.5,26.0,26.0,29.017236257093817
383,723,22.0,85.00588214941364,9.0,17.0,21.0,24.020824298928627,20.09975124224178,68.0294054067798,51.03920062069938,40.0,39.0,40.0,19.5,28.5,10.5,10.5,5.0990195135927845,7.0,6.5,25.0,24.0,28.0178514522438
384,724,21.0,85.0235261559999,9.0,18.0,22.0,24.020824298928627,20.024984394500787,68.00735254367721,50.00999900019995,39.5,39.0,41.0,20.0,28.0,8.0,11.0,6.0,7.0,6.5,27.0,25.0,28.0
385,725,19.0,84.02380615040002,9.055385138137417,17.029386365926403,21.02379604162864,23.021728866442675,20.024984394500787,65.00769185258002,48.0,38.5,37.0,39.0,18.0,27.0,8.0,9.0,5.0990195135927845,6.082762530298219,6.0,26.0,22.0,26.019223662515376
386,726,12.041594578792296,85.09406559801923,10.0,19.026297590440446,22.090722034374522,24.08318915758459,20.0,61.032778078668514,42.01190307520001,36.0,36.0,40.0,18.0,23.0,2.0,8.0,5.0,7.0710678118654755,6.0,28.0,23.0,25.019992006393608
387,727,11.045361017187261,85.09406559801923,9.0,20.024984394500787,21.02379604162864,23.021728866442675,20.09975124224178,60.13318551349163,40.11234224026316,34.5,35.0,39.0,17.0,23.0,2.0,8.0,5.0,7.0710678118654755,6.5,28.0,21.0,26.019223662515376
388,728,11.045361017187261,86.14522621712709,10.04987562112089,19.026297590440446,22.090722034374522,23.08679276123039,20.0,60.07495318350236,41.048751503547585,35.5,35.0,40.0,17.5,22.5,2.5,7.5,5.0,6.082762530298219,5.5,29.0,21.0,26.019223662515376
389,729,15.0,86.09297300012354,10.0,19.1049731745428,23.021728866442675,25.019992006393608,20.024984394500787,64.07027391856539,45.0111097397076,37.5,37.0,41.0,19.0,25.0,4.0,9.0,5.0,8.0,7.0,28.0,22.0,27.073972741361768
390,730,16.0,86.02325267042627,9.0,20.0,22.02271554554524,25.019992006393608,20.024984394500787,65.00769185258002,45.0111097397076,37.0,37.0,39.0,18.0,27.0,6.0,9.0,5.0990195135927845,6.082762530298219,5.5,27.0,23.0,24.020824298928627
391,731,22.0,87.02298546935747,9.0,17.029386365926403,22.0,24.020824298928627,19.0,67.00746227100382,50.0,39.0,36.0,38.0,18.0,30.0,12.0,9.0,5.0990195135927845,7.0,6.0,28.0,25.0,27.0
392,732,18.0,86.0,8.0,20.0,23.0,25.0,20.09975124224178,66.03029607687671,46.04345773288535,37.0,37.0,37.0,17.0,29.0,8.0,9.0,4.0,6.082762530298219,5.5,27.0,26.0,25.0
393,733,17.0,85.0,9.0,20.0,23.0,25.0,19.235384061671343,65.06919393998976,45.09988913511872,36.5,36.0,36.0,17.0,29.0,7.0,9.0,5.0990195135927845,6.0,5.5,25.0,25.0,26.0
394,734,22.02271554554524,86.00581375697809,8.0,17.0,22.0,24.020824298928627,19.235384061671343,66.12110101926616,49.16299421312742,38.0,36.0,35.0,16.5,30.5,12.5,8.5,6.0,7.0,7.0,26.0,27.0,24.020824298928627
395,735,21.0,85.00588214941364,8.0,17.029386365926403,22.0,24.020824298928627,19.4164878389476,65.19202405202648,48.16637831516918,37.5,36.0,35.0,16.5,29.5,11.5,9.5,6.0,7.0,7.0,25.0,27.0,25.079872407968907
396,736,17.029386365926403,84.00595217006948,8.06225774829855,19.0,21.0,24.0,20.223748416156685,64.19501538281614,45.27692569068709,36.5,36.0,35.0,15.5,28.5,7.5,8.5,7.0,8.0,7.5,25.0,27.0,24.020824298928627
397,737,16.0,85.00588214941364,8.0,18.027756377319946,21.0,23.0,20.396078054371138,62.20128616033595,44.181444068749045,36.0,36.0,35.0,15.5,26.5,7.5,8.5,8.0,9.0,8.5,26.0,26.0,24.020824298928627
398,738,17.0,86.0,8.0,16.0,21.0,24.020824298928627,20.396078054371138,61.1310068623117,45.17742799230607,36.5,35.0,35.0,15.0,26.0,8.0,8.0,9.0,8.0,8.0,26.0,27.0,24.020824298928627
399,739,15.033296378372908,86.0,8.0,16.0,21.0,23.0,20.396078054371138,59.21148537234985,43.289721643826724,35.5,34.0,34.0,14.0,25.0,7.0,7.0,8.06225774829855,8.0,8.0,26.0,26.0,26.019223662515376
400,740,10.04987562112089,86.0,8.06225774829855,19.0,23.021728866442675,24.0,19.4164878389476,56.32051136131489,37.48332962798263,32.0,33.0,33.0,14.0,23.0,3.0,7.0,10.0,9.0,9.0,24.0,25.0,25.019992006393608
401,741,10.04987562112089,87.00574693662483,8.0,17.0,22.0,24.0,20.615528128088304,55.326304774492215,38.47076812334269,33.0,34.0,33.0,13.5,21.5,3.5,6.5,9.055385138137417,9.0,8.5,26.0,26.0,27.073972741361768
402,742,9.055385138137417,84.00595217006948,7.0710678118654755,19.0,21.0,23.0,20.223748416156685,55.226805085936306,36.345563690772494,31.5,33.0,32.0,12.5,22.5,2.5,5.5,9.0,9.0,8.5,25.0,25.0,25.019992006393608
403,743,12.041594578792296,85.00588214941364,8.0,16.0,21.0,23.021728866442675,20.396078054371138,56.22277118748239,40.311288741492746,34.0,33.0,32.0,12.5,23.5,5.5,5.5,8.06225774829855,9.0,9.0,26.0,25.0,26.0
404,744,13.0,85.0,7.0710678118654755,16.0,21.0,23.021728866442675,20.396078054371138,56.22277118748239,40.311288741492746,33.5,33.0,33.0,13.0,23.0,6.0,6.0,8.06225774829855,8.0,8.0,26.0,26.0,26.019223662515376
405,745,12.041594578792296,83.05419917138447,7.0710678118654755,17.0,21.02379604162864,22.02271554554524,20.396078054371138,56.32051136131489,39.45883931389772,33.0,35.0,32.0,13.5,22.5,4.5,7.5,10.0,9.055385138137417,8.5,26.0,26.0,25.079872407968907
406,746,13.038404810405298,84.0535543567314,8.0,16.0312195418814,20.0,23.0,19.4164878389476,56.32051136131489,40.311288741492746,33.5,35.0,32.0,14.5,22.5,5.5,7.5,11.0,10.0,9.5,25.0,27.0,25.079872407968907
407,747,10.0,83.05419917138447,8.06225774829855,17.029386365926403,21.02379604162864,22.02271554554524,20.396078054371138,55.326304774492215,38.3275357934736,33.0,36.0,33.0,14.5,20.5,2.5,7.5,10.0,9.055385138137417,8.5,25.0,27.0,24.186773244895647
408,748,11.0,85.05292469985967,8.06225774829855,17.029386365926403,21.0,23.0,20.615528128088304,56.43580423808985,39.45883931389772,33.5,36.0,33.0,14.5,21.5,4.5,7.5,9.0,9.0,8.5,26.0,28.0,26.1725046566048
409,749,11.045361017187261,83.02409288875127,8.06225774829855,17.029386365926403,22.0,23.0,20.396078054371138,56.43580423808985,39.45883931389772,33.5,36.0,34.0,15.0,21.0,4.0,8.0,9.0,8.0,7.5,26.0,28.0,25.079872407968907
410,750,12.041594578792296,83.02409288875127,8.06225774829855,18.0,21.02379604162864,23.0,19.4164878389476,57.3149195236284,39.45883931389772,33.0,35.0,33.0,15.0,23.0,4.0,8.0,7.0710678118654755,8.0,8.0,27.0,27.0,26.019223662515376
411,751,18.027756377319946,83.0,8.0,15.0,21.0,23.021728866442675,19.4164878389476,60.207972893961475,45.27692569068709,36.0,34.0,34.0,15.0,26.0,9.0,7.0,5.0,6.082762530298219,5.5,30.0,29.0,28.0178514522438
412,752,18.027756377319946,83.0,8.06225774829855,15.0,20.0,23.021728866442675,19.4164878389476,60.29925372672534,45.39823785126467,36.0,34.0,34.0,15.0,26.0,9.0,8.0,6.0,6.082762530298219,5.5,31.0,29.0,25.019992006393608
413,753,13.038404810405298,83.00602387778854,7.0710678118654755,18.0,20.0,22.02271554554524,20.396078054371138,58.309518948453004,40.44749683231337,33.5,34.0,33.0,13.5,24.5,5.5,6.5,7.0710678118654755,6.0,6.0,30.0,29.0,26.0
414,754,15.033296378372908,83.02409288875127,7.0,16.0,21.0,23.0,19.4164878389476,57.21887800367987,41.30375285612676,33.5,35.0,33.0,15.0,23.0,6.0,8.0,8.0,8.0,7.5,30.0,30.0,28.0178514522438
415,755,17.029386365926403,84.00595217006948,8.06225774829855,15.0,20.0,22.0,20.223748416156685,60.207972893961475,45.27692569068709,36.5,35.0,34.0,14.5,25.5,8.5,7.5,7.0,8.0,7.5,29.0,30.0,25.0
416,756,18.027756377319946,83.02409288875127,7.0,15.0,21.0,22.0,20.396078054371138,60.207972893961475,45.27692569068709,36.0,35.0,33.0,14.0,26.0,9.0,7.0,7.0,7.0,7.0,28.0,28.0,27.0
417,757,14.0,81.0,7.0710678118654755,15.0,20.0,23.0,20.396078054371138,56.22277118748239,41.30375285612676,34.0,33.0,33.0,13.0,23.0,6.0,7.0,9.055385138137417,9.0,8.5,29.0,29.0,26.0
418,758,9.0,81.0,7.0,16.0,20.0,21.02379604162864,20.396078054371138,52.15361924162119,36.22154055254967,31.5,33.0,33.0,13.0,19.0,1.0,6.0,8.0,8.06225774829855,8.0,28.0,27.0,25.0
419,759,3.0,80.0,9.0,17.0,19.026297590440446,21.095023109728988,21.213203435596427,50.08991914547278,33.13608305156178,31.5,33.0,33.0,12.0,17.0,2.0,4.0,8.06225774829855,8.0,8.0,28.0,28.0,27.018512172212592
420,760,1.0,78.00640999302557,8.06225774829855,17.029386365926403,19.0,21.02379604162864,22.20360331117452,48.093658625644196,31.25699921617557,30.5,31.0,32.0,9.5,16.5,1.5,3.5,9.055385138137417,8.06225774829855,8.0,28.0,27.0,24.020824298928627
421,761,1.0,76.00657866263946,8.0,17.029386365926403,18.0,20.09975124224178,22.20360331117452,48.041648597857254,31.144823004794873,30.5,30.0,31.0,8.5,17.5,1.5,1.5,10.04987562112089,10.0,10.0,30.0,27.0,24.0
422,762,1.0,77.00649323271382,8.0,18.0,19.0,20.09975124224178,21.213203435596427,48.093658625644196,30.14962686336267,29.5,30.0,31.0,9.5,17.5,1.5,2.5,9.055385138137417,9.0,9.0,29.0,25.0,24.020824298928627
423,763,2.0,74.00675644831355,8.0,17.0,19.026297590440446,20.09975124224178,21.02379604162864,48.010415536631214,31.016124838541646,30.0,30.0,31.0,9.5,17.5,1.5,1.5,8.06225774829855,8.06225774829855,8.0,29.0,25.0,25.019992006393608
424,764,2.0,77.02596964660685,9.0,18.0,18.027756377319946,20.024984394500787,21.213203435596427,50.08991914547278,32.14031735997639,31.0,29.0,31.0,9.0,20.0,0.0,1.0,7.0710678118654755,8.06225774829855,8.0,31.0,25.0,25.079872407968907
425,765,3.1622776601683795,76.00657866263946,10.0,19.0,18.027756377319946,20.09975124224178,20.09975124224178,52.009614495783374,33.015148038438355,31.5,30.0,31.0,10.5,21.5,1.5,1.5,8.06225774829855,9.055385138137417,8.5,30.0,24.0,25.079872407968907
426,766,4.0,75.0066663703967,9.0,20.024984394500787,18.027756377319946,21.095023109728988,20.09975124224178,53.009433122794285,33.06055050963308,31.0,30.0,31.0,10.5,22.5,1.5,2.5,9.055385138137417,9.0,8.5,30.0,26.0,23.0
427,767,5.0,75.0066663703967,9.055385138137417,21.02379604162864,20.0,21.095023109728988,20.09975124224178,55.036351623268054,34.132096331752024,31.5,31.0,32.0,11.5,23.5,1.5,3.5,8.06225774829855,8.0,8.0,30.0,26.0,25.019992006393608
428,768,7.0710678118654755,78.00640999302557,8.0,20.024984394500787,19.026297590440446,21.095023109728988,20.223748416156685,55.08175741568164,35.22782990761707,31.5,31.0,32.0,11.5,23.5,1.5,3.5,8.06225774829855,8.06225774829855,7.5,30.0,26.0,27.018512172212592
429,769,7.0,78.02563681252464,8.06225774829855,20.0,20.024984394500787,22.090722034374522,20.09975124224178,55.08175741568164,35.12833614050059,31.5,30.0,32.0,11.0,24.0,2.0,4.0,8.06225774829855,8.06225774829855,7.5,30.0,26.0,25.019992006393608
430,770,8.0,79.02531240052139,8.0,19.0,20.024984394500787,21.095023109728988,19.235384061671343,54.08326913195984,35.12833614050059,31.0,29.0,31.0,11.0,24.0,2.0,3.0,8.246211251235321,8.0,7.5,30.0,25.0,26.019223662515376
431,771,7.0,79.05694150420949,8.0,20.0,20.024984394500787,22.20360331117452,20.223748416156685,55.08175741568164,35.12833614050059,31.5,28.0,31.0,9.5,25.5,3.5,1.5,8.06225774829855,8.06225774829855,8.0,30.0,25.0,27.018512172212592
432,772,7.0710678118654755,78.02563681252464,8.0,19.026297590440446,19.026297590440446,21.095023109728988,20.396078054371138,54.147945482723536,35.35533905932738,31.5,28.0,30.0,9.0,25.0,4.0,2.0,7.280109889280518,8.06225774829855,7.5,30.0,26.0,25.019992006393608
433,773,5.0,79.02531240052139,10.0,20.0,19.026297590440446,20.09975124224178,19.235384061671343,54.08326913195984,34.132096331752024,31.5,29.0,31.0,11.0,24.0,2.0,2.0,8.246211251235321,9.0,8.5,30.0,25.0,24.0
434,774,7.0,79.02531240052139,9.0,20.0,20.024984394500787,21.02379604162864,20.396078054371138,56.142675390472796,36.22154055254967,32.5,29.0,31.0,10.0,26.0,4.0,2.0,8.06225774829855,9.0,9.0,29.0,26.0,26.0
435,775,5.0,79.00632886041473,10.0,20.0,20.0,21.095023109728988,19.4164878389476,54.147945482723536,34.23448553724738,31.5,29.0,30.0,10.5,24.5,2.5,1.5,8.06225774829855,8.0,8.0,29.0,26.0,24.020824298928627
436,776,6.0,79.00632886041473,9.0,21.0,20.0,22.02271554554524,20.396078054371138,56.142675390472796,35.22782990761707,32.0,31.0,30.0,10.5,25.5,3.5,2.5,9.055385138137417,9.0,9.0,29.0,26.0,23.0
437,777,5.0,78.0,10.0,20.0,20.0,21.0,20.223748416156685,55.08175741568164,35.12833614050059,32.5,30.0,30.0,10.0,25.0,3.0,2.0,9.055385138137417,9.0,9.0,29.0,27.0,25.019992006393608
438,778,7.0710678118654755,79.0,9.0,20.024984394500787,19.0,21.02379604162864,19.1049731745428,55.036351623268054,35.12833614050059,31.5,30.0,30.0,11.0,25.0,4.0,3.0,8.06225774829855,8.0,8.0,28.0,25.0,26.019223662515376
439,779,6.082762530298219,80.02499609497022,10.0,21.0,20.0,21.0,19.235384061671343,56.142675390472796,35.22782990761707,32.0,31.0,29.0,11.0,26.0,4.0,2.0,9.055385138137417,9.0,9.0,31.0,28.0,27.018512172212592
440,780,6.0,81.02468759581859,10.0,20.024984394500787,20.024984394500787,22.0,20.396078054371138,56.22277118748239,36.22154055254967,33.0,31.0,29.0,10.0,26.0,5.0,2.0,8.06225774829855,9.0,8.5,30.0,29.0,29.017236257093817
441,781,6.082762530298219,81.09870529176159,10.0,20.024984394500787,21.02379604162864,22.0,20.223748416156685,56.22277118748239,36.22154055254967,33.0,32.0,28.0,10.0,26.0,5.0,2.0,9.055385138137417,9.0,8.5,31.0,31.0,31.016124838541646
442,782,6.082762530298219,81.09870529176159,10.0,20.024984394500787,21.02379604162864,22.0,19.4164878389476,55.326304774492215,35.35533905932738,32.0,31.0,27.0,10.0,26.0,5.0,2.0,9.0,9.0,8.5,31.0,32.0,31.016124838541646
443,783,6.082762530298219,80.22468448052632,10.04987562112089,20.024984394500787,20.09975124224178,22.02271554554524,20.09975124224178,56.22277118748239,36.22154055254967,33.0,33.0,27.0,10.0,26.0,5.0,2.0,9.0,9.0,9.0,31.0,34.0,31.064449134018133
444,784,6.082762530298219,79.30952023559341,10.04987562112089,21.0,20.024984394500787,21.02379604162864,19.235384061671343,56.22277118748239,35.35533905932738,32.0,32.0,25.0,9.5,27.5,5.5,0.5,8.0,8.06225774829855,8.0,29.0,34.0,33.06055050963308
445,785,6.0,80.39900496896712,11.045361017187261,21.02379604162864,20.024984394500787,22.02271554554524,19.4164878389476,57.3149195236284,36.345563690772494,33.0,34.0,26.0,11.0,27.0,6.0,1.0,9.0,8.0,8.0,29.0,35.0,32.0624390837628
446,786,9.055385138137417,79.40403012442127,9.0,20.024984394500787,19.026297590440446,20.024984394500787,20.8806130178211,58.54912467321779,38.63935817272331,33.5,36.0,28.0,12.0,26.0,6.0,4.0,8.0,7.0710678118654755,7.5,29.0,36.0,35.05709628591621
447,787,8.06225774829855,81.39410298049853,11.0,20.09975124224178,20.09975124224178,22.02271554554524,20.396078054371138,59.413803110051795,39.319206502675,35.0,37.0,29.0,13.0,26.0,6.0,4.0,6.082762530298219,7.0710678118654755,6.5,31.0,39.0,35.12833614050059
448,788,11.045361017187261,79.63039620647382,9.055385138137417,19.1049731745428,19.1049731745428,20.223748416156685,20.396078054371138,59.53990258641679,40.44749683231337,34.5,39.0,29.0,14.0,25.0,6.0,6.0,6.082762530298219,6.082762530298219,6.0,32.0,40.0,35.12833614050059
449,789,13.038404810405298,80.62257748298549,9.055385138137417,19.1049731745428,19.026297590440446,22.20360331117452,20.396078054371138,61.5223536610881,42.42640687119285,35.5,40.0,30.0,15.0,26.0,7.0,7.0,8.06225774829855,8.06225774829855,7.5,33.0,42.0,35.12833614050059
450,790,11.045361017187261,79.63039620647382,10.04987562112089,20.09975124224178,19.1049731745428,22.090722034374522,20.396078054371138,61.5223536610881,41.43669871020132,35.5,40.0,30.0,15.0,26.0,7.0,6.0,8.06225774829855,8.246211251235321,8.0,34.0,45.0,35.22782990761707
451,791,12.041594578792296,80.75270893288967,10.04987562112089,19.1049731745428,19.1049731745428,21.213203435596427,20.615528128088304,61.66036003787198,42.579337712087536,36.0,42.0,31.0,16.5,24.5,6.5,7.5,8.246211251235321,8.06225774829855,7.5,33.0,44.0,36.124783736376884
452,792,12.041594578792296,79.76214641043707,9.055385138137417,19.1049731745428,19.1049731745428,21.095023109728988,21.587033144922902,61.66036003787198,42.579337712087536,36.0,42.0,31.0,15.5,24.5,6.5,7.5,5.385164807134504,6.082762530298219,5.5,33.0,44.0,36.22154055254967
453,793,12.041594578792296,79.63039620647382,10.04987562112089,20.09975124224178,18.110770276274835,20.09975124224178,20.615528128088304,62.64982043070834,42.579337712087536,36.0,42.0,32.0,17.0,25.0,6.0,8.0,6.082762530298219,6.082762530298219,6.0,31.0,44.0,37.21558813185679
454,794,12.041594578792296,78.5175139698144,10.04987562112089,20.09975124224178,19.1049731745428,21.095023109728988,20.8806130178211,62.80127387243033,42.7551166528639,36.0,41.0,32.0,16.5,25.5,6.5,7.5,6.082762530298219,7.0710678118654755,6.5,32.0,44.0,36.22154055254967
455,795,12.041594578792296,79.51100552753688,10.04987562112089,20.09975124224178,18.110770276274835,20.09975124224178,21.840329667841555,63.788713735268246,43.73785545725808,37.0,42.0,33.0,16.5,25.5,6.5,7.5,9.055385138137417,9.055385138137417,8.5,33.0,44.0,36.124783736376884
456,796,13.038404810405298,80.50465825031493,10.04987562112089,19.1049731745428,18.110770276274835,20.09975124224178,20.615528128088304,62.64982043070834,43.56604182158393,36.5,42.0,33.0,17.5,24.5,6.5,8.5,8.06225774829855,8.06225774829855,8.0,32.0,43.0,36.124783736376884
457,797,15.033296378372908,80.62257748298549,9.055385138137417,19.1049731745428,19.1049731745428,21.095023109728988,21.18962010041709,63.953107821277925,44.91102314577124,36.5,43.0,33.0,18.0,25.0,7.0,10.0,6.082762530298219,7.0710678118654755,6.5,32.0,43.0,38.2099463490856
458,798,17.11724276862369,79.51100552753688,10.04987562112089,17.029386365926403,18.110770276274835,20.09975124224178,20.8806130178211,64.77653896280658,47.853944456021594,38.5,42.0,33.0,17.5,26.5,9.5,9.5,5.0990195135927845,6.082762530298219,5.5,32.0,43.0,40.11234224026316
459,799,14.035668847618199,79.51100552753688,10.04987562112089,20.09975124224178,19.1049731745428,21.095023109728988,20.615528128088304,64.6297145282261,44.553338819890925,37.0,42.0,33.0,17.5,26.5,6.5,8.5,7.0710678118654755,8.06225774829855,7.5,32.0,43.0,38.2099463490856
460,800,13.038404810405298,80.39900496896712,10.04987562112089,18.110770276274835,19.1049731745428,21.095023109728988,21.587033144922902,62.64982043070834,44.553338819890925,37.5,42.0,34.0,17.0,24.0,6.0,9.0,6.082762530298219,7.0710678118654755,7.0,34.0,44.0,36.05551275463989
461,801,13.038404810405298,81.30190649671138,10.04987562112089,20.024984394500787,17.029386365926403,20.024984394500787,21.587033144922902,64.4980619863884,44.553338819890925,37.5,41.0,34.0,16.5,26.5,6.5,7.5,6.082762530298219,6.0,6.0,34.0,43.0,37.05401462729781
462,802,14.035668847618199,79.40403012442127,10.04987562112089,20.024984394500787,18.110770276274835,21.095023109728988,20.8806130178211,64.6297145282261,44.721359549995796,37.0,43.0,35.0,19.0,25.0,5.0,10.0,9.055385138137417,9.055385138137417,8.0,34.0,44.0,36.124783736376884
463,803,12.0,80.39900496896712,11.045361017187261,20.09975124224178,17.029386365926403,19.1049731745428,20.8806130178211,63.63961030678928,43.56604182158393,37.0,43.0,35.0,19.0,24.0,5.0,9.0,7.0710678118654755,7.0710678118654755,7.0,34.0,43.0,37.12142238654117
464,804,13.0,80.39900496896712,10.04987562112089,18.027756377319946,18.110770276274835,21.095023109728988,22.80350850198276,63.50590523722971,45.5411901469428,38.5,43.0,35.0,17.0,24.0,6.0,9.0,7.280109889280518,7.0,6.5,33.0,42.0,37.05401462729781
465,805,12.041594578792296,77.41446893184762,10.04987562112089,17.029386365926403,18.24828759089466,20.09975124224178,23.53720459187964,62.51399843235114,45.5411901469428,39.0,44.0,36.0,17.0,22.0,5.0,9.0,6.082762530298219,5.0,5.5,31.0,40.0,40.049968789001575
466,806,7.0710678118654755,79.40403012442127,11.045361017187261,17.029386365926403,19.1049731745428,21.213203435596427,24.515301344262525,59.53990258641679,42.579337712087536,38.5,43.0,35.0,15.0,20.0,3.0,6.0,6.082762530298219,6.0,6.0,34.0,42.0,37.05401462729781
467,807,4.0,77.41446893184762,13.038404810405298,16.0312195418814,16.278820596099706,18.110770276274835,23.769728648009426,56.568542494923804,40.607881008493905,38.0,44.0,36.0,17.0,16.0,1.0,6.0,7.0710678118654755,6.082762530298219,6.5,33.0,42.0,39.01281840626232
468,808,1.4142135623730951,79.40403012442127,12.041594578792296,16.0312195418814,17.26267650163207,20.223748416156685,25.709920264364882,54.74486277268398,38.8329756778952,37.5,44.0,36.0,15.0,14.0,1.0,6.0,7.0710678118654755,7.0,6.5,34.0,42.0,40.01249804748511
469,809,1.0,77.41446893184762,12.041594578792296,15.033296378372908,17.11724276862369,18.110770276274835,25.709920264364882,52.773099207835045,37.8549864614954,37.0,44.0,36.0,15.0,12.0,3.0,5.0,6.082762530298219,6.082762530298219,5.5,34.0,42.0,38.05259518088089
470,810,0.0,76.32168761236873,11.045361017187261,15.132745950421556,17.26267650163207,18.24828759089466,26.476404589747453,52.61178575186362,37.48332962798263,37.0,44.0,37.0,14.5,11.5,3.5,6.5,6.082762530298219,7.0,6.5,34.0,42.0,39.01281840626232
471,811,0.0,77.52418977325722,12.041594578792296,15.033296378372908,18.110770276274835,20.223748416156685,25.709920264364882,52.61178575186362,37.656340767525464,37.0,45.0,36.0,15.5,11.5,2.5,5.5,7.0710678118654755,7.0,7.0,34.0,41.0,40.01249804748511
472,812,1.0,76.4198926981712,11.045361017187261,15.033296378372908,16.1245154965971,18.24828759089466,26.476404589747453,52.61178575186362,37.656340767525464,37.0,45.0,37.0,15.0,11.0,3.0,6.0,8.06225774829855,7.0,7.0,34.0,41.0,40.049968789001575
473,813,1.0,79.40403012442127,10.04987562112089,15.033296378372908,17.26267650163207,19.235384061671343,26.476404589747453,52.46903848937962,37.48332962798263,36.5,45.0,37.0,15.0,11.0,4.0,7.0,7.0710678118654755,7.0,6.5,34.0,41.0,39.05124837953327
474,814,1.0,79.63039620647382,11.045361017187261,15.033296378372908,17.26267650163207,18.24828759089466,25.495097567963924,51.62363799656123,36.6742416417845,36.0,45.0,35.0,15.0,11.0,3.0,6.0,6.082762530298219,6.0,5.5,35.0,41.0,39.05124837953327
475,815,1.0,78.77182237323191,11.045361017187261,16.1245154965971,18.24828759089466,18.439088914585774,26.30589287593181,52.46903848937962,36.345563690772494,36.5,45.0,34.0,13.5,12.5,2.5,5.5,7.0710678118654755,7.0,6.5,34.0,42.0,38.05259518088089
476,816,1.4142135623730951,79.76214641043707,13.038404810405298,19.1049731745428,17.26267650163207,19.235384061671343,25.317977802344327,56.568542494923804,37.48332962798263,37.5,44.0,33.0,13.5,17.5,0.5,3.5,6.082762530298219,6.0,5.5,35.0,42.0,39.01281840626232
477,817,4.123105625617661,79.63039620647382,12.041594578792296,20.024984394500787,17.11724276862369,19.1049731745428,25.317977802344327,61.40032573203501,41.43669871020132,39.0,44.0,34.0,14.0,22.0,3.0,4.0,3.1622776601683795,5.0,4.0,33.0,43.0,41.048751503547585
478,818,6.0,80.50465825031493,13.152946437965905,22.090722034374522,17.11724276862369,19.1049731745428,24.331050121192877,65.49045732013177,43.41658669218482,40.0,45.0,36.0,16.5,24.5,3.5,5.5,4.47213595499958,5.0,5.0,34.0,43.0,40.11234224026316
