,video_id,frame_seq,gap,time_seconds,m1,m3,m4,m5,m6,m7,m8,m9,m10,m11,m12,m13,m14,m15,m16,m17,e1,e2,e3,b1,b2,b3
0,81,0,0,0.0,64.8411872349958,162.1029680874899,16.210296808749035,27.151911118230075,45.92917429145541,54.03432269583004,33.41838298254244,140.90427459286022,113.76117896460131,81.05148404374495,67.54290336978738,67.54290336978738,35.122309752289425,72.94633563937043,40.525742021872475,18.91201294354039,16.21029680874892,16.210296808749035,14.859438741353301,78.34976790895337,81.05148404374484,81.23139876910537
1,81,1,0,0.04,62.13947110020433,162.1029680874899,16.433897672211902,27.01716134791502,45.92917429145541,54.03432269583004,36.04538906701796,140.90427459286022,113.98552859870851,82.40234211114057,70.24461950457885,70.24461950457885,35.122309752289425,70.24461950457896,40.525742021872475,18.91201294354039,13.508580673957454,13.508580673957454,12.15772260656172,75.6480517741619,78.34976790895337,78.53587213292288
2,81,2,0,0.08,59.410657742684634,164.75168464521582,13.769822870242328,27.004844428493016,45.90823552843813,51.30920441413673,33.40314779461479,132.76390103644084,105.87138961717318,75.61356439978044,64.81162662838324,67.51211107123254,33.75605553561627,66.16186884980789,36.45653997846557,20.25363332136976,19.095308620275166,16.20290665709581,17.55314887852046,70.21259551408184,75.61356439978044,76.04633237227411
3,81,3,0,0.12,49.56744282267414,159.13757958858537,15.652876680844429,23.479315021266757,44.34981726239266,46.958630042533514,31.737577255206567,120.11876097542155,96.66698691521661,71.74235145387047,65.22031950351868,65.22031950351868,33.91456614182971,54.785068382955615,28.69694058154812,18.26168946098528,15.652876680844543,15.652876680844543,15.652876680844543,67.82913228365936,70.4379450638001,76.05930911829171
4,81,4,0,0.16,38.34177722462209,175.27669588398658,13.69349186593638,21.909586985498322,49.3725870627829,52.03526909055836,33.31770369242473,106.94959040796059,85.07615630729481,65.72876095649497,60.251364210120414,60.251364210120414,27.386983731872874,46.55787234418392,21.909586985498322,16.43219023912377,13.964676446726825,13.96467644672687,13.693491865936494,49.296570717371196,52.03526909055847,52.03526909055836
5,81,5,0,0.2,29.84619604312881,170.23530039364346,13.510738126479623,21.617181002367488,45.93650963003097,51.34080488062273,33.42372022532121,97.4273181687774,75.8528984920632,60.798321569158475,59.44724775651048,59.44724775651048,27.021476252959246,37.830066754143104,13.510738126479737,13.510738126479623,16.436522326484443,16.436522326484443,16.212885751775616,48.638657255326734,54.042952505918606,59.44724775651048
6,81,6,0,0.24,24.62924235030971,169.75636787020116,13.682912416838803,22.063033330389775,46.52190221725186,49.25848470061965,33.291962781799675,93.08403959505856,71.36134043042597,58.836523392406775,62.94139711745834,57.46823215072288,27.365824833677607,32.838989800412946,10.946329933470906,13.682912416838803,16.419494900206473,13.682912416838803,13.682912416838803,46.52190221725175,51.9950671839872,68.46927185869802
7,81,7,0,0.28,24.46508013445695,159.42414620803387,16.210296808749035,21.61372907833197,46.00856791042189,45.92917429145541,32.86779534442369,94.59865278897507,72.99635027372723,60.78861303280871,62.139471100204446,59.43775496541298,28.368019415310755,33.77145168489369,12.15772260656172,14.859438741353301,13.508580673957454,13.776103291490282,12.15772260656172,64.84118723499586,70.24461950457885,72.94633563937032
8,81,8,0,0.32,24.812838604640774,162.7553721506467,16.77006721496062,24.812838604640774,46.94971282597809,49.70220104380258,30.823996574837697,96.8481927893123,72.15712599150487,59.275114444419614,63.41058754519304,57.89662341082851,30.326802739005302,35.84076687337006,11.027928268729283,16.54189240309381,16.541892403093925,13.784910335911604,15.163401369502822,52.38265927646387,66.16756961237547,63.94772211654982
9,81,9,0,0.36,24.43332610535151,165.80380692467082,13.574070058528719,21.887530301063975,43.52177943703028,46.231616716967544,32.69068968578503,92.46323343393497,70.63735297270199,58.36850125167314,62.44072226923174,54.29628023411453,25.790733111204418,33.935175146321626,12.216663052675813,14.931477064381511,13.574070058528605,16.288884070234417,14.931477064381511,48.86665221070325,57.011094245820345,65.3813793715703
10,81,10,0,0.3999999999999999,25.169287039354344,165.3774230419889,17.010977346367266,22.372699590537195,44.83270736005773,44.83270736005773,30.889317988320105,95.24833634401533,72.9260784907532,60.126630149568655,69.91468622042873,58.72833642516014,33.55904938580579,30.762461936988643,8.389762346451448,19.576112141720046,13.982937244085747,16.779524692902896,16.779524692902896,53.13516152752584,69.91468622042873,46.12250177099892
11,81,11,0,0.4399999999999999,24.788351002996016,164.33614765702526,13.958134695092841,24.636738871258217,49.34945847807706,49.34945847807706,33.859958878986006,96.16084938614398,71.6450180923958,58.85443174800582,62.96055489321543,57.48572403293588,27.374154301397994,35.58640059181744,10.94966172055922,13.687077150698997,13.68707715069911,16.424492580838773,16.424492580838773,57.48572403293588,65.69797032335526,68.65402971551148
12,81,12,0,0.4799999999999999,24.984943204406477,166.65879916565513,13.880524002447942,22.20883840391673,44.50434552791972,47.27536123984043,33.77277252119827,94.55072247968076,72.39195636978565,59.686253210526274,61.07430561077115,55.522096009791994,24.984943204406363,36.089362406364785,13.880524002448055,13.880524002447942,13.880524002447942,13.880524002448055,15.268576402692815,49.96988640881273,55.52209600979188,69.90053279720475
13,81,13,0,0.5199999999999999,24.818144713487868,171.05837215434084,13.787858174159965,24.818144713487982,46.87871779214379,49.636289426975736,33.547306829938435,96.67245431761644,71.90867053726116,59.28779014888778,63.4241476011357,57.909004331471806,27.57571634831993,35.848431252815885,11.030286539327903,13.787858174159965,13.787858174159965,13.787858174159965,13.787858174159965,49.63628942697585,55.15143269663986,66.4111192972487
14,81,14,0,0.5599999999999999,44.47864399315487,172.1085749136762,13.872507913997083,22.196012662395333,44.478643993154876,47.248059426365714,28.294475422376472,108.52522435094696,86.41136072281094,63.81353640438647,61.03903482158705,55.49003165598822,30.519517410793583,49.9410284903895,27.745015827994166,16.6470094967965,19.421511079595916,16.6470094967965,16.6470094967965,55.49003165598833,55.49003165598833,66.8188464365762
15,81,15,0,0.6,41.378326329742436,173.98589866009158,13.792775443247592,24.979778752490006,49.73055909158939,52.41254668434044,34.12144201376088,113.63773854913924,88.6608360041727,67.58459967191277,68.9638772162375,60.688211950288974,31.723383519469394,48.27471405136612,23.447718253520634,20.68916316487139,16.55133053189695,16.551330531897065,16.551330531897065,49.65399159569097,63.44676703893845,71.93431587523128
16,81,16,0,0.64,39.977796279166114,162.7728649050253,15.991118511666514,23.986677767499714,45.38648925974778,48.0473314548624,31.195207235968276,109.79144794643781,85.94967941642892,65.29706725597146,63.96447404666594,55.96891479083274,30.6496438140274,49.30594874430494,25.319270976805228,17.323711720972028,13.589837555860482,10.988845115895028,11.993338883749857,63.96447404666594,69.29484688388811,80.13307466918928
17,81,17,0,0.68,37.83006675414299,173.12733852111114,13.778303469992338,27.02147625295936,51.41186485218238,51.41186485218238,33.42372022532121,111.31405228339537,84.46102620586556,64.85154300710235,67.55369063239823,59.44724775651048,31.074697690903122,47.28758344267885,20.26610718971949,17.5639595644235,19.107069096138744,16.212885751775616,16.212885751775616,70.25583825769422,78.36228113358203,81.10945204963534
18,81,18,0,0.7200000000000001,25.780175127257962,162.49692451764682,15.468105076354732,25.780175127257962,46.475871655885065,49.05012839048802,31.888315528981753,98.26948281116098,72.59763230757096,59.29440279269329,59.29440279269329,54.138367767241675,25.780175127257962,41.248280203612694,15.468105076354732,12.890087563628981,15.468105076354846,15.468105076354846,14.179096319991913,67.02845533087071,72.18449035632233,72.36840018395932
19,81,19,0,0.7600000000000001,27.21088435374145,174.34088141106224,16.326530612244937,27.210884353741562,51.77223834133462,54.48975345442381,31.025181635350698,101.01067316065631,73.92151133173402,59.86394557823132,62.58503401360554,54.42176870748301,28.571428571428555,42.17687074829939,14.96598639455783,14.96598639455783,16.326530612244824,13.874883030184437,14.96598639455783,54.42176870748301,70.74829931972783,70.95730509064114
20,81,20,0,0.8000000000000002,24.323769094880276,173.30652553158058,13.513205052711328,27.026410105422542,48.94691048117,51.42125214670562,33.42982306377533,97.63232202290209,70.73488443354832,58.10678172665848,64.86338425301415,54.052820210845084,27.026410105422542,37.836974147591604,13.513205052711328,16.21584606325348,16.215846063253593,16.215846063253593,16.215846063253593,48.64753818976055,56.75546122138735,54.1203440600467
21,81,21,0,0.8400000000000002,23.999466684443746,165.67338045832588,15.999644456295869,23.999466684443746,45.41068786061911,48.07294873030647,33.73021215652081,96.58862841668275,72.78421759867953,59.99866671110942,66.66518523456602,55.99875559703548,29.332681503209074,34.66589632197429,10.666429637530541,15.999644456295869,15.999644456295869,13.333037046913205,13.333037046913205,58.66536300641815,71.99840005333141,66.71849606694364
22,81,22,0,0.8800000000000002,31.77066687701995,159.20595043359825,15.88533343850986,26.475555730849806,45.08624677932606,47.72948686699188,27.64129168238163,100.92015108376086,74.55584186682287,58.246222607869754,63.54133375403967,52.951111461699725,31.77066687701972,42.36088916935989,15.885333438510088,18.53288901159476,13.23777786542496,10.916151277522076,10.590222292339945,58.246222607869754,68.8364449002097,71.53301247800596
23,81,23,0,0.9200000000000004,37.08609271523176,159.13894883046984,15.89403973509934,26.490066225165606,42.38410596026506,47.68211920529802,27.656441083206797,106.25786023910777,79.8665612274508,60.92715231788088,66.22516556291396,58.27814569536429,35.76158940397352,43.70860927152319,14.569536423840987,19.867549668874176,15.89403973509934,15.89403973509934,14.5695364238411,58.27814569536429,68.87417218543044,74.17218543046374
24,81,24,0,0.9600000000000004,37.93077692148484,159.4678021294972,13.7798756716326,27.02455959405279,45.941751309889696,48.644207269295066,32.87679569930306,110.93244312690855,83.95030568786943,64.85894302572672,67.56139898513197,64.85894302572672,33.78069949256599,44.590523330187125,17.565963736134336,20.268419695539592,16.21473575643165,13.512279797026395,13.512279797026395,62.15648706632135,70.26385494453723,67.61542650195085
25,81,25,0,1.0000000000000002,40.536839391079184,154.1347835348795,13.512279797026395,27.02455959405279,43.323664787491616,45.941751309889696,32.87679569930306,113.63176580404081,86.64732957498344,66.21017100542929,70.26385494453723,64.85894302572672,35.13192747226867,45.941751309889696,16.21473575643165,21.619647675242277,16.214735756431764,16.21473575643165,16.21473575643165,64.8589430257266,70.26385494453723,70.31580604586361
26,81,26,0,1.0400000000000005,40.26482924050674,155.71381205027708,13.421609746835543,26.8432194936712,43.032954491395294,45.633473139241005,32.65618594573481,112.86927434712257,86.06590898279059,65.76588775949438,67.10804873417794,64.42372678481081,33.554024367088914,46.97563411392457,20.13241462025337,20.13241462025337,18.790253645569805,13.421609746835543,13.421609746835543,64.42372678481081,69.79237068354507,72.52638526311304
27,81,27,0,1.0800000000000003,27.02455959405279,151.3616608745137,13.512279797026395,27.02455959405279,40.536839391079184,43.32366478749161,36.05525955848141,103.01285702667879,76.10185078256902,62.15648706632135,64.8589430257266,62.15648706632135,28.37578757375536,39.18561141137661,9.458595857918567,14.863507776728966,16.21473575643165,16.21473575643165,16.21473575643165,45.941751309889696,51.34666322870021,43.323664787491836
28,81,28,0,1.1200000000000003,16.001730010276976,147.31741969410382,21.209125149788175,28.937350297056128,36.923187827000454,42.09069134117249,35.0974915062972,100.27643452875313,71.46514140464677,63.13603701175873,63.13603701175873,63.13603701175873,28.937350297056014,36.82935492352601,5.261336417646589,10.522672835293065,13.153341044116473,10.846522890932889,10.522672835293179,68.39737342940538,68.39737342940538,71.02804163822861
29,81,29,0,1.1600000000000004,16.43389767221179,148.6189464397993,19.10401799752178,29.71887748270649,37.92039298820051,40.525742021872475,35.535527611500825,100.10942917737059,70.45213729643007,62.13947110020433,64.8411872349958,62.13947110020433,28.36801941531064,36.47316781968527,4.052574202187316,9.456006471770138,16.210296808749035,13.776103291490282,13.508580673957454,70.24461950457885,70.24461950457885,75.69628133071832
30,81,30,0,1.2000000000000004,8.270946201546963,151.65907509734598,19.298874470276132,30.451862249939854,41.3547310077347,41.446528525810926,39.473975912578084,96.65178578775458,66.68250009918222,62.03209651160205,63.41058754519315,60.65360547801083,23.43434757104967,34.46227583977884,1.3784910335911036,6.892455167955859,16.541892403093925,13.784910335911604,13.784910335911604,66.16756961237547,68.9245516795578,68.92455167955791
31,81,31,0,1.2400000000000004,11.202757535706187,149.46342763325094,19.019474607370853,30.01099477080522,38.13586389210578,40.75601701579467,36.25020584110318,95.13618037290605,65.43565780674126,59.77549162316552,57.058423822112445,59.77549162316541,23.095076308950297,36.680415314215224,4.075601701579558,4.075601701579444,16.527278212524852,13.585339005264927,12.226805104738446,67.92669502632441,65.20962722527145,76.27172778421134
32,81,32,0,1.2800000000000005,21.897114718852944,154.83598306120632,13.580014062111786,24.594451502748914,35.30803656149078,40.83047524363989,33.041600279174816,92.34409562236056,67.95436865615028,57.036059060869775,54.32005624844737,57.036059060869775,23.086023905590082,36.66603796770198,9.506009843478296,9.506009843478296,16.52080013958735,16.29601687453419,14.938015468322988,70.61607312298156,65.18406749813687,73.38235504719741
33,81,33,0,1.3200000000000005,21.740315957652413,151.10331672412707,13.482771598464751,24.418337910727793,40.53810028832585,43.22905430560632,32.80499915348417,91.68284686956031,67.46776752352376,56.627640713551955,53.931086393859005,59.324195033244905,24.268988877236552,35.05520615600835,5.3931086393859005,8.08966295907885,16.402499576742084,13.74978309557727,13.482771598464751,64.7173036726308,56.627640713551955,70.1622499622131
34,81,34,0,1.3600000000000003,21.803039819680748,153.22841487168418,11.237029517011386,21.97271584033525,41.24248281726902,44.36597170927489,35.53460740829778,89.97882341684041,68.1344994365021,57.23297952666178,51.78221957174162,65.40911945904202,23.165729808410788,31.341869740790912,4.088069966190119,9.538829921110278,11.237029517011386,13.89676568702401,13.626899887300397,65.40911945904202,57.23297952666178,68.18898525043637
35,81,35,0,1.4000000000000006,16.46623087360688,149.77005978164755,13.803207362055138,24.51321444677367,38.28320916134765,40.964822698588115,32.93246174721379,86.66730081996836,62.26172864821524,54.14063360714363,48.72657024642933,64.96876032857244,24.36328512321461,29.77734848392913,0.0,8.121095041071499,13.803207362055138,13.80320736205525,13.535158401785907,67.67579200892965,51.43360192678654,65.02513236549346
36,81,36,0,1.4400000000000006,13.691109967316718,146.20570982045513,13.691109967316828,24.314139883589128,38.44403069004148,38.44403069004123,32.66501353265375,83.27977070738694,59.07104659592471,52.358427664569604,48.33085630575658,67.12618931355087,25.507951939149393,25.50795193914928,4.027571358813134,6.7126189313551095,11.070734751399112,13.691109967316784,12.08271407643906,69.81123688609296,51.01590387829867,69.86285333446523
37,81,37,0,1.4800000000000006,11.478285120387715,148.8276622282317,14.195125016393773,27.977778955488137,39.37019316017637,39.85928263537036,36.616396254836616,89.12806550706539,61.24564723240701,55.67786112037004,50.11007500833307,69.59732640046252,23.66309097615715,29.230877088194347,1.3919465280091572,6.959732640046127,14.195125016393773,14.195125016393773,12.527518752083324,72.38121945648095,50.110075008332956,66.87140596562796
38,81,38,0,1.520000000000001,11.461641875596417,149.00134438275254,11.119425904961531,25.629010367591576,37.087911252485085,39.80148760839967,36.13813419112478,83.81163549234935,58.443135581478096,52.81727304856713,44.4777036198459,66.71655542976885,19.458995333682537,27.79856476240377,1.1368683772161603e-13,5.559712952480595,11.461641875596417,11.461641875596417,11.119425904961645,69.49641190600926,44.4777036198459,69.71844573657464
39,81,39,0,1.5600000000000007,19.296445379449008,148.2690445265385,10.915717904483358,24.71150742108977,39.0723239333987,41.74459394987612,35.89346323240376,90.05467271198768,65.55113547006604,55.9430542604772,43.66287161793343,60.036448474658414,16.37357685672498,38.20501266569181,8.186788428362547,2.728929476120811,11.251664474907683,11.251664474907683,10.915717904483358,65.49430742690004,46.391801094054244,60.0364484746583
40,81,40,0,1.6000000000000008,22.001332813415452,150.71005627099169,10.915717904483358,27.289294761208453,35.89346323240385,39.0723239333985,33.19885993034842,92.82372482876784,65.55113547006592,54.57858952241679,40.93394214181251,54.57858952241668,15.009112118664461,45.02733635599395,12.280182642543878,1.364464738060292,11.251664474907683,10.915717904483358,9.551253166422953,65.49430742690004,46.39180109405413,65.55113547006603
41,81,41,0,1.6400000000000008,24.5588110408986,149.77879458554148,8.1362009454906,27.25593584354255,38.83088975746516,38.83088975746516,33.54641588950835,92.25015209863507,65.31522213145682,52.885306145689356,40.68100472745334,54.24133963660449,14.916368400066176,44.749105200198755,12.204301418236014,1.3560334909150242,11.1821386298361,10.848267927320876,9.492234436405852,65.08960756392548,46.10513869111389,65.14608445746957
42,81,42,0,1.6800000000000008,21.852829278798016,152.39237676322904,8.131529638856932,27.240287159990267,41.017457404381815,41.01745740438204,33.52715559884801,89.48788493527084,62.57697986803126,51.499687712760874,40.65764819428489,54.21019759237993,14.907804337904508,42.01290313409436,12.197294458285455,4.065764819428523,10.842039518475985,11.175718532949318,9.486784578666516,62.34172723123686,46.07866795352288,65.10868157883787
43,81,43,0,1.7200000000000009,28.625706337722136,157.07379433660745,11.393456960825233,22.964246665579942,42.82030381658056,45.92849333116009,32.47634908414432,94.03916705780577,71.4366117157959,56.96728480412651,45.57382784330116,56.96728480412651,19.938549681444215,42.72546360309491,14.241821201031712,8.545092720618982,17.3259232729683,14.52386484263192,14.241821201031598,65.51237752474549,51.27055632371389,62.664013284539124
44,81,44,0,1.760000000000001,27.670544886166542,157.15657825279422,11.013288494044218,24.779899111599434,41.3915075078728,44.39598524767763,34.056713809757994,96.52347879007027,71.79785683956374,57.8197645937322,46.80647609968787,55.06644247022109,17.896593802821826,45.42981503793237,15.143271679310828,6.883305308777608,14.039243234989568,13.76661061755533,13.766610617555216,63.326408840754084,49.55979822319887,66.07973096426531
45,81,45,0,1.800000000000001,8.317104820690702,149.81053189026696,16.634209641381517,27.8619563252557,36.14725983424633,38.91204301138137,36.4648114084977,88.75909243772408,61.24361690821175,56.83354960805332,49.902628924144324,55.447365471271496,16.634209641381517,36.04078755632656,5.544736547127172,0.0,16.86365785462012,13.861841367817874,13.86184136781776,66.53683856552595,52.67499719770808,66.53683856552584
46,81,46,0,1.840000000000001,3.971801021228429,154.5689020370961,19.659412049439652,25.27638692070809,42.22082399482586,42.500126868403896,37.469895894551634,84.44164798965193,59.24510735808771,57.57399243050179,47.74428640578196,53.3612612770504,14.042437178171099,33.701849227610865,2.8084874356342198,5.616974871268553,14.320532237979137,11.233949742536879,11.233949742536879,67.40369845522162,53.3612612770504,67.46218323711844
47,81,47,0,1.880000000000001,3.9480306397976834,150.98313954442943,16.75007542639912,30.708471615065264,39.18308530959448,42.24577267968311,39.48030639797684,89.37734495133763,58.691694907752115,57.229424373530605,47.4585470414645,55.833584754664,12.562556569799426,37.687669709398165,1.3958396188664892,4.187518856599695,14.234826908893448,11.510388370017802,11.166716950932823,67.00030170559694,53.04190551693091,69.84779221249981
48,81,48,0,1.920000000000001,8.317104820690702,155.47524330324637,16.634209641381403,30.62180845410591,38.91204301138136,41.95354476484628,36.46481140849778,91.53014896877129,61.24361690821173,56.83354960805332,47.130260650580794,55.44736547127161,15.248025504599582,40.199339966671914,6.930920683908994,1.3861841367818215,14.136359925766177,14.136359925766222,13.86184136781776,66.53683856552595,55.44736547127161,66.59457119119477
49,81,49,0,1.960000000000001,22.667119226516206,156.06809531841256,14.166949516572686,31.295814384562306,42.59519017201657,45.68703940389683,37.26742563616939,104.87370848578051,73.88576909025993,62.33457787291968,53.83440816297605,62.33457787291968,21.250424274858915,46.75093340468982,12.750254564915508,7.083474758286229,17.2348379376069,14.166949516572572,14.166949516572686,68.00135767954873,56.66779806629063,68.00135767954862
50,81,50,0,2.000000000000001,33.64249899035347,159.6415146853881,16.76314483279714,30.732432193461477,42.000887417505126,47.823136611431686,29.16872835127713,109.1036220812754,78.42731657260114,61.46486438692307,47.49557702625873,58.671006914790155,25.144717249195764,55.87714944265724,19.55700230493005,8.381572416398626,14.24593376860251,14.24593376860251,13.969287360664339,67.05257933118878,55.87714944265724,69.9022916197674
51,81,51,0,2.040000000000001,33.294018993593,155.5948799242703,13.872507913997083,27.883395817737192,44.478643993154876,44.737493767182144,33.75326853621079,108.24112641764101,80.65166385666333,63.81353640438658,52.715530073188916,61.039034821587165,23.583263453794984,51.328279281789264,18.034260288196265,9.710755539797901,11.439563084325407,11.098006331197666,11.098006331197666,63.81353640438658,52.715530073188916,72.1370411527846
52,81,52,0,2.080000000000001,30.22654148210766,156.36881160326877,10.94632993347102,24.780808349175473,44.12606666077955,44.12606666077931,30.595922294227382,95.78038691787128,71.20375170566733,56.09994090903888,46.52190221725175,57.46823215072277,21.892659866941926,43.78531973388408,13.682912416838803,8.209747450103123,13.953887483248419,13.682912416838803,13.682912416838803,65.67797960082612,51.99506718398732,71.15114456756146
53,81,53,0,2.120000000000001,29.887745811582704,152.5434555684229,13.854381737323695,24.604095384966822,43.55791042885697,46.50870916943409,28.367020648484633,95.13618037290593,70.85245977489281,55.699889921585964,46.19015261790048,57.058423822112445,24.45361020947678,43.47308481684752,13.585339005264814,10.868271204211965,16.30240680631789,16.302406806317776,16.302406806317776,65.20962722527133,54.34135602105948,67.9266950263243
54,81,54,0,2.160000000000001,30.038033269990162,155.60764002838633,10.878063006994239,27.19515751748554,43.85087388230956,46.55061133577622,27.733727771377648,95.22189361084153,68.04226237001032,53.030557159096816,43.51225202797684,57.10983078671961,23.115883889862744,44.87200990385111,12.237820882868505,9.518305131119973,13.866863885688824,13.866863885688824,13.59757875874277,62.54886229021679,51.67079928322255,70.7074095454625
55,81,55,0,2.200000000000001,30.859164410273657,159.47029107022675,11.17542988853154,25.144717249195764,45.04959810468984,47.823136611431686,28.491867537204868,95.03223131024376,69.90229161976728,54.480220706590785,47.495577026258616,55.87714944265724,23.747788513129308,43.30479081805947,15.366216096730795,9.778501152464969,16.994371546483563,13.969287360664339,15.366216096730682,64.25872185905587,55.877149442657355,69.9022916197674
56,81,56,0,2.240000000000001,30.451862249939833,157.365483785155,13.784910335911604,27.569820671823095,41.446528525810926,44.455000066121634,31.43443200440289,102.15725384457113,74.64245733531715,59.27511444441973,52.38265927646387,60.65360547801083,26.191329638231878,45.49020410850824,12.4064193023205,12.406419302320273,16.77006721496062,19.298874470276246,17.920383436685142,63.41058754519304,57.89662341082851,66.22498183108334
57,81,57,0,2.280000000000001,27.131495912005576,156.67478017986346,13.49842372923797,26.99684745847594,43.27923885455102,46.211159193423214,27.53149039925119,94.52752516201616,67.54609076088933,53.993694916951654,51.294010171104105,56.693379662799316,26.996847458475827,40.49527118771391,10.798738983390422,13.498423729237857,16.421541215659385,13.498423729237857,13.49842372923797,64.79243390034208,56.693379662799316,70.39916515367409
58,81,58,0,2.320000000000001,30.326802739005416,154.4894280296279,11.367328270926405,24.965534437274062,41.446528525810926,44.455000066121634,30.823996574837697,96.49437235138089,71.73453303956057,56.51813237723741,55.13964134364619,60.65360547801083,27.569820671823095,38.59774894055238,11.027928268729283,13.78491033591149,13.78491033591149,11.027928268729283,12.4064193023205,60.65360547801083,55.13964134364619,69.14475847599063
59,81,59,0,2.360000000000001,29.818992650480055,154.0950161246063,10.798738983390308,24.29716271262828,40.853643405139906,43.53110852034629,30.183393047672254,94.52752516201618,70.24370122048937,55.343537289875485,51.294010171104105,59.393064408646865,25.647005085551996,39.14542881479008,12.14858135631414,12.14858135631414,13.498423729237857,13.765745199625673,13.498423729237857,59.393064408646865,53.99369491695177,73.09119121934772
60,81,60,0,2.400000000000001,26.94980769563038,147.5858158283099,13.408030463079854,26.816060926159594,37.638135095713004,40.31337916034628,29.981267559834453,96.57505668149358,69.77330869853866,56.313727944935295,53.6321218523193,58.995334037551174,26.816060926159707,40.224091389239334,10.726424370463747,10.726424370463974,13.408030463079854,13.408030463079854,13.40803046307974,58.995334037551174,53.6321218523193,72.60173025455414
61,81,61,0,2.4400000000000013,26.784792014141924,144.01874338491803,13.325932093055371,26.651864186110856,40.06653733459475,40.06653733459453,32.42339216677434,98.64790694662535,72.00937169245903,58.634101209443656,58.634101209443656,63.96447404666583,29.31705060472177,37.3126098605552,7.995559255833314,13.325932093055371,13.325932093055485,13.325932093055371,13.325932093055485,58.63410120944377,55.96891479083274,72.15718444812396
62,81,62,0,2.4800000000000013,24.29716271262828,146.0077766811216,13.765745199625673,29.818992650479938,40.585160912499106,43.53110852034628,32.84308243131873,99.88833559636066,70.24370122048936,58.04322203572315,56.693379662799316,64.79243390034208,28.346689831399658,39.145428814789966,6.749211864618928,12.14858135631414,13.49842372923797,13.49842372923797,13.498423729237857,56.693379662799316,56.693379662799316,70.24370122048948
63,81,63,0,2.5200000000000014,18.776728786274248,145.07241090941213,16.316340328960035,29.62796402374437,43.00198020730352,43.252236327097066,32.632680657920105,96.56603375798147,67.11337201982867,57.671381272127746,56.330186358822516,64.37735583865435,28.165093179411315,36.21226265924304,4.023584739915918,12.070754219747755,13.411949133052985,13.411949133052985,13.411949133052985,59.012576185433204,59.012576185433204,72.4741821808976
64,81,64,0,2.5600000000000014,24.29608299828714,153.14572434713745,16.320377437352715,26.830535231419958,40.601967337091274,45.92647851683261,29.997450325078944,96.58992683311158,69.75939160169162,57.6856507475527,56.344123985981696,64.39328455540772,30.855115516132855,36.22122256241687,6.707633807854904,12.073740854138919,11.062513075099984,8.049160569425908,8.049160569425908,59.0271775091237,56.34412398598181,72.6409179491609
65,81,65,0,2.6000000000000014,21.919864974047545,155.06837216595798,16.312947805723752,27.323849410226796,40.872896528062086,43.58607460813491,30.39738350583689,95.15886220005507,68.02497061665387,57.09531732003302,59.81414195432035,65.2517912228949,32.62589561144739,32.625895611447504,2.71882463428733,16.31294780572364,13.594123171436422,10.875298537149092,9.515886220005427,57.095317320032905,57.095317320032905,68.02497061665389
66,81,66,0,2.640000000000001,13.86333986426764,146.91719295120507,19.03177244001097,32.625895611447504,40.87289652806207,43.58607460813491,38.16052222160305,103.31533610291694,70.68944049146944,63.89237890575123,65.2517912228949,70.68944049146944,29.90707097716006,35.344720245734834,1.1368683772161603e-13,10.875298537149092,10.875298537149092,10.875298537149092,9.515886220005541,57.09531732003302,57.09531732003302,70.74170625867747
67,81,67,0,2.680000000000001,5.403432269582936,143.19095514394917,18.912012943540503,27.151911118230075,37.82402588708078,43.31180449668572,40.88438389795462,91.89807111388447,65.06594072428192,62.139471100204446,64.84118723499591,64.84118723499591,24.31544521312344,27.01716134791502,2.701716134791468,5.403432269582936,10.806864539165986,10.806864539165986,10.806864539165986,59.43775496541298,56.73603883062145,67.75869594312162
68,81,68,0,2.720000000000001,3.9011860189214,151.74560557705502,16.77963553100072,27.585550886494957,41.37832632974255,41.47017622373673,44.223002244514255,91.0741046239507,63.506707314034585,62.067489494613824,68.9638772162375,71.72243230488709,26.206273342170334,20.68916316487116,6.896387721623796,9.654942810273269,11.034220354598006,11.034220354598006,11.034220354598006,57.9296568616395,57.9296568616395,68.9638772162375
69,81,69,0,2.7600000000000016,0.0,148.95134894029707,19.308508195964464,27.721157971262322,38.715403854297016,41.467218047739564,41.741535601594556,88.31055487017908,60.93412677935606,60.68388290160249,66.2005995290209,66.2005995290209,24.825224823382882,22.066866509673673,5.516716627418418,5.516716627418418,11.033433254836837,11.033433254836837,9.654254097982175,60.68388290160249,60.68388290160249,71.71731615643944
70,81,70,0,2.8000000000000016,2.701161664898109,148.56389156939645,16.206969989388654,24.310454984083094,37.816263308573525,37.816263308573525,40.6073638743127,83.77956740756308,59.486914988582676,58.07497579530957,64.82787995755484,64.82787995755484,24.31045498408298,18.908131654286876,8.103484994694327,8.103484994694327,13.505808324490545,11.137174856244215,10.804646659592436,59.425556627758624,56.724394962860515,67.58304326372776
71,81,71,0,2.8400000000000016,5.403432269582936,143.21644076400418,18.912012943540503,27.01716134791502,37.92039298820052,40.61569938455269,40.88438389795462,92.01713582084342,65.06594072428192,62.139471100204446,64.84118723499591,67.54290336978738,25.666303280519173,25.666303280519287,4.052574202187202,6.75429033697867,10.806864539165986,10.806864539165986,10.806864539165986,59.43775496541292,59.43775496541292,70.29655638376643
72,81,72,0,2.8800000000000017,26.835969141645364,139.54703953655644,18.785178399151846,29.641296741557163,37.66607760770369,42.937550626632856,37.95179151954082,112.74301345078666,83.36445983627243,69.7735197682781,69.7735197682781,69.7735197682781,32.20316296997453,42.93755062663274,10.734387656658214,10.734387656658214,10.734387656658214,10.734387656658214,10.7343876566581,59.03913211161989,59.03913211161989,69.97964582966345
73,81,73,0,2.9200000000000017,18.77124264831184,142.1504188282036,18.771242648311727,29.497667018775587,37.54248529662368,40.31337916034629,37.92363705119815,104.72006557881573,75.27627019142614,65.69934926909104,64.35854622278316,67.04015231539904,28.15686397246759,38.883288342931564,6.704015231539984,9.385621324155863,10.72642437046386,10.72642437046386,10.72642437046386,58.995334037551174,56.313727944935295,67.04015231539893
74,81,74,0,2.9600000000000017,8.154025614077,144.08009182365626,19.026059766179742,29.898093918282484,38.052119532359484,40.86062791108812,38.43844537121791,95.28548702350862,65.45831375320242,61.15519210557784,62.51419637459071,65.23220491261634,25.82108111124387,31.257098187295355,1.3590042690127575,6.795021345064129,13.59004269012837,13.590042690128485,13.59004269012837,59.79618783656497,57.078179298539226,67.95021345064197
75,81,75,0,3.0000000000000018,5.469070775715636,147.76615532436645,19.141747715004954,30.079889266436226,38.28349543000968,41.10908094281584,35.65397935526911,90.281090646475,60.2218949960204,57.42524314501463,57.42524314501463,62.89431392073027,24.61081849072059,30.079889266436226,2.734535387857818,5.469070775715636,13.672676939289204,13.943449303297118,12.305409245360238,60.159778532872565,57.42524314501475,71.15048786973648
76,81,76,0,3.040000000000002,8.039039472556624,142.1241147022352,18.757758769299016,26.930448937492123,37.51551753859803,42.958535563469006,35.24568519841069,88.47002609110302,61.86521276742247,57.613116219989706,56.273276307896936,61.63263595626802,24.1171184176701,29.476478066041295,2.6796798241855413,5.359359648371083,16.078078945113475,10.718719296742279,10.718719296742279,58.95295613208259,56.27327630789705,69.72318868941416
77,81,77,0,3.080000000000002,26.87742670271899,155.3227853060386,16.04642348780908,21.561733682844782,42.87395629917834,45.77842106816236,29.5397567429209,93.64233498851375,72.20890569514097,58.8368861219667,53.48807829269708,61.51129003660162,28.08124110366589,36.10445284757043,12.03481761585681,12.03481761585681,16.04642348780908,13.636837747952022,12.034817615856923,64.18569395123643,56.162482207331834,69.5859136187909
78,81,78,0,3.120000000000002,24.279473553282855,159.37106316515434,16.409585776141746,24.428887108466437,43.24773009933136,46.17751590065775,30.161418512804808,94.4201749294333,70.19256142122147,58.00096459950896,53.95438567396184,62.0475435250562,28.32605247882998,36.41921032992434,6.744298209245244,12.13973677664137,10.790877134792368,11.122981554952883,10.790877134792254,59.34982424135808,53.95438567396184,70.19256142122147
79,81,79,0,3.160000000000002,30.22654148210768,169.75636787020116,13.682912416838803,24.62924235030971,46.52190221725186,52.06703270934154,30.59592229422742,98.55497016230561,73.93838713713542,58.836523392406775,54.7316496673551,60.20481463409055,27.365824833677607,41.04873725051618,16.419494900206473,13.682912416838803,16.64598139089978,13.953887483248307,13.68291241683869,60.20481463409055,51.9950671839872,68.4145620841939
80,81,80,0,3.200000000000002,27.49266421418649,172.3659170327386,13.678111675535433,24.62060101596387,51.97682436703485,52.04876464280324,30.585187510330766,95.78585407549946,71.1787693933239,57.44806903724884,54.71244670214173,57.44806903724884,25.988412183517312,39.66652385905286,12.310300507981992,12.310300507981879,16.413734010642543,13.9489916685313,13.678111675535547,60.18369137235595,54.71244670214173,68.39055837767728
81,81,81,0,3.240000000000002,32.60481361263578,176.69298937651482,13.585339005264814,27.306193454734828,48.98263637804346,51.695740556237546,30.01099477080522,103.24857644001304,76.12640203557696,59.77549162316541,48.90722041895344,54.34135602105948,21.736542408423702,51.62428822000663,19.019474607370853,8.151203403158888,13.585339005264814,11.202757535706077,12.226805104738332,62.49255942421837,54.34135602105948,73.4111294554766
82,81,82,0,3.280000000000002,46.22001878288381,174.02601611556338,13.594123171436422,30.03039962812523,51.65766805145836,57.16001458421149,30.999370331685206,119.75180307825994,90.09119888437559,66.61120354003845,54.37649268574569,57.09531732003302,25.82883402572918,63.89237890575123,31.26648329430384,12.234710854292757,13.594123171436536,13.594123171436422,14.953535488580087,62.532966588607565,59.81414195432035,70.74170625867747
83,81,83,0,3.320000000000002,45.633473139241005,177.18558326359488,13.421609746835543,29.52754144303833,51.00211703797527,53.753505145892504,30.01163176139816,118.23211744715108,88.74516139116832,65.76588775949438,51.00211703797527,53.6864389873424,22.816736569620502,65.76588775949438,33.554024367088914,12.079448772152091,13.687410000588315,10.737287797468525,10.737287797468525,61.73940483544379,56.37076093670953,77.84533653164635
84,81,84,0,3.360000000000002,44.219847702246085,179.3781428759201,11.373002680723546,30.3419414508013,49.650449646765765,55.236082186468416,28.129845734168292,113.22716497719377,82.9344360954788,60.68388290160249,44.13373301934723,49.65044964676565,19.30850819596435,66.20059952902102,33.10029976451051,8.275074941127627,14.064922867084123,11.033433254836837,11.033433254836837,60.68388290160249,57.92552458789328,77.28327348556633
85,81,85,0,3.400000000000002,24.990360516317992,177.79598124913375,11.106826896141342,24.990360516317878,47.285611628463364,50.28829760359134,28.316963538760877,89.02799019285726,64.10525269651865,51.36907439465358,36.097187412459334,41.65060086052995,11.106826896141342,49.98072103263587,19.436947068247264,0.0,16.890047618589293,13.88353362017665,13.88353362017665,63.86425465281263,55.5341344807066,72.19437482491844
86,81,86,0,3.440000000000002,22.381672437836137,180.63890166079395,13.880524002447942,24.984943204406363,49.96988640881273,55.79901591223421,28.98338501796939,89.00869105583921,64.09135621236021,52.74599120930236,36.089362406364785,44.41767680783357,12.492471602203182,48.58183400856797,20.82078600367197,1.38805240024476,14.155412549475002,14.155412549475113,15.268576402692815,63.85041041126078,55.522096009791994,77.73093441370884
87,81,87,0,3.480000000000002,22.3579506995286,179.0600031970718,14.250453362605123,25.152694536969534,50.30538907393907,53.173627940203104,29.17798227677369,89.6063040426756,64.52167179572766,53.10013291138023,36.331669886733835,44.71590139905709,12.576347268484824,48.908017155218545,18.165834943366804,1.397371918720637,16.99976309616837,16.768463024646394,15.37109110592587,67.07385209858558,58.689620586262436,75.45808361090872
88,81,88,0,3.5200000000000022,22.50787996162876,180.2607543084682,14.067424976017946,25.477190211939348,47.91192301805846,53.751555360343396,25.93904999320613,87.26340184259858,62.15191497692622,50.642729913664766,33.76181994244314,42.20227492805395,12.660682478416106,49.23598741606304,18.287652468823467,1.4067424976018401,14.346014891743689,17.113761108380654,15.474167473619787,67.52363988488639,56.2696999040719,81.63955881161115
89,81,89,0,3.5600000000000023,19.630025297107267,177.86579499401265,13.880524002447942,24.984943204406363,49.96988640881273,55.59145530730295,28.31082509895016,86.10401305686008,61.13736634580503,51.3579388090576,36.089362406364785,44.41767680783357,12.492471602203182,45.80572920807833,18.044681203182336,1.3880524002448738,16.886386260599153,16.656628802937576,18.044681203182336,63.85041041126078,52.74599120930236,77.73093441370861
90,81,90,0,3.6000000000000023,19.55700230493005,176.21246899050465,14.24593376860251,28.07792009807441,50.28943449839153,53.15676369007536,28.49186753720498,89.40343910825163,61.528328383578206,51.686363234457986,36.32014713772719,44.701719554125816,12.572358624597882,48.89250576232507,18.160073568863595,1.3969287360664566,16.99437154648345,16.76314483279714,18.160073568863595,64.25872185905587,53.08329197052444,81.02186669185312
91,81,91,0,3.6400000000000015,22.857286388434275,178.70111981756872,14.175487253094843,25.51587705557074,53.86685156176031,56.98475350495513,28.912434447286547,90.76740600771205,65.2688448180928,53.86685156176043,39.691364308665584,45.361559209903476,14.175487253094843,48.196656660522535,17.01058470371379,2.835097450618946,17.245224542369062,17.01058470371379,18.428133429023205,68.04233881485527,56.70194901237949,79.38272861733117
92,81,92,0,3.6800000000000015,19.700731252448236,177.39590449244614,14.071950894605834,28.284271247461902,47.84463304165979,53.54742507976697,31.465838776377595,92.91750839500938,64.97524280999514,54.88060848896282,42.2158526838175,47.844633041659904,14.071950894605834,47.844633041659904,14.071950894605834,2.814390178921144,17.11926712598097,14.350630441182936,14.071950894605834,70.35975447302928,56.28780357842345,81.66582474139994
93,81,93,0,3.7200000000000015,20.18452258857615,177.07245611847156,14.272612797395368,28.54522559479051,51.460637275852115,51.46063727585234,29.110532465549003,91.38931293449592,62.864338345749005,52.80866735036261,42.81783839218588,48.52688351114398,17.12713535687442,45.672360951664814,14.272612797395254,2.854522559479051,17.363382866690273,17.127135356874305,17.127135356874305,77.07210910593449,62.79949630853923,82.83035550960787
94,81,94,0,3.7600000000000025,20.05169977630787,176.02149119244595,14.17869288614395,25.52164719505936,48.20755581288972,51.35740993576156,31.321756335857255,90.74363447132203,65.22198727626267,55.29690225596187,42.53607865843219,51.043294390118604,15.596562174758333,43.953947947046686,12.76082359752968,1.4178692886143835,20.05169977630787,17.249124363288555,18.432300751987214,73.72920300794908,62.386248699033786,82.28529625880358
95,81,95,0,3.8000000000000025,16.886341073526978,174.58295426756888,14.350630441182936,28.14390178921178,47.84463304165979,50.73714049631273,32.08898518646279,90.23621366960025,62.171911138821024,53.47341339950208,42.2158526838175,47.84463304165979,14.071950894605834,45.03024286273876,11.25756071568469,2.814390178921144,17.11926712598097,17.119267125980933,16.886341073526978,73.17414465195031,64.73097411518688,81.66582474139994
96,81,96,0,3.8400000000000025,19.549850530867502,175.97081874524198,13.964178950619726,27.928357901239337,47.47820843210684,50.34856322621412,31.224853383557274,92.33268870450335,64.47762110273844,54.460297907416816,44.68537264198301,47.47820843210684,15.360596845681698,46.08179053704487,12.56776105555764,1.3964178950619726,17.663444455255206,13.964178950619726,15.360596845681698,72.61373054322235,64.23522317285051,75.61316005291502
97,81,97,0,3.8800000000000026,19.436947068247264,174.9545595812607,13.88353362017665,27.9055572128851,47.20401430860056,50.05779235217514,36.521874815176396,97.2243944880989,69.63945035315528,59.6991945667595,52.75742775667118,55.534134480706484,18.048593706229553,43.03895422254766,12.495180258159053,6.941766810088211,14.15848176938046,13.88353362017665,13.88353362017665,47.20401430860056,44.427307584565256,41.743055138244024
98,81,98,0,3.9200000000000026,24.822274041279798,179.27197918702086,13.790152245155468,27.580304490310823,49.72110101636303,55.160608980621646,33.55288854557581,99.44220203272562,71.92063494778253,59.29765465416847,55.16060898062176,55.16060898062176,22.06424359224866,44.12848718449743,13.790152245155468,11.03212179612433,16.776444272787927,13.790152245155468,15.169167469671038,49.644548082559595,44.12848718449743,46.886517633528456
99,81,99,0,3.960000000000002,27.965874488171494,179.0034437303874,16.779524692902896,27.965874488171494,53.135161527525725,53.135161527525725,31.2667982028893,103.62479223498812,75.71473235810994,61.524923873977286,58.72833642516014,55.93174897634299,26.567580763762976,46.14369290548291,15.381230968494265,9.78805607086008,17.010977346367266,14.259853972987285,13.982937244085747,53.13516152752584,50.33857407870869,47.62416817200754
100,81,100,0,4.000000000000003,33.55904938580579,176.38465240953084,13.982937244085747,30.889317988320126,47.54198662989165,53.20870503888562,34.02195469273449,112.17767285177793,81.29367532751218,64.32151132279444,67.11809877161159,58.72833642516014,29.36416821258001,48.94028035430017,15.381230968494378,15.381230968494265,13.982937244085747,11.186349795268598,11.186349795268598,53.13516152752584,53.13516152752584,56.001620020420184
101,81,101,0,4.040000000000003,33.55904938580579,176.38465240953084,13.982937244085747,30.889317988320126,47.54198662989165,53.20870503888562,34.02195469273449,112.17767285177793,81.29367532751218,64.32151132279444,67.11809877161159,58.72833642516014,29.36416821258001,48.94028035430017,15.381230968494378,15.381230968494265,13.982937244085747,11.186349795268598,11.186349795268598,53.13516152752584,53.13516152752584,56.001620020420184
102,81,102,0,4.080000000000003,36.58254506340438,183.4530890506,14.348854702706664,31.08210901175562,50.73086231272178,56.35114569275334,33.88555202414725,115.68416500610668,84.60865264820626,66.12998530692334,73.16509012680876,59.09488048703781,32.3614821714732,49.24573373919816,18.291272531702134,18.291272531702248,14.070209639770837,14.348854702706664,14.070209639771065,45.02467084726686,53.466796631129455,45.02467084726686
103,81,103,0,4.120000000000003,33.82200192493549,177.75284848413438,16.85258627682242,31.02381658346645,50.635719954386445,53.66136812339319,31.40294042637896,112.91093065084885,81.88884990323422,64.60158072781894,73.02787386623015,56.17528758940773,33.70517255364473,47.74899445099663,16.852586276822308,19.66135065629271,14.043821897351904,14.321944380003806,14.043821897352018,47.74899445099663,56.175287589407844,44.94023007152623
104,81,104,0,4.160000000000003,34.023916072770064,184.44040382125712,16.953194620599447,28.39624955294654,51.172568870442355,53.759420993362994,34.37408566901174,113.58499821178641,85.18874865883987,67.81277848239768,79.11490822946382,62.16171360886449,36.731921677965374,42.38298655149845,14.127662183832854,22.60425949413252,14.12766218383274,11.649968685397381,12.714895965449614,45.20851898826504,53.68511629856471,48.03405142503152
105,81,105,0,4.200000000000003,28.654053305887118,180.437432102571,19.958294082732095,29.0764945673925,51.40046620434279,54.247491802226506,31.492366204423917,108.94362087435185,80.03657328817278,65.57725198611956,76.98199146196635,59.87488224819606,37.06540329650238,39.91658816546396,14.25592434480859,19.95829408273198,11.404739475846895,11.755736372892002,9.979147041366105,45.61895790338747,48.47014277234916,54.172512510272554
106,81,106,0,4.240000000000003,19.688551510169646,174.9504609380823,17.10868334312939,28.26678483389106,45.09021310302421,48.14481656601802,33.86879358987594,98.80372222411427,70.54090853896822,60.471979638378116,75.94155582494,61.87830474624741,35.15812769673141,29.532827265254582,4.218975323607879,18.282226402300353,11.250600862954116,11.596853927406103,9.844275755084823,45.002403451816235,53.44035409903188,56.25300431477035
107,81,107,0,4.280000000000003,17.535237319827445,176.6978981138125,17.29665154523252,29.398654582985117,46.21440304350721,51.969970033474304,35.07047463965493,99.06853361208609,69.72503147008527,60.53828040831365,77.83493195354617,60.53828040831365,34.59330309046504,28.82775257538742,2.8827752575386967,17.29665154523252,14.699327291492503,11.885986881749421,11.531101030155014,49.00717937815875,54.772729893236146,49.091893666760356
108,81,108,0,4.320000000000003,12.308806277220631,176.76546977269172,21.109428613365534,27.03325879851992,50.83823623042123,54.06651759703982,35.94806158209449,96.27380697137609,69.24407430155085,62.69180450183342,80.60374864521441,65.67712852573027,37.316550298710354,22.389930179226212,4.47798603584522,19.40460615532936,9.440423469132842,10.763738842034613,8.95597207169044,44.77986035845231,53.735832430142864,50.7505084062459
109,81,109,0,4.360000000000003,12.15936647059556,171.95940972580988,20.64355682894211,29.637882644058553,44.6276715722101,50.22101502957351,32.57364826492682,94.78435256012982,65.14729652985352,58.98159093983463,82.57422731576855,64.87975003381814,41.28711365788422,20.643556828942224,5.898159093983395,23.592636375933807,14.745397734958715,12.15936647059556,11.796318187966904,44.23619320487603,53.08343184585124,56.032511392842935
110,81,110,0,4.400000000000003,4.295739329988513,161.7047752737897,18.476673489495205,24.48948208342464,42.95739329988674,42.95739329988674,48.97896416684933,95.38089201127927,70.91223495705914,68.34479423500693,85.05129949245304,69.8635674402293,28.8566908992251,16.70650525744611,7.5938660261118685,13.668958847001363,15.187732052223737,12.524124692979415,12.15018564177899,45.563196156671324,69.8635674402293,70.45536352355231
111,81,111,0,4.440000000000003,0.0,152.3749576472895,21.39557563845603,30.40882646436399,39.79807122056419,43.322738755688846,46.285707019512785,98.00014480489672,67.65875086793226,66.56740913390456,87.74794840378331,69.59320045817299,33.28370456695234,18.154747945610325,9.077373972805162,15.128956621342013,12.475657231036061,9.568392309065123,9.077373972805162,45.38686986402581,57.4900351610994,45.487617756836116
112,81,112,0,4.480000000000003,2.8890846220856474,156.9706436979259,26.001761598769463,31.91098266013828,40.55023502833827,40.85782655396842,40.8578265539685,98.90632571066963,67.01181802504044,66.44894630796637,83.78345404047934,66.44894630796637,34.66901546502595,23.11267697668393,8.667253866256488,11.556338488342021,17.334507732512975,17.573615686082473,15.889965421470265,37.55810008711137,52.00352319753887,37.55810008711137
113,81,113,0,4.520000000000003,5.904742490107537,131.10655990498663,23.618969960430604,29.670963800164756,32.61000625838209,35.9171463698864,44.383871945879825,103.50156300962199,73.86830495115278,70.85690988129159,94.47587984172208,76.76165237139924,41.333197430753444,17.714227470322953,8.85711373516142,20.666598715376722,15.054198589899638,11.809484980215188,13.28567060274213,44.28556867580721,56.095053656022515,38.38082618569956
114,81,114,0,4.560000000000003,5.917004387275483,158.16231310477252,23.66801754910182,30.17092083273181,38.913020889521846,38.913020889521846,41.83953926553047,101.2828005600058,71.25016795250657,68.04555045366794,85.79656361549439,65.0870482600302,34.022775226833915,25.147268645920803,1.4792510968188708,16.27176206500758,11.834008774550853,11.834008774550966,11.834008774550966,41.41903071092827,53.253039485479235,41.52455707485113
115,81,115,0,4.600000000000003,17.494495870411015,169.51515532609022,20.410245182146355,29.302917925307412,43.83332356835179,43.83332356835157,41.234922211359034,108.23676177418831,78.94091738656257,69.9779834816444,87.47247935205542,75.80948210511463,40.820490364292596,26.24174380561658,2.915749311735226,20.41024518214624,17.49449587041113,17.73581066116552,16.036621214543402,49.567738299498046,55.399236922968385,47.01504496126629
116,81,116,0,4.640000000000003,14.52386484263192,171.2812152663225,22.78691392165058,31.461211341525257,42.82030381658056,45.57382784330116,40.281953390783215,108.8358448009377,77.37910562629925,69.78492388505492,85.4509272061897,74.05747024536447,39.87709936288854,28.48364240206331,2.848364240206365,19.938549681444215,14.241821201031598,14.523864842631985,12.81763908092853,42.725463603094795,54.11892056392014,43.10357242130777
117,81,117,0,4.680000000000003,17.57361568608232,168.18840308609785,20.22359235459851,29.034941110852337,40.550235028338044,46.31554985172596,40.857826553968536,107.51898337361487,78.48532184896295,69.33803093005179,86.67253866256476,72.22711555213732,39.002642398154194,27.446303909812173,1.4445423110428237,21.66813466564122,17.334507732512975,15.558196831688209,14.445423110427441,46.22535395336786,54.892607819624345,43.43246538601074
118,81,118,0,4.720000000000003,14.821463052511106,166.0909597074798,20.553671158932232,29.212255376489324,40.694192713326174,43.986777142018646,43.98677714201853,108.52649786708058,79.33823562338571,71.21483724832069,87.20184152855586,75.5749293247485,37.78746466237419,26.160552458566826,2.906728050951756,17.440368305711104,14.821463052511106,11.98474677902031,11.626912203807478,43.60092076427793,52.32110491713354,52.40178515768212
119,81,119,0,4.760000000000003,4.093906341782439,159.87215339548646,20.26380255071797,29.092670749381195,35.21711396481974,40.939063417822894,46.67771403557676,99.10297933602766,70.01657105336511,68.02847999169626,86.84486807450594,72.37072339542158,33.290532761893814,18.81638808280968,7.237072339542124,15.92155914699265,14.760789232243297,14.760789232243253,13.026730211175845,49.212091908886634,60.79140765215408,43.8067108556458
120,81,120,0,4.800000000000003,5.758526005989552,155.90617611658396,20.359463942371487,26.0728354061078,37.43041903893209,37.54099658866909,43.57115554876791,95.71113708267204,69.64008136585205,66.22304906887996,83.49862708684861,71.98157507486951,34.55115603593731,17.275578017968655,8.637789008984328,14.39631501497388,17.275578017968655,14.681418237036123,14.39631501497388,48.947471050911304,54.705997056900856,46.15809731982596
121,81,121,0,4.840000000000003,9.23711167421465,157.9789159475374,20.447218324294454,29.356000136723377,37.97340545940415,37.97340545940415,44.203222899193385,102.90158988745121,73.54968602239704,68.64423294584583,84.70990448636303,75.94681091880818,36.51288986481154,21.90773391888706,7.30257797296224,16.065671540517087,14.605155945924594,14.894395033467163,13.144640351332214,49.65753021614381,64.26268616206846,58.71200027344678
122,81,122,0,4.8800000000000034,8.819239086828816,158.8551457447583,23.700992887294287,26.62053551885009,38.21670270959157,41.15644907186788,38.32960311127446,97.41167961091317,70.79846771802065,66.14429315121617,82.31289814373565,76.43340541918303,41.15644907186777,17.63847817365763,8.819239086828816,17.63847817365763,14.989824066260086,12.120884764190286,11.758985449105012,49.9756881586967,55.855180883249204,50.06207662102924
123,81,123,0,4.920000000000004,2.8729435232886544,158.01189378087565,20.110604663020467,28.729435232886544,40.3236839107888,43.18981146392512,37.45860065406943,89.10757497240036,60.40017867273843,58.895342227417245,77.56947512879344,77.56947512879344,40.22120932604105,11.491774093154618,17.237661139731927,20.11060466302058,11.491774093154618,11.845449602953245,10.055302331510234,54.58592694248432,66.07770103563894,77.78199463698874
124,81,124,0,4.960000000000004,4.061175326995083,155.09755651161174,20.10179229314042,28.71684613305763,37.44218647609277,40.306014267160144,34.46021535966918,86.19838652193948,57.50543956737604,55.99784995946254,71.79211533264413,74.6637999459499,38.76774227962778,12.922580759876041,15.794265373181588,15.794265373181588,14.358423066528758,11.84025898412063,11.486738453222983,54.56200765280954,57.43369226611526,43.0752691995865
125,81,125,0,5.000000000000004,5.6303135727713425,154.93595877015048,16.890940718313914,25.33641107747087,39.81232907513262,39.51260840783421,33.898976697391916,81.68806957131362,56.37347071544582,53.48797894132747,67.56376287325577,73.19407644602711,36.59703822301344,11.260627145542685,16.890940718313914,16.890940718313914,17.12393021714139,14.35453938760367,14.0757839319283,59.11829251409887,50.672822154941855,42.2273517957849
126,81,126,0,5.040000000000004,8.902307415458742,154.93595877015048,16.890940718314027,28.1515678638566,39.51260840783421,42.32108632132346,33.89897669739181,87.26986037795541,59.11829251409881,54.89555733452028,70.37891965964138,76.00923323241273,39.41219500939917,14.075783931928413,16.890940718313914,19.706097504699528,14.0757839319283,14.0757839319283,15.483362325121107,59.11829251409881,61.93344930048448,61.997397122682564
127,81,127,0,5.080000000000004,11.695577048799244,153.4122815708915,17.019564538146824,31.20253498660236,40.11549832588555,42.92545772376307,34.15711601265883,93.60760495980708,62.40506997320472,56.73188179382248,65.24166406289578,73.75144633196919,35.457426121139065,24.11104976237459,9.928079313918943,15.60126749330118,14.182970448455535,11.346376358764473,11.346376358764473,56.731881793822424,62.40506997320466,76.7978710626053
128,81,128,0,5.120000000000004,17.134542338868155,158.3740033450207,16.901408450704253,33.802816901408505,45.421170412949586,48.21758526372857,25.352112676056322,93.00041700968549,59.22196068064398,50.704225352112644,50.704225352112644,64.7887323943662,32.3943661971831,35.21126760563379,1.4084507042254018,12.676056338028161,14.36343524955709,14.084507042253563,14.084507042253563,53.521126760563334,56.338028169014024,64.7887323943662
129,81,129,0,5.160000000000004,19.710491337888357,158.08567385282743,17.127748309125028,31.101356093302662,45.403160431903515,50.99602580757161,25.960250166392466,92.92088773575927,62.01122057103548,52.09201282156198,53.49990505998255,64.76304296734736,33.78941372209431,33.78941372209431,2.815784476841145,14.078922384205953,12.59257100041117,11.263137907364694,11.263137907364694,59.131474013664956,56.31568953682381,56.3860402070224
130,81,130,0,5.200000000000004,22.86647801900119,148.16457090137007,17.017425192460678,31.327267472284255,42.920062027968626,48.54856638604047,26.14881801842453,96.43207609061051,65.29509146430013,53.88851310945881,51.052275577382034,65.23346323776593,32.61673161888291,38.28920668303658,4.254356298115226,15.599306426422231,14.462030521243763,11.694106924093749,12.763068894345452,79.41465089814983,65.23346323776593,85.27599883835056
131,81,131,0,5.240000000000004,25.351484051533816,146.90796071485872,17.134117475124796,36.72699017871462,39.836013968849386,45.15724517140478,25.50749465666523,104.26082611002818,67.60395747075688,54.92821544498997,53.51979966434919,64.78712590947532,33.801978735378384,45.069304980504626,5.633663122563121,14.084157806407688,17.134117475124796,11.267326245126128,12.675742025766908,50.70296810306763,47.88613654178607,56.40700805660008
132,81,132,0,5.280000000000004,25.52934680722001,147.61195211888503,19.856158627837885,42.54891134536683,39.813495298015425,48.30545671665352,34.03912907629342,121.97354585671815,79.42463451135131,66.65996110774131,59.56847588351354,65.24166406289578,28.365940896911184,59.56847588351354,14.182970448455649,8.509782269073298,8.970098120795813,8.97009812079592,8.509782269073298,53.895287704131306,42.54891134536683,45.38550543505812
133,81,133,0,5.320000000000004,17.14241984180626,157.2427076812228,17.14241984180626,34.28483968361252,42.951179687395886,45.802315993850065,40.10088802440539,108.60624551784,74.33874266344978,65.7126093935907,57.14139947268757,62.855539419956244,19.999489815440597,48.57018955178444,11.428279894537582,2.8570699736343386,11.780001281075291,8.57120992090313,8.57120992090313,51.427259525418776,42.85604960451565,42.95117968739565
134,81,134,0,5.360000000000004,5.593174897634299,151.1192640530462,13.982937244085747,27.965874488171494,42.041927966105874,42.32004739108736,44.83270736005773,92.32974862513684,64.38227799796505,61.524923873977286,55.93174897634299,61.524923873977286,13.982937244085747,33.55904938580579,2.7965874488171494,0.0,11.530625442749757,11.186349795268598,11.186349795268598,55.93174897634299,41.94881173225724,50.33857407870869
135,81,135,0,5.400000000000004,2.776706724035307,150.04496884402613,16.660240344211957,30.669728205821563,38.972936065514574,41.743055138244024,42.019197433653936,91.67338355335355,61.339456411643106,59.6991945667595,52.75742775667129,58.310841204741905,13.88353362017665,36.09718741245922,2.776706724035307,2.776706724035307,14.158481769380305,13.88353362017665,13.88353362017665,55.534134480706484,41.65060086052995,61.33945641164312
136,81,136,0,5.440000000000004,8.632200015187323,155.61919887409368,17.26440003037453,34.52880006074906,43.256807075235265,43.54296327435128,37.846288147188886,98.0007128310532,63.563843693541884,58.98670010377964,54.670600096186035,63.30280011137336,21.580500037968136,38.84490006834278,1.4387000025312773,4.3161000075936045,11.863824148025262,11.50960002024965,12.948300022780927,57.548000101248476,57.548000101248476,54.746268783052514
137,81,137,0,5.480000000000004,14.282435531451938,163.0451212426115,14.282435531452052,31.550931329918004,42.942417269864194,46.059470611209385,37.571221909777805,97.16255969653437,65.94712584805309,58.55798567895317,54.27325501951759,62.842716338388755,21.42365329717802,38.562575934920346,1.4282435531451938,7.141217765725969,14.565283495300985,14.282435531451938,14.282435531451938,51.416767913227204,45.70379370064643,45.79297191949494
138,81,138,0,5.520000000000004,11.34751773049652,153.2965229629084,14.184397163120593,31.20567375886526,42.64764930034875,45.74330637332515,36.98838244086604,93.65999443528615,62.47578878168866,56.73758865248226,53.900709219858186,59.57446808510633,19.858156028368853,36.87943262411352,2.836879432624073,5.67375886524826,14.465303584660289,14.184397163120593,14.184397163120593,51.063829787234,48.226950354609926,51.063829787234
139,81,139,0,5.560000000000004,11.50811135698018,158.47174951945823,14.670021093460125,28.913771942914874,43.25121219620051,46.390679978048,37.8413930701269,92.06489085584144,63.35996572030828,57.5405567849009,51.78650110641081,60.41758462414589,18.700680955092707,35.96284799056309,4.315541758867539,4.315541758867539,17.262167035470156,14.67002109346008,14.385139196225168,74.80272382037106,66.17164030263598,83.43380733810613
140,81,140,0,5.600000000000004,6.432065300716679,161.18709443539598,14.38253524812012,23.01205639699208,40.37370038636205,43.24338301147698,37.83454315213613,80.59354721769787,57.602008779392584,54.65363394285646,54.65363394285646,60.40664804210451,20.13554934736817,23.01205639699208,2.876507049624024,5.753014099248048,14.38253524812012,11.860142398433673,12.944281723308109,77.66569033984854,66.15966214135244,83.61684890931683
141,81,141,0,5.640000000000004,17.19390769786191,164.33576055519225,11.306644053401214,19.98751170655638,42.49403277488678,45.578539313393605,34.38781539572393,81.97316938715858,62.25075144069616,53.70655925365554,50.87989824030535,62.18654229370645,22.613288106802315,25.439949120152733,1.1368683772161603e-13,11.3066440534011,14.413199665385042,14.413199665385154,14.133305066751518,56.533220267005845,42.39991520025433,42.399915200254554
142,81,142,0,5.680000000000004,17.159238642921654,156.07337326219476,11.631122048172015,22.743318354894992,42.68889304696547,45.92192544792443,37.10395493206234,87.49529267865277,64.88211348402717,56.41922911654535,53.59826766071808,70.52403639568172,25.38865310244546,25.38865310244546,0.0,11.283845823309093,14.384137510356377,14.384137510356267,12.694326551222616,59.24019057237274,36.67249892575455,48.287082080325554
143,81,143,0,5.720000000000004,19.43626336437733,149.67184832381713,11.333191669322922,20.010857892244506,42.04706649821093,42.04706649821093,35.838698834306,85.60785986839704,66.02610521143372,56.348405866103576,52.225351778339814,71.46627085457033,26.112675889169964,23.36397316399416,1.374351362587845,12.369162263290946,8.692161222267245,12.292572286864038,10.994810900703214,57.72275722869142,30.235729976933612,44.745638535146796
144,81,144,0,5.760000000000004,11.379498137546078,151.5703721694664,16.788021256257355,28.14591151763071,41.76537542207218,45.51799255018412,33.23400260014535,89.38947621230437,61.28047289316558,55.198673867790376,46.91887278762181,74.51820972151688,27.599336933895188,27.599336933895188,5.519867386779083,8.279801080168568,11.379498137546022,12.342798703622002,11.039734773558166,68.99834233473791,41.399005400842725,64.01618457582268
145,81,145,0,5.800000000000004,14.432136834027107,147.69100129140938,16.301685149886907,27.330546037161668,38.3714816817789,39.021105519241836,32.15976636014602,89.44874143522746,62.161684782423976,54.93960086524953,45.5596690102069,75.0394548403408,28.13979556512777,28.139795565127883,4.019970795018139,6.6999513250303835,11.985237286966282,14.432136834027213,12.059912385054872,75.03945484034091,45.55966901020702,73.14923275555942
146,81,146,0,5.840000000000004,14.127879092823973,155.4066700210638,14.127879092823973,28.25575818564799,39.670459058927904,45.695638238203145,33.24846054461034,89.3525528815944,61.20687499682127,54.028748384991786,44.331280726147156,74.80903622537323,26.321697931149856,29.092402976534004,4.156057568076335,6.9267626134604825,11.423909559550834,12.390969654161289,9.697467658844516,66.49692108922056,24.93634540845767,51.76104182232608
147,81,147,0,5.880000000000004,19.491313303542505,149.66773228808435,16.28560997460551,27.303595245630387,40.955392868445664,44.155785972870646,32.23941618725679,94.3168001824112,67.14729010291117,57.56276243071625,45.514742387077945,72.2881202618297,26.77337787475176,34.80539123717722,2.677337787475153,5.354675574950306,14.417905229922658,14.417905229922743,13.38668893737588,88.35214698668074,42.83740459960279,73.51718011250725
148,81,148,0,5.920000000000004,8.772900257129624,162.83126799995225,16.875010578062383,31.016886312447802,45.161268155588,47.89071529912719,33.750021156124696,88.94872946329714,58.258927645813515,54.09757567111251,36.06505044740834,61.03316229561415,15.258290573903537,40.226402422109345,4.161351974701006,4.161351974701006,16.875010578062422,14.939710802839482,13.871173249003164,86.00127414381996,47.161989046610984,70.72938307309347
149,81,149,0,5.960000000000004,9.968181356913785,158.7704151096415,13.823380386721965,27.784650709999454,42.29141180142642,45.005665869418,36.36363636363634,85.74953835304305,58.05819762423209,53.91118350821546,35.94078900547697,55.293521546887746,9.676366270705444,40.087803121493494,6.911690193360869,6.911690193360869,12.364007289418955,12.364007289419058,9.67636627070533,88.46963447502026,49.76416939219894,72.72727272727269
150,81,150,0,6.000000000000004,6.303004373368741,155.6727243923284,14.093946241330855,31.134544878465626,42.37569419735643,45.45161091530916,34.29205124032179,84.5636774479849,53.63112308224597,50.73820646879096,36.64426022746011,50.73820646879096,9.865762368931655,40.87244409985931,7.0469731206653705,4.2281838723992,12.606008746737277,11.622165806956852,9.865762368931655,84.5636774479849,53.556995717057134,76.57566679887294
151,81,151,0,6.0400000000000045,6.303004373368741,155.6727243923284,14.093946241330855,31.134544878465626,42.37569419735643,45.45161091530916,34.29205124032179,84.5636774479849,53.63112308224597,50.73820646879096,36.64426022746011,50.73820646879096,9.865762368931655,40.87244409985931,7.0469731206653705,4.2281838723992,12.606008746737277,11.622165806956852,9.865762368931655,84.5636774479849,53.556995717057134,76.57566679887294
152,81,152,0,6.0800000000000045,3.961658410108034,148.57539532022363,16.80789315919253,30.81447079185307,39.21841737144928,42.113006559694476,39.61658410108001,89.68585672317293,58.89428627805811,57.42696829390775,44.82104842451338,50.42367947757759,8.403946579596322,42.019732897981385,8.403946579596209,5.602631053064215,17.717075017270503,14.28396253351755,14.006577632660424,86.84078132249488,58.827626057173916,75.8427402052833
153,81,153,0,6.1200000000000045,2.835097450618946,150.26016488280538,17.01058470371379,31.186071956808632,39.69136430866547,42.52646175928453,42.90280946490467,93.72988246592031,62.62934972198743,60.95459518830785,53.86685156176043,53.86685156176043,11.340389802475897,39.69136430866547,5.670194901237892,2.835097450618946,14.456217223643296,14.175487253094843,14.175487253094843,48.196656660522535,36.85626685804664,39.79248896761434
154,81,154,0,6.160000000000005,17.13586433932619,159.9347338337111,14.56268444141714,28.559773898876983,45.69563823820317,48.55161562809076,44.336691929185356,103.17156556567524,74.74808153599382,65.68747996741706,59.975525187641665,59.975525187641665,17.13586433932619,42.839660848315475,8.567932169663095,2.8559773898876983,17.372232254587782,14.279886949438492,14.279886949438378,51.407593017978684,39.98368345842778,48.551615628090985
155,81,155,0,6.200000000000005,20.047166326573738,161.6254220478482,17.01058470371379,31.186071956808632,45.36155920990336,48.52905133495095,41.27964197465034,108.06891683873529,77.01869795851894,66.62479008954585,59.53704646299843,62.37214391361738,21.26323087964238,46.77910793521289,12.757938527785313,7.087743626547535,20.047166326573738,14.175487253094843,15.593035978404373,51.03175411114148,42.52646175928464,62.372143913617265
156,81,156,0,6.240000000000005,22.368873001449856,162.2707181720002,13.980545625906302,30.75720037699375,44.82503924883849,50.407574113168735,37.304748634806344,103.79554787471513,73.18117909918128,61.51440075398739,53.12607337844361,58.71829162880613,19.57276387626871,47.5338551280812,11.184436500725042,5.592218250362407,19.771477233532416,16.77665475108745,16.77665475108745,53.12607337844361,44.737746002899826,55.922182503624754
157,81,157,0,6.280000000000005,22.524799052345042,165.21598467566784,8.834953069820124,22.524799052345042,44.788942504487835,47.577678344280926,40.001951362295934,92.19729658038455,69.9022916197673,58.67100691479004,47.495577026258616,58.671006914790155,13.969287360664339,39.1140046098601,11.175429888531426,5.5877149442658265,16.994371546483524,14.24593376860251,13.969287360664339,78.2280092197202,61.46486438692307,75.64082104377502
158,81,158,0,6.320000000000005,17.121468666477313,168.74759080355844,11.765603962931527,23.00628223642629,48.59468417892417,51.68049763516803,35.29681188879469,85.65488976389591,63.037600855233954,54.217984110511566,42.803671666193395,54.217984110511566,14.267890555397798,37.09651544403414,11.41431244431817,2.853578111079628,14.267890555397798,14.550450471955905,14.267890555397798,54.217984110511566,54.217984110511566,62.84353902729935
159,81,159,0,6.360000000000005,11.59112425614372,166.45891390156393,11.245042265350548,22.665107283441543,42.26251329058583,47.87404235945634,36.976359652204415,81.52655642379091,59.103368766555555,53.41395076041488,42.16890849506433,56.2252113267524,12.65067254851931,32.32949651288254,7.028151415844036,1.4056302831687617,14.334672485549493,11.245042265350435,11.245042265350548,75.90403529111563,61.84773245942756,78.91584470696488
160,81,160,0,6.400000000000005,2.809942305451955,166.38085771641303,14.32795064756917,22.654479124401586,45.046801998720184,50.89021958362552,37.48930627891607,75.9204603830676,53.68387236767176,51.98393265086031,36.529249970874844,50.57896149813439,7.024855763629716,32.31433651269708,4.214913458177989,7.02485576362983,14.327950647569214,11.585688927269931,11.239769221807705,75.86844224720176,59.008788414490255,81.536759746101
161,81,161,0,6.440000000000005,2.8311179655706837,167.63470000577877,17.22101827982677,25.63686354974159,48.460933523283565,48.460933523283565,35.01899523189387,76.4401850704055,51.038704958760036,50.960123380270375,36.804533552417524,50.960123380270375,9.908912879497052,32.5578566040615,1.4155589827852282,7.077794913926368,11.672998410631216,14.15558982785285,12.740030845067508,76.4401850704055,59.453477276982085,76.64961062743731
162,81,162,0,6.480000000000005,3.973858517855996,169.4374240339047,19.869292589280143,28.239570672317388,47.85159318550252,50.89021958362554,34.184423535805294,78.7285461035271,50.57896149813439,51.983932650860424,36.529249970874844,53.388903803586345,11.239769221807705,33.71930766542289,0.0,5.619884610903796,14.327950647569326,14.32795064756917,14.049711527259547,75.86844224720164,59.00878841449014,78.87883936047179
163,81,163,0,6.520000000000005,2.849881999516356,174.6817265307291,14.53160392697099,25.806779103865978,48.531741667063585,51.613558207731955,32.493654202809815,74.15171715719339,48.78212204765273,47.02305299202044,31.348701994680255,48.44799399177862,8.549645998549181,34.19858399419661,2.849881999516356,5.699763999032825,11.750364504552504,11.750364504552449,12.824468997823715,68.39716798839322,56.997639990327684,77.42033731159795
164,81,164,0,6.560000000000005,0.0,171.6684224127912,17.343521086933308,25.819233006600623,45.70913179480086,48.80566345127868,34.687042173866764,76.98394718102577,51.401772027555474,51.32263145401714,37.066344939012424,51.32263145401714,9.979400560503223,32.78945898451104,1.425628651500574,7.1281432575024155,14.538616626275742,11.75603502608659,12.830657863504257,76.98394718102566,59.87640336302002,80.03860660854872
165,81,165,0,6.600000000000005,4.032286747719477,171.66842241279096,17.10754381800575,28.654781258972168,45.709131794800875,48.55516224147265,34.68704217386665,76.98394718102566,48.5551622414724,49.89700280251668,34.21508763601139,48.47137415101611,7.128143257502302,35.640716287511964,4.276885954501495,9.97940056050345,14.538616626275697,11.405029212003797,11.405029212003683,76.98394718102566,59.87640336302002,80.03860660854828
166,81,166,0,6.640000000000005,18.915033377071495,143.23931383104238,13.510738126479737,24.319328627663367,37.926449246031545,43.318721815692626,32.87304465296877,89.33448805058121,65.07633239171993,55.3940263185666,62.14939538180636,64.85154300710235,31.074697690903236,25.670402440311364,1.3510738126479964,14.86181193912762,10.808590501183744,10.80859050118363,10.80859050118363,51.34080488062267,54.042952505918606,70.25583825769445
167,81,167,0,6.680000000000005,19.64138143282868,147.24487491913047,16.666264803629588,30.554818806654225,38.98702895174328,41.75814971890137,31.055750859939867,97.25955150905976,66.72290309456731,56.94307141240097,63.88734841391329,66.66505921451824,34.72138500756171,31.943674206956644,1.3888554003024183,18.05512020393212,11.110843202419687,11.110843202419687,11.110843202419687,55.55421601209855,58.3319268127035,69.49830202720847
168,81,168,0,6.720000000000005,24.809274351061415,145.23132362409413,13.698630136986253,27.533905811290097,38.45388725374877,43.92114942981216,30.63106818492865,95.89041095890411,68.54792330518794,56.16438356164383,63.013698630137014,65.75342465753431,34.24657534246569,31.506849315068507,1.369863013698705,17.80821917808214,13.698630136986253,11.296179796212723,10.95890410958907,54.79452054794524,60.273972602739775,63.251487017069365
169,81,169,0,6.760000000000005,25.686451962717324,141.8580675894258,17.019564538146824,25.529346807220122,39.81349529801565,45.47406260304153,31.714086045617304,99.32130764531922,73.8059760594424,60.98677292835907,65.24166406289578,68.07825815258684,35.457426121139065,32.62083203144789,7.0914852242277675,18.43786158299224,14.182970448455649,11.346376358764587,12.764673403610118,56.73188179382248,62.40506997320472,71.14141784265234
170,81,170,0,6.800000000000005,22.083715812860063,139.69653930917184,13.69573914795808,27.391478295916045,35.714118237758214,41.087217443874124,33.32317156557489,95.90929673639012,68.53345680071227,57.522104421423705,63.00040008060682,63.00040008060682,30.13062612550766,32.86977395509928,5.478295659183232,13.695739147957966,11.293795825587624,11.293795825587514,12.326165233162328,57.522104421423705,63.00040008060688,63.238138284155085
171,81,171,0,6.840000000000005,13.746110293726247,137.48859240917687,19.43993560726384,27.492220587452266,30.366150155256157,38.48910882243308,44.3298736898241,104.50660594613636,77.0272952511558,70.10516249800344,71.47977352737598,68.73055146863078,26.11760955807972,34.36527573431533,4.123833088117749,6.87305514686318,16.49533235247145,16.722864926404938,16.495332352471337,49.48599705741418,52.23521911615944,63.47071992485426
172,81,172,0,6.880000000000005,14.136359925766133,141.49946050887357,19.406577914945046,27.861956325255544,33.38373477335926,38.81315582989009,44.703095189350094,105.49580760623247,78.0705994244932,70.6953909758713,74.85394338621654,69.30920683908948,27.723682735635748,33.26841928276292,2.7723682735635293,8.317104820690702,16.634209641381403,16.863657854620158,16.634209641381403,49.90262892414444,52.674997197708024,58.48317279950314
173,81,173,0,6.920000000000005,22.016669316921025,143.1348104567757,19.26458565230587,27.520836646151224,35.88278089135542,38.52917130461174,47.10808420678072,115.71849130873268,88.23851485014123,77.05834260922359,77.05834260922359,74.30625894460843,28.896878478458802,39.905213136919315,9.632292826152934,9.632292826152934,16.740271395366626,19.460170216420757,19.26458565230587,52.28958962768746,49.537505963072306,58.38051064926235
174,81,174,0,6.960000000000005,42.170959316442065,145.8688653015388,19.636193405976314,25.40189913401008,39.37244401058087,42.07755729852079,45.23201498126335,131.96232783688924,106.92815372720678,85.55769984032554,78.54477362390537,78.54477362390537,33.66204583881654,53.29823924479308,25.246534379112518,16.83102291940827,19.636193405976428,22.616007490631787,21.038778649260394,53.29823924479297,53.29823924479297,58.97533217160263
175,81,175,0,7.000000000000005,57.908608940517375,159.7570349283992,19.47677288622881,30.2987480036619,46.90628055983621,52.3342010972342,44.41387561023065,151.8938562384764,121.694767297901,92.27345982933412,85.38738073759271,85.38738073759271,41.316474550448106,66.1063592807169,33.053179640358394,24.78988473026891,11.356812576642605,11.356812576642826,11.017726546786093,52.334201097234256,55.08863273393081,58.10479903028222
176,81,176,0,7.040000000000005,57.51316602021528,158.66609543621098,21.884978680856648,32.827468021285085,43.769957361713296,52.04876464280301,41.84697500559401,153.5851567508445,120.8637451917545,91.64334822608748,84.80429238831982,84.80429238831982,43.76995736171341,68.39055837767717,32.827468021285085,21.88497868085676,11.279259839445333,11.279259839445333,10.942489340428324,51.97682436703468,54.71244670214173,60.245832526103655
177,81,177,0,7.080000000000005,59.814141954320235,157.6918287886624,19.224993357615805,30.03039962812521,43.586074608135135,51.72916658817047,41.14328247441728,149.93029873609433,119.90602310749189,89.72121293148052,81.56473902861865,81.56473902861865,40.78236951430938,67.97061585718211,35.34472024573461,24.469421708585628,13.863339864267594,11.210001144697804,10.875298537149092,57.09531732003296,59.814141954320235,62.76894088591846
178,81,178,0,7.120000000000005,60.285321347955254,158.77009494810864,19.16190801097855,30.111569731537884,46.61650500389966,49.27347774251666,41.874404085278506,150.9554930574781,120.94296671965228,90.33470919461342,79.38504747405432,79.38504747405432,38.323816021957214,71.17280118363487,38.323816021957214,21.89932344111844,11.286652959662094,11.286652959661984,10.94966172055922,57.48572403293582,60.223139463075654,65.92569360694795
179,81,179,0,7.1600000000000055,59.87590153913001,160.41065342294996,19.22499335761569,29.90707097716006,43.501194148596824,51.657668051458586,38.92764461615325,147.44454462574646,117.69716161667567,87.00238829719319,76.12708976004399,76.12708976004399,38.06354488002194,70.68944049146944,38.06354488002205,19.03177244001097,13.594123171436422,13.594123171436422,13.594123171436422,59.81414195432035,57.09531732003302,70.89827238067932
180,81,180,0,7.2000000000000055,49.33444231659505,161.4583665186974,19.156077383574257,32.83898980041306,43.78531973388408,49.25848470061965,39.18189832175592,139.99431635683013,107.28659855209783,82.09747450103248,71.15114456756157,71.15114456756157,32.83898980041306,68.41456208419379,32.83898980041306,13.682912416838803,13.953887483248419,13.953887483248419,12.314621175154912,60.20481463409055,62.94139711745834,68.4692718586978
181,81,181,0,7.240000000000005,47.61534041571065,148.13661462665505,18.517076828331824,23.807670207855267,42.32474703618709,47.61534041571076,40.465258321011895,129.8622459771997,106.1090461467565,82.00419738261257,71.4230106235658,71.4230106235658,31.74356027714032,58.19652717475742,29.09826358737871,15.871780138570102,13.488419440337328,10.581186759046773,10.581186759046886,58.19652717475742,60.84182386451914,63.54220700330292
182,81,182,0,7.280000000000006,39.96803834887157,149.309141506169,18.651751229473348,26.645358899247753,42.632574238796224,45.37541115540657,37.68222792961477,122.68444562550727,96.07120776437831,75.939272862856,66.61339724811921,71.94246902796874,31.974430679097168,53.29071779849551,21.316287119398226,13.32267944962382,10.658143559699056,10.9861629174089,10.658143559699056,58.61978957834492,61.284325468269685,66.82622014576718
183,81,183,0,7.320000000000006,30.203930573164048,147.69022854604287,16.407212327147022,27.34535387857852,41.018030817867384,43.75256620572554,38.67217032297735,112.14929393663427,84.81469096520865,69.73065239037498,68.36338469644602,71.09792008430384,31.44715696036519,42.38529851179658,12.305409245360238,15.03994463321817,13.672676939289204,13.672676939289204,12.305409245360238,60.159778532872565,62.89431392073038,65.6857940909362
184,81,184,0,7.360000000000006,13.322679449623934,143.98359075045957,18.651751229473348,26.77825428175652,37.303502458946696,40.05675774405082,34.7412975646927,93.25875614736697,66.66666666666669,59.9520575233073,58.619789578345035,63.94886135819456,26.645358899247753,31.974430679097168,2.664535889924764,7.993607669774406,10.98616291740901,13.32267944962382,11.990411504661438,53.29071779849545,58.619789578345035,69.48259512938566
185,81,185,0,7.400000000000006,19.233881473373817,146.90959038015447,16.32048962203305,27.20081603672179,38.178164627641316,40.89179292136351,32.75411989265162,95.20285612852638,68.00204009180459,58.481754478951984,59.841795280788006,62.56187688446016,28.56085683855781,34.00102004590235,4.080122405508291,9.520285612852604,13.600408018361009,13.600408018360895,13.600408018360895,57.12171367711585,65.28195848813243,65.78999695563101
186,81,186,0,7.440000000000006,21.332859275061082,144.0214887995328,15.999644456295869,29.45364152773777,37.4276185446999,42.748968811820625,29.45364152773777,95.9978667377751,66.71849606694364,55.99875559703548,58.66536300641815,61.33197041580081,30.66598520790035,35.999200026665676,3.9999111140739387,11.999733342221816,10.666429637530541,10.666429637530655,10.666429637530655,53.33214818765288,63.99857782518342,67.14345893712165
187,81,187,0,7.480000000000006,26.487742942734712,148.3550083647542,15.89264576564085,29.13651723700832,39.81980900522841,42.46308222838989,27.01230362720683,98.14772144441982,69.0715830002663,55.62426017974292,58.27303447401641,60.92180876828991,33.109678678418504,38.40722726696538,6.621935735683678,14.56825861850416,10.595097177093862,10.595097177093976,10.595097177093976,50.326711591196045,63.5705830625634,64.06530323250104
188,81,188,0,7.520000000000006,23.98082300932299,149.2377984385427,15.987215339548584,29.309894789172517,37.303502458946696,40.05675774405083,29.790416891798458,98.73175184023253,69.48259512938543,57.28752163338254,61.2843254682698,58.619789578345035,30.6421627341349,38.63577040390919,6.66133972481191,14.654947394586316,10.65814355969917,13.586520497394643,11.990411504661438,50.62618190857063,66.61339724811933,67.09129940993859
189,81,189,0,7.560000000000006,15.98260618252948,149.38489044089908,18.646373879617613,31.965212365058733,37.292747759235226,42.62028315341195,30.371624663929246,96.22803198125905,64.42794526655098,55.93912163885284,61.26665703302933,53.27535394176459,27.969560819426533,38.62463160777929,6.65941924272056,9.32318693980892,10.655070788352987,13.582603467131062,11.986954636897053,53.275353941764706,66.59419242720583,72.70670853723068
190,81,190,0,7.600000000000006,24.10434485986021,125.56060904068866,16.19158141749693,23.956916291178686,34.70666362370925,37.36126040812152,33.67040941960812,97.1494885049818,73.62395160205537,59.892290727946715,71.87074887353606,61.22323052190109,34.60443464281366,29.280675466996172,2.661879587908743,21.295036703269943,16.19158141749693,13.309397939543715,13.309397939543715,53.23759175817486,66.54698969771852,72.31303457958032
191,81,191,0,7.640000000000006,15.784009252939654,136.82003940721205,18.60163329510822,28.937350297056128,36.92318782700045,39.460023132349306,29.994232432898627,92.67273220380225,64.00692004110793,55.24403238528896,57.87470059411214,55.24403238528885,27.622016192644423,35.51402081911442,3.946002313234999,9.20733873088136,13.153341044116473,15.784009252939654,15.784009252939654,52.613364176465666,63.13603701175879,74.4065331804328
192,81,192,0,7.680000000000006,18.982304875529003,139.61998174604375,18.982304875529117,32.21403960008888,37.58304620010358,40.26754950011082,32.3257003841192,102.04644169886424,69.84869178565333,60.40132425016668,61.74357590017041,59.05907260016295,28.1872846500778,41.60980115011478,9.395761550025895,9.395761550025895,13.688334711042016,13.42251650003709,13.42251650003709,56.374569300155486,61.7435759001703,72.92763385850371
193,81,193,0,7.720000000000006,23.527401734652244,135.93609891132428,18.299090238062945,28.755713231241657,36.59818047612589,39.299378143341535,26.659262344250802,96.86496533534635,68.16884176742849,56.20434858833596,57.511426462483314,57.511426462483314,31.369868979536363,39.21233622442048,7.842467244884119,13.070778741473418,13.070778741473418,13.070778741473532,14.377856615620885,54.89727071418861,57.511426462483314,73.24302742875031
194,81,194,0,7.760000000000006,13.244742673622795,135.2002156977141,21.191588277796313,29.13843388197006,34.5380633176687,39.822428413570705,29.61614496271276,92.86444383827516,63.79512863047783,56.95239349657777,60.925816298664586,55.627919229215536,29.13843388197006,34.43633095141911,2.648948534724468,10.595794138898214,13.244742673622795,13.244742673622682,13.244742673622682,58.27686776394012,63.57476483338917,74.35952885555447
195,81,195,0,7.800000000000006,8.052059339869857,145.03644219043682,18.788138459696597,32.20823735947988,37.57627691939297,40.26029669934951,35.30276840421097,94.09393985924405,61.965408426902435,57.70642526906806,61.73245493900299,56.36441537908968,24.156178019609797,34.89225713943654,2.6840197799566567,5.3680395599132,10.736079119826627,13.420098899783284,13.420098899783284,61.73245493900299,67.1004944989163,72.91449847765922
196,81,196,0,7.840000000000006,10.738255033557039,139.70052973162595,21.64364496187528,29.530201342281885,37.679647913068564,43.036830984916925,35.30992332339834,96.97928519832713,67.59558825242499,61.74496644295289,61.744966442953,56.375838926174424,24.16107382550331,37.58389261744969,5.369127516778576,5.3691275167784625,13.42281879194627,13.6886429895109,13.422818791946383,59.06040268456377,64.42953020134235,77.89862082441294
197,81,197,0,7.880000000000006,21.497443196543703,146.7505604141596,18.66500762860926,29.33072627352874,37.425123730489354,42.66287457967837,38.177462767302046,107.18914579131147,78.05856133385724,66.66074153074715,66.66074153074726,61.327882208287406,26.664296612298926,42.662874579678146,13.332148306149406,10.665718644919593,13.332148306149406,13.332148306149406,11.9989334755345,58.66145254705748,66.66074153074715,69.37842973590588
198,81,198,0,7.920000000000006,21.464428185135944,160.98321138851952,18.781374661993937,32.196642277703745,45.61190989341367,45.69075508604484,38.415480247540124,110.29928282448353,78.22378012368067,67.07633807854961,67.07633807854961,67.07633807854961,29.51358875456185,42.928856370271774,8.049160569426022,10.732214092567915,13.415267615709922,13.415267615709922,12.073740854138919,59.0271775091237,61.71023103226571,69.8109697171313
199,81,199,0,7.960000000000006,21.18044458467989,158.85333438509952,18.532889011594875,29.123111303934934,45.00844474244468,47.729486866991664,37.442089985932625,106.03451806920097,76.96148506314377,66.18888932712468,63.54133375403967,63.54133375403967,26.475555730849806,42.36088916935989,10.590222292339945,7.94266671925493,15.885333438509974,13.23777786542496,13.23777786542496,60.893778180954655,58.246222607869754,71.4840004732946
200,81,200,0,8.000000000000005,23.94528039316406,158.85703110812705,15.86588313664322,26.443138561072033,44.9533355538224,50.51954528600023,40.01572979764999,105.80560300442743,79.37347534542073,67.43000333073383,60.81921869046573,68.75216025878728,25.120981633018346,40.98686476966179,9.255098496375354,9.255098496375126,13.221569280536073,13.221569280536073,11.899412352482386,63.46353254657288,58.17490483435847,71.44542610838272
201,81,201,0,8.040000000000004,23.94528039316406,158.85703110812705,15.86588313664322,26.443138561072033,44.9533355538224,50.51954528600023,40.01572979764999,105.80560300442743,79.37347534542073,67.43000333073383,60.81921869046573,68.75216025878728,25.120981633018346,40.98686476966179,9.255098496375354,9.255098496375126,13.221569280536073,13.221569280536073,11.899412352482386,63.46353254657288,58.17490483435847,71.44542610838272
202,81,202,0,8.080000000000004,6.114607014128885,150.62301487858272,16.407212327147022,27.345353878578408,41.10908094281606,44.09305823750655,46.567459651129525,95.70873857502443,68.36338469644602,65.6288493085882,60.15977853287245,68.36338469644602,17.774480021075988,31.44715696036519,1.3672676939289659,1.3672676939289659,10.938141551431386,10.938141551431272,10.938141551431272,62.89431392073027,57.42524314501463,68.4180535454034
203,81,203,0,8.120000000000003,8.25996637053322,154.40712950262207,19.273254864577325,27.670544886166564,41.2998318526661,44.39598524767763,44.13911143152482,99.11959644639796,71.63930414658591,67.45639202602081,60.5730867172432,68.8330530877763,20.649915926332937,34.41652654388815,1.3766610617554988,4.12998318526661,11.352237936586034,13.766610617555216,13.766610617555216,63.3264088407542,57.81976459373209,68.88809752127297
204,81,204,0,8.160000000000002,10.790877134792368,148.47262707847887,18.88403498588673,29.797283411473362,40.46578925547146,43.247730099331136,43.499416395458745,102.54882294353672,73.03797835068823,67.44298209245233,62.0475435250562,67.44298209245233,21.58175426958485,37.76806997177334,5.395438567396127,5.395438567396241,13.755723269772131,13.488596418490488,13.488596418490488,64.74526280875432,59.34982424135819,72.83842065984891
205,81,205,0,8.200000000000001,24.629242350309823,153.34632301162017,16.419494900206473,30.102407317045277,43.78531973388408,43.87075458533548,44.12606666077955,115.0667039628345,85.01042735562262,72.51943580924546,62.94139711745834,68.41456208419379,21.89265986694204,49.25848470061953,16.419494900206473,5.473164966735567,16.64598139089978,13.953887483248419,13.68291241683869,65.67797960082612,60.20481463409055,71.2037517056672
206,81,206,0,8.24,32.40581331419162,159.53441832090073,16.20290665709581,27.139532767407424,43.29205897275242,48.6836756364298,35.51932723335707,110.75278999759597,83.88906161209943,67.51211107123254,56.71017329983533,64.81162662838324,25.654602207068365,49.95896219271208,20.25363332136976,9.451695549972555,13.769822870242328,11.13438259820493,12.152179992821857,62.111142185533936,59.410657742684634,72.91307995693114
207,81,207,0,8.28,21.756126013988478,157.82566214675182,16.3170945104913,27.19515751748554,46.31168446474898,49.026767436807084,35.76964501995324,100.76897644445766,73.62809533254426,62.548862290216675,57.10983078671961,62.548862290216675,24.47564176573701,40.79273627622831,10.878063006994239,8.158547255245708,13.59757875874277,13.59757875874277,12.237820882868391,57.109830786719726,57.109830786719726,70.75968859847958
208,81,208,0,8.319999999999999,18.90339109994511,159.3514659461267,16.20290665709581,27.139532767407424,43.207751085588825,45.90823552843813,35.51932723335707,97.25493943864353,70.42001870014201,60.760899964109285,56.71017329983533,59.410657742684634,22.954117764219063,39.15702442131487,9.451695549972555,6.751211107123254,13.769822870242328,13.769822870242328,12.152179992821857,59.410657742684634,56.71017329983533,70.21259551408184
209,81,209,0,8.359999999999998,21.452848740927607,158.21475946434202,13.408030463079854,24.134454833543714,42.90569748185544,45.66610623237929,35.271021303900866,94.0093229897374,69.92773155515225,58.995334037551174,56.313727944935295,56.313727944935295,21.45284874092772,37.542485296623454,10.72642437046386,8.044818277847867,13.673561794017983,10.72642437046386,12.067227416771857,61.67694013016717,56.31372794493518,67.09376300154787
210,81,210,0,8.399999999999997,19.10401799752181,159.4012519526982,16.21029680874892,24.31544521312344,46.00856791042143,46.00856791042188,33.4183829825425,92.01713582084331,67.75869594312161,58.08689689801713,56.736038830621396,56.736038830621396,24.31544521312344,35.122309752289425,8.105148404374404,8.105148404374518,16.21029680874892,13.508580673957567,13.508580673957567,62.139471100204446,59.43775496541298,72.94633563937032
211,81,211,0,8.439999999999996,21.76555426017304,156.58171525915986,16.19810847508552,26.99684745847594,45.89464067940935,48.6692588937072,32.84308243131877,97.22613924182069,70.24370122048926,59.393064408646865,59.393064408646865,59.393064408646865,26.996847458475827,37.79558644186625,8.09905423754276,10.798738983390308,16.19810847508552,13.49842372923797,13.49842372923797,62.09274915449453,59.393064408646865,72.94146516681991
212,81,212,0,8.479999999999995,13.594123171436422,157.71526519048442,16.312947805723752,24.620004186527073,43.58607460813467,43.58607460813468,35.76055478900282,89.76239779154774,65.47796795384137,58.45472963717657,57.095317320032905,59.814141954320235,23.110009391441963,31.26648329430384,4.078236951430995,6.797061585718211,13.594123171436422,13.594123171436422,13.594123171436422,62.532966588607565,59.814141954320235,70.74170625867724
213,81,213,0,8.519999999999994,11.364359348696047,148.94019667330076,13.78130998886752,24.80635797996149,38.68598065802343,41.709812585107706,36.25296642571569,85.48856621067101,60.700373945961985,55.125239955469965,55.125239955469965,60.63776395101695,22.050095982188054,27.562619977734926,1.1368683772161603e-13,8.268785993320535,13.78130998886752,13.78130998886752,15.159440987754238,66.15028794656405,63.3940259487905,71.66281194211115
214,81,214,0,8.559999999999993,11.286652959661984,150.65735815213378,10.94966172055922,22.069748761956518,41.15237747202299,43.88410773790491,38.71290027153082,82.12246290419398,60.28532134795523,54.7483086027961,52.01089317265621,57.485724032935764,16.424492580838773,27.374154301397994,2.7374154301397766,5.474830860279553,13.687077150698997,13.687077150698997,13.687077150698997,62.96055489321543,60.223139463075654,71.17280118363487
215,81,215,0,8.599999999999993,16.77006721496058,149.10660313140775,11.027928268729283,22.055856537458567,44.455000066121634,44.455000066121634,35.94664824695097,85.46644408265172,63.41058754519315,55.1396413436463,52.38265927646398,60.65360547801083,20.67736550386735,28.948311705414312,1.3784910335912173,6.892455167955745,13.78491033591149,13.78491033591149,12.406419302320387,60.65360547801083,57.89662341082851,71.68153374674012
216,81,216,0,8.639999999999992,21.92543694115478,149.67222515824923,10.878063006994239,24.47564176573701,41.15374097938067,43.59715406388579,32.74730613319559,89.74401980770233,65.26837804196532,54.39031503497108,51.67079928322255,57.10983078671961,21.756126013988478,35.35370477273125,5.439031503497063,8.158547255245708,13.59757875874277,13.59757875874277,12.237820882868391,62.54886229021679,59.82934653846826,73.47726944114248
217,81,217,0,8.67999999999999,21.91986497404763,149.75763896159202,10.875298537149092,24.469421708585628,41.14328247441727,43.83972994809554,33.07592922378901,89.76239779154787,65.30840883981382,54.3764926857458,51.65766805145847,59.81414195432035,23.11000939144185,33.98530792859117,4.078236951430995,9.515886220005427,13.594123171436422,10.875298537149092,12.234710854292757,62.532966588607565,59.814141954320235,73.40826512575677
218,81,218,0,8.71999999999999,22.07543584225907,153.43252510191272,16.428724953814253,27.381208256357013,43.89541608796375,46.62851745633995,27.92346304098243,93.13636584995893,65.77191926183264,54.762416512714026,52.02429568707839,57.50053733834977,27.381208256357013,38.333691558899886,8.214362476907127,10.95248330254276,13.690604128178506,13.690604128178506,13.690604128178506,62.97677898962115,60.23865816398552,76.71626255095613
219,81,219,0,8.75999999999999,27.200816036721903,152.3245698056421,13.600408018360895,27.336481796204435,43.521305658754954,49.03696847743206,30.41143685078829,97.96070935857237,70.9310501320288,57.12171367711585,57.12171367711596,57.12171367711596,27.200816036721903,40.801224055082685,8.160244811016469,13.600408018361009,16.54561045817058,13.600408018361009,13.600408018361009,62.561876884460276,62.561876884460276,70.72212169547674
220,81,220,0,8.799999999999988,27.336481796204545,152.34885431274031,13.600408018360895,27.20081603672179,43.521305658754954,46.241387262427,31.013701987712817,98.0739369548638,70.9310501320288,57.12171367711585,54.40163207344369,57.12171367711596,25.84077523488577,42.16126485691882,12.24036721652476,12.240367216524874,16.32048962203305,16.320489622033165,14.960448820197144,62.561876884460276,62.561876884460276,76.21084230966848
221,81,221,0,8.839999999999987,21.909586985498322,153.39155961349402,16.43219023912377,27.52357801429835,43.81917397099642,43.904674879558655,30.619578661574334,95.8935593427432,68.68620576344925,57.512665836933024,54.77396746374575,57.512665836933024,26.017634545279293,39.71112641121567,9.58544430615541,9.585444306155523,16.658851846212347,13.693491865936494,13.693491865936494,60.251364210120414,60.251364210120414,76.68355444924418
222,81,222,0,8.879999999999987,5.554350315156171,144.4398093329031,16.663050945468513,27.771751575780854,38.880452206093196,41.65762736367151,39.27518772932577,89.04300931478681,61.349804446827854,58.32067830913991,55.54350315156182,52.76632799398374,15.27446336667947,34.71468946972607,4.165762736367128,1.3885875787890427,16.663050945468513,11.108700630312342,12.497288209101384,61.09785346671799,61.09785346671799,72.20655409703022
223,81,223,0,8.919999999999986,8.161565865007788,146.93337342897334,16.32313173001546,24.484697595023135,38.08730737003589,40.89841285342428,35.7828795574591,84.51151588915702,60.09829429637504,55.77070007755276,54.41043910005146,51.68991714504887,17.68339270751676,31.286002482529625,4.080782932503894,1.360260977501298,13.602609775012866,10.88208782001027,12.242348797511568,59.851483010056654,59.851483010056654,73.45409278506986
224,81,224,0,8.959999999999985,8.272714904495956,146.1512966460955,16.545429808991912,30.45837423747459,41.455391671023435,44.20723628045621,39.48241723669093,93.91950560254656,63.96139703619465,59.28779014888789,55.15143269663986,55.15143269663986,16.545429808991912,38.60600288764783,5.515143269664009,2.757571634832061,14.06091157613828,11.030286539328017,12.409072356743991,60.66657596630375,60.66657596630375,77.2612324336435
225,81,225,0,8.999999999999984,13.790152245155468,151.71674562898536,16.548182694186607,30.463442005943456,44.214591631611015,44.214591631611015,39.00444066457727,99.32739475715697,69.17105175899302,62.05568510319961,55.16060898062187,57.9186394296529,17.927197918702177,42.74947195998186,9.65310657160876,1.3790152245155696,13.790152245155468,13.790152245155468,13.790152245155468,60.67666987868404,60.67666987868404,74.46682212383939
226,81,226,0,9.039999999999983,16.54189240309381,151.65907509734598,19.4948071531432,27.569820671823095,41.3547310077347,44.19778479202979,36.78272857116697,99.4044020876053,71.89329649390201,63.410587545193266,55.1396413436463,57.89662341082851,20.67736550386735,42.7332220413258,9.649437235138066,4.1354731007734244,16.770067214960655,14.057905359187938,13.78491033591149,60.65360547801083,60.65360547801083,74.43851581392255
227,81,227,0,9.079999999999982,38.333691558899886,159.02330639546443,13.690604128178506,27.517773733239633,43.8954160879633,46.869078902230385,30.613121483646406,109.55905418952693,82.32596378315336,62.97677898962115,54.76241651271414,62.97677898962115,28.750268669174943,50.65523527426046,17.79778536663207,15.059664540996437,13.690604128178506,13.69060412817862,13.69060412817862,62.97677898962115,60.23865816398552,73.97995085642697
228,81,228,0,9.11999999999998,35.21883924529001,156.87680946696315,10.804646659592436,27.14633876476591,45.99912562837914,48.92011839205016,29.835305754586347,102.67967871578789,75.63252661714728,58.074975795309456,51.32207163306418,59.425556627758624,25.661035816532035,47.270329135717134,14.856389156939713,14.8563891569396,13.505808324490658,13.505808324490658,13.505808324490658,62.12671829265673,59.425556627758624,72.93136495224917
229,81,229,0,9.15999999999998,27.517773733239746,159.1882317149618,10.95248330254276,27.517773733239633,43.8954160879633,49.3621751762267,30.24353302782521,95.87333692944155,68.45302064089265,54.762416512714026,49.286174861442646,60.23865816398552,24.643087430721266,41.07181238453563,8.214362476907127,13.690604128178506,13.690604128178506,10.952483302542873,12.32154371536069,60.23865816398552,57.500537338349886,73.97995085642697
230,81,230,0,9.19999999999998,30.397383505836817,158.27669775274296,10.875298537149206,24.62000418652702,43.586074608135135,49.240008373053854,30.03039962812521,95.31409698873037,70.74170625867748,55.73590500288935,46.220018782883926,59.81414195432035,23.110009391441963,42.14178183145293,12.234710854292757,12.234710854292757,13.594123171436422,13.594123171436422,13.594123171436422,62.532966588607565,59.814141954320235,70.68944049146921
231,81,231,0,9.23999999999998,33.30209601662921,159.35896313279846,10.94966172055922,24.636738871258217,46.857004476279336,49.953144024943946,27.510684596242157,95.84863801206218,71.22542433402826,54.74830860279599,46.53606231237666,60.223139463075654,26.005446586328162,42.429939167166935,15.055784865768942,12.318369435629165,13.687077150698997,13.687077150698997,13.687077150698997,62.960554893215544,57.48572403293588,76.64763204391465
232,81,232,0,9.279999999999978,35.210009350071005,154.5186898862296,11.13438259820493,27.139532767407424,46.22484780114298,49.27921674785099,27.139532767407424,100.06379004612819,72.9630717899946,55.35993107841068,45.90823552843813,59.410657742684634,25.654602207068365,47.25847774986278,14.852664435671159,12.152179992821857,13.769822870242328,13.502422214246508,14.852664435671159,62.111142185533936,56.71017329983533,75.66177196884709
233,81,233,0,9.319999999999975,38.4214564758026,159.35896313279846,8.656467661331302,24.78835100299599,43.88410773790491,46.85700447627979,30.6052349222471,101.32135626273188,76.64763204391443,57.48572403293588,49.273477742516434,62.96055489321543,26.005446586328162,45.16735459730671,15.055784865768942,15.055784865768942,13.958134695092797,13.687077150698997,13.687077150698997,62.960554893215544,57.48572403293588,73.96089211963515
234,81,234,0,9.359999999999976,36.014356560265476,159.1882317149618,13.690604128178506,27.51777373323968,46.6285174563395,49.589477261772295,27.92346304098243,104.08461304439786,76.66738311779977,58.8695977511677,49.286174861442646,60.23865816398552,27.381208256357013,49.28617486144276,16.428724953814253,13.690604128178506,13.690604128178506,13.690604128178506,15.059664540996323,62.97677898962115,57.50053733834977,71.24377817720662
235,81,235,0,9.399999999999975,30.038033269990205,152.51125804676442,10.878063006994239,27.19515751748554,43.59715406388579,46.55061133577622,33.084337030583825,100.65882631886605,73.47726944114214,58.46958866259388,54.39031503497108,62.548862290216675,25.835399641611275,42.15249415210258,12.237820882868505,14.957336634617036,13.59757875874277,13.59757875874277,13.59757875874277,62.54886229021679,59.82934653846826,73.42692529721126
236,81,236,0,9.439999999999976,24.78835100299604,156.4164063305122,13.687077150698997,30.235741679913,43.88410773790492,49.57670200599223,33.30209601662921,101.28437091517264,71.22542433402826,58.85443174800571,52.01089317265621,62.96055489321543,24.636738871258217,43.79864688223677,10.94966172055922,10.94966172055922,13.687077150698997,13.687077150698997,12.318369435629052,62.960554893215544,60.223139463075654,73.91021661377454
237,81,237,0,9.479999999999974,24.62626252131448,152.51125804676442,13.59757875874277,30.038033269990205,43.85087388230956,49.25252504262896,33.084337030583825,100.62208281469645,70.75968859847926,58.46958866259388,54.39031503497108,62.548862290216675,25.835399641611275,42.15249415210258,6.798789379371442,9.518305131119973,13.866863885688824,13.59757875874277,13.59757875874277,62.54886229021679,57.10983078671961,73.42692529721126
238,81,238,0,9.519999999999971,13.869749175689169,149.70336758368512,16.32048962203305,29.92089764039406,43.606225360301615,46.32132057578218,33.091220916341264,92.52276707786933,62.620981174339526,55.761672875279714,54.40163207344369,59.841795280788006,24.480734433049633,35.36106084773837,2.7200816036721562,8.160244811016582,16.32048962203305,13.600408018360895,13.600408018360895,62.561876884460276,59.841795280788006,70.77441162624002
239,81,239,0,9.559999999999972,6.122624296729226,147.8838753816996,22.07543584225907,30.11932908199276,38.43135717338959,41.162981891576514,36.01435656026536,93.25703491267956,63.2144280566605,60.238658163985406,57.50053733834977,60.238658163985406,23.27402701790345,34.22651032044632,1.3690604128178165,1.3690604128178165,13.690604128178506,13.690604128178506,15.059664540996323,62.97677898962115,57.50053733834977,76.71626255095659
240,81,240,0,9.599999999999971,8.658698317749575,147.8838753816996,19.16684577945,30.24353302782521,41.071812384535406,43.8954160879633,36.531088222619736,93.13636584995905,63.214428056660616,58.8695977511677,54.76241651271414,57.50053733834977,20.535906192267817,36.96463114608207,4.107181238453563,1.3690604128178165,16.655338761606103,13.690604128178506,12.321543715360576,65.7148998152569,60.23865816398552,79.45269889794022
241,81,241,0,9.63999999999997,13.863339864267594,149.56006943102943,19.03177244001097,32.625895611447504,43.58607460813467,46.538781310410066,35.76055478900293,100.63324563507896,68.02497061665389,61.1735542714639,57.09531732003302,59.814141954320235,23.110009391441963,42.14178183145293,6.797061585718211,4.078236951430995,16.312947805723752,13.863339864267683,13.594123171436422,65.2517912228949,59.814141954320235,76.17562472816257
242,81,242,0,9.67999999999997,16.424492580838773,153.39299776947402,16.424492580838887,30.235741679913,43.88410773790492,46.61650500389966,38.71290027153082,101.32135626273188,71.38306102482497,62.960554893215544,54.7483086027961,60.223139463075654,19.161908010978664,43.79864688223677,10.94966172055922,2.7374154301397766,16.65104800831451,13.687077150698997,13.687077150698997,62.96055489321543,60.223139463075654,73.96089211963469
243,81,243,0,9.719999999999969,11.367328270926242,154.4156097114711,16.541892403093925,33.08378480618774,41.3547310077347,46.94971282597786,36.26243746008144,96.53374977491399,63.470493640315816,57.89662341082851,55.13964134364619,57.89662341082851,20.677365503867236,39.976239974143596,4.135473100773538,4.135473100773311,14.057905359187938,14.05790535918785,13.78491033591149,63.41058754519315,60.65360547801083,71.73453303956057
244,81,244,0,9.759999999999968,8.718342800535275,157.24468428643976,19.298874470276246,30.326802739005416,44.19778479202979,46.94971282597786,33.54013442992135,91.02217108734379,60.71623182972533,56.51813237723741,52.38265927646398,57.89662341082851,22.055856537458567,35.840766873369944,2.756982067182207,2.756982067182321,14.057905359187938,13.78491033591149,13.78491033591149,63.41058754519315,57.89662341082851,74.43851581392255
245,81,245,0,9.799999999999969,8.328314401468788,152.7109992579123,16.656628802937576,30.663079742954157,44.41767680783323,47.27536123984043,39.26005059421453,94.42837946210719,64.09135621236024,59.68625321052639,55.522096009791994,58.298200810281514,18.044681203182336,37.477414806609545,4.164157200734394,4.164157200734394,13.880524002447942,13.880524002447942,13.880524002447942,63.85041041126078,58.29820081028163,72.17872481272934
246,81,246,0,9.839999999999966,5.47624165127138,145.223692315369,19.361438035151206,30.24353302782525,38.43135717338959,43.89541608796375,36.01435656026543,90.35798724597828,60.30085607230864,57.500537338349886,54.76241651271414,60.23865816398552,21.904966605085747,32.85744990762839,1.1368683772161603e-13,2.7381208256357468,13.961731520491215,13.961731520491327,13.69060412817862,62.976778989621266,57.500537338349886,73.92926229216437
247,81,247,0,9.879999999999963,5.512523995546985,148.9401966733003,19.293833984414505,30.443908823362065,38.58766796882901,44.18624120125148,36.25296642571569,90.99839788921388,60.88781764672413,57.8815019532434,55.125239955469965,60.63776395101695,22.05009598218794,33.075143973282024,0.0,2.7562619977734357,16.765687203741507,13.78130998886752,15.159440987754238,66.15028794656405,63.3940259487905,77.17533593765802
248,81,248,0,9.919999999999964,8.26878599332042,151.69460447531324,19.489715493524223,30.443908823362065,41.43570350897518,47.179605749820546,36.77312164701168,93.75343242691697,63.63324953825153,59.25963295213012,55.125239955469965,60.63776395101695,22.05009598218794,35.83140597105546,2.7562619977735494,2.7562619977734357,16.765687203741507,13.78130998886752,15.159440987754238,68.90654994433748,66.15028794656394,77.22453921708268
249,81,249,0,9.959999999999964,22.06974876195663,153.39299776947402,13.687077150698997,32.96284680347373,43.88410773790492,46.61650500389966,33.85995887898606,101.3213562627319,68.65402971551161,57.48572403293588,54.74830860279599,60.223139463075654,24.636738871258217,43.79864688223677,8.21224629041933,10.94966172055922,16.65104800831462,16.424492580838773,16.424492580838773,68.4353857534951,65.69797032335532,79.38504747405432
250,81,250,0,9.999999999999964,24.62626252131453,147.08030231042127,13.59757875874277,30.038033269990162,40.88328630168973,46.55061133577622,35.76964501995331,103.34159856644499,73.47726944114214,61.18910441434241,57.10983078671961,65.2683780419652,25.835399641611275,42.15249415210258,6.798789379371442,9.518305131119973,13.59757875874277,11.21285069499032,12.237820882868505,65.2683780419652,65.2683780419652,76.19498835452839
251,81,251,0,10.039999999999962,24.62626252131453,147.08030231042127,13.59757875874277,32.74730613319571,40.88328630168973,43.85087388230956,33.084337030583825,103.3415985664451,70.75968859847924,58.46958866259388,54.39031503497108,62.548862290216675,25.835399641611275,44.87200990385122,9.518305131119973,9.518305131119973,13.59757875874277,13.59757875874277,13.59757875874277,67.98789379371385,65.26837804196532,73.42692529721126
252,81,252,0,10.07999999999996,24.984943204406363,155.68478885261376,13.880524002448055,30.663079742954157,41.734006243183664,47.51925982112212,33.772772521198306,102.75338569956175,72.39195636978567,59.68625321052639,55.522096009791994,63.85041041126078,26.372995604651237,43.0296244075887,9.716366801713548,12.492471602203182,16.886386260599117,16.656628802937576,16.656628802937576,47.19378160832309,41.64157200734394,55.59145530730318
253,81,253,0,10.11999999999996,8.599863908230397,144.1599883687003,16.317094510491415,29.914673269234186,40.883286301689736,43.85087388230957,38.93753991229727,92.62336892949787,62.78489657152051,58.46958866259388,57.10983078671961,59.829346538468144,20.396368138114212,33.99394689685698,1.3597578758742657,4.079273627622797,13.866863885688824,10.878063006994239,13.59757875874277,59.82934653846826,59.82934653846826,67.98789379371374
254,81,254,0,10.15999999999996,0.0,151.69150667734178,19.303001443823973,27.57571634831993,41.36357452247967,44.207236280456655,39.48241723669082,85.8840804898852,58.49692807792122,57.909004331471806,55.151432696639745,57.909004331471806,17.924215626407886,28.954502165736017,1.3787858174159737,1.3787858174159737,13.787858174159965,11.030286539328017,13.787858174159965,49.63628942697585,49.63628942697585,57.909004331471806
255,81,255,0,10.199999999999958,0.0,152.12269579929549,16.890940718314027,25.49232892496332,42.227351795785125,42.60105245897958,39.8123290751325,81.68806957131362,56.583951114260536,56.3031357277132,53.48797894132747,59.11829251409881,16.890940718313914,25.336411077470984,2.8151567863856144,2.8151567863856144,17.123930217141577,16.890940718313914,16.890940718313914,45.042508582170626,39.412195009399284,47.94039259602083
256,81,256,0,10.239999999999958,3.9249653960631306,149.97271720558837,19.427587532351254,27.75369647478749,41.722954470088425,41.722954470088425,36.50428831884442,86.08121145930035,58.34880540872014,56.89507777331448,52.73202330209631,58.282762597053875,19.427587532351254,30.529066122266272,0.0,0.0,14.15166398992722,16.652217884872584,15.264533061133193,72.15961083444768,69.3842411869689,74.93498048192623
257,81,257,0,10.279999999999957,3.8989614306284084,146.22404960910308,19.298874470276246,24.812838604640774,41.446528525810926,44.19778479202979,36.26243746008133,82.75539895986921,57.9622286708686,56.51813237723729,52.38265927646387,57.89662341082851,19.298874470276246,27.569820671823095,0.0,0.0,16.541892403093925,16.54189240309381,16.54189240309381,71.68153374674012,68.9245516795578,74.4385158139221
258,81,258,0,10.319999999999956,2.7374154301397766,145.31525399054954,19.356450135765467,27.51068459624211,38.421456475802465,41.15237747202299,38.71290027153082,87.59729376447365,60.28532134795523,58.85443174800571,52.01089317265621,60.223139463075654,17.79320029590872,31.480277446607715,1.3687077150699452,1.3687077150699452,13.958134695092797,13.687077150698997,13.687077150698997,73.91021661377465,68.4353857534951,79.4322302701808
259,81,259,0,10.359999999999957,5.5088632733931036,148.84128940722545,19.281021456875692,30.42369182447523,41.316474550447765,44.15689828098567,38.660290316075695,93.6506756476823,63.41177832117967,60.59749600732391,57.8430643706273,63.35192764402041,22.0354530935723,33.053179640358394,0.0,2.7544316366966086,16.754553551965607,13.772158183482702,13.772158183482702,77.12408582750311,74.3696541908065,74.36965419080616
260,81,260,0,10.399999999999954,27.554117336200193,148.89425092853986,16.53247040172016,33.179550993899625,41.33117600430023,46.92297100902253,38.96740643607403,115.76009068511328,82.84584247191223,68.88529334050054,63.37446987326052,68.88529334050065,27.554117336200306,49.59741120516037,11.021646934480032,13.777058668100153,16.53247040172016,13.77705866810004,15.1547645349101,46.841999471540475,41.33117600430046,55.383090415716794
261,81,261,0,10.439999999999952,27.753696474787603,141.65264823426796,16.65221788487247,33.304435769745055,38.85517506470251,44.751490889556415,41.722954470088546,119.37316221944849,86.08121145930046,72.15961083444768,69.3842411869689,74.93498048192646,30.529066122266272,47.181284007138856,11.101478589915018,13.876848237393801,16.881914499410694,16.652217884872584,16.652217884872584,47.181284007138856,44.40591435966007,52.73202330209642
262,81,262,0,10.479999999999952,24.95901393145108,132.41537034066215,16.537571986640955,33.07514397328191,35.831405971055574,41.43570350897518,41.70981258510769,115.79581190031722,82.7337848797798,70.28468094322409,66.15028794656394,71.66281194211092,27.562619977734926,46.85645396214943,8.268785993320535,11.02504799109397,16.537571986640955,16.537571986640955,15.159440987754238,44.100191964375995,41.343929966602445,49.689219807926044
263,81,263,0,10.519999999999952,14.32795064756917,134.90649771870605,16.8596538327115,33.719307665423,36.529249970874844,39.43941968023624,48.0984646082466,112.43281101044057,78.72854610352722,71.65352878902377,73.0584999417498,75.86844224720164,26.694451901793173,37.93422112360088,1.4049711527259205,9.834798069081671,17.092211767902665,16.8596538327115,16.859653832711388,47.76901919268255,44.95907688723071,33.83618603204893
264,81,264,0,10.55999999999995,11.319086342538867,127.3711593793097,19.80840109944279,33.957259027616374,33.957259027616146,39.717736890367895,48.43788721106237,113.3322636846732,79.43547378073622,73.57406122650218,73.57406122650218,76.4038328121369,26.882830063529582,38.20191640606845,1.4148857928173584,7.074428964086792,22.81434789219834,19.808401099442904,18.393515306625545,50.93588854142456,45.27634537015513,53.76566012705962
265,81,265,0,10.59999999999995,11.413509505569156,121.83148967896042,19.377278632539287,33.33333333333335,33.21819194149566,33.21819194149566,44.635604227465635,108.10098868553081,75.20088040570462,69.20456654478323,69.20456654478323,71.97274920657458,26.297735287017645,37.37046593418302,1.3840913308956715,6.9204566544783574,22.31780211373296,19.377278632539287,19.377278632539287,49.827287912243946,47.0591052504526,47.05910525045283
266,81,266,0,10.639999999999947,13.65259278824226,122.87333509418067,19.113629903539277,32.766222691781536,32.76622269178142,38.22725980707855,47.13605854238827,112.25055186184981,79.60761178815268,72.35874177768414,70.99348249885998,70.99348249885998,24.57466701883618,40.95777836472689,5.461037115296904,5.461037115296904,19.30768188268941,16.38311134589071,17.748370624714994,81.91555672945378,76.45451961415688,79.23210209166452
267,81,267,0,10.679999999999948,14.106574907915212,124.52444818831233,19.365688656843304,33.31339593497495,33.19832341173105,33.31339593497451,47.75765978777319,113.73084285329355,80.98886568230284,73.31296420090689,74.69622767639578,71.92970072541823,26.282006034287406,40.114640789175496,4.1497904264664385,6.916317377444102,19.56229967371625,16.599161705865754,17.98242518135453,82.99580852932866,77.46275462737333,77.51214115111978
268,81,268,0,10.719999999999947,17.363382866690237,134.16256029551596,17.127135356874305,31.39974815426956,37.10879327322755,40.06513336290371,46.46826063327895,111.91039106551976,80.7380903543049,71.36306398697639,68.50854142749745,68.50854142749745,22.83618047583252,42.81783839218576,5.709045118958102,5.709045118958215,20.18452258857615,17.363382866690124,18.554396636613887,51.38140607062303,42.81783839218588,48.526883511144206
269,81,269,0,10.759999999999946,25.51587705557074,144.58996998156726,14.175487253094843,31.186071956808632,36.85626685804664,42.62086023672463,45.71457277686843,116.37721073879928,85.2417204734488,72.29498499078363,68.04233881485527,68.04233881485527,22.680779604951795,48.19665666052242,14.175487253094843,8.505292351856951,20.04716632657377,17.01058470371379,17.01058470371379,51.03175411114148,45.361559209903476,45.36155920990359
270,81,270,0,10.799999999999946,28.350974506189687,153.1215109855388,17.01058470371379,31.31467486099371,42.5264617592843,45.45006965350058,43.36865167092984,119.209021119909,88.29860830087293,73.71253371609316,65.20724136423621,68.04233881485527,24.09832833026121,52.4493028364509,15.593035978404373,7.087743626547422,20.04716632657377,17.245224542369026,18.42813342902332,51.03175411114148,45.361559209903476,56.70194901237937
271,81,271,0,10.839999999999945,25.51587705557074,155.9303597840435,14.175487253094843,31.186071956808632,39.79248896761434,42.52646175928476,43.36865167092984,113.72239922372566,82.65658425878881,69.4598875401648,65.20724136423621,65.20724136423621,22.68077960495168,48.196656660522535,14.175487253094843,8.505292351856838,22.857286388434275,17.01058470371379,18.42813342902332,51.03175411114137,45.361559209903476,51.031754111141254
272,81,272,0,10.879999999999944,19.414506867883006,149.76905298081192,13.867504905630767,27.73500981126142,44.376015698018364,47.23101979387281,39.22322702763675,99.99999999999996,72.32405706795788,62.403772075338225,58.24352060364902,58.24352060364902,19.414506867883006,41.60251471689219,11.094003924504591,5.547001962252239,16.641005886756943,16.641005886756943,16.641005886756943,49.9230176602706,41.60251471689219,52.76945503428461
273,81,273,0,10.919999999999945,13.876848237393801,152.6705591596589,16.65221788487247,30.529066122266272,41.63054471218129,44.492560128605895,39.73724599704926,100.25962830367457,69.88202211737142,62.445817068271936,55.50739294957509,58.282762597053875,18.039902708611862,43.01822953592068,9.713793766175627,4.1630544712181745,16.881914499410694,16.881914499410808,16.652217884872584,49.95665365461764,41.63054471218129,55.507392949575205
274,81,274,0,10.959999999999942,17.249124363288555,150.29414459312693,14.178692886144063,31.321756335857142,39.700340081203194,42.63049848306603,40.10339955261578,102.24400844009779,71.40207292855902,62.3862486990339,59.55051012180502,59.55051012180502,19.850170040601597,42.53607865843219,8.507215731686529,5.671477154457534,17.249124363288555,14.178692886144063,15.596562174758446,48.20755581288972,42.536078658432075,51.12200422004901
275,81,275,0,10.99999999999994,11.17542988853154,148.10080082364604,13.969287360664339,28.077920098074436,36.32014713772719,42.278735347473656,45.04959810468997,97.82491563221804,70.06958892714287,64.25872185905598,58.671006914790155,61.46486438692307,15.366216096730795,37.71707587379365,4.190786208199256,1.3969287360664566,14.24593376860251,13.969287360664339,13.969287360664339,72.64029427545438,67.05257933118867,72.85488940848775
276,81,276,0,11.03999999999994,11.40995810770255,154.0344344539851,14.262447634628302,28.52489526925649,45.6398324308102,48.5761462587753,43.16599933720396,97.15229251755095,68.69704484697934,62.754769592364255,59.90228006543862,59.90228006543862,17.11493716155394,37.0823638500334,2.8524895269256376,2.8524895269256376,17.351016412451365,14.262447634628302,15.68869239809112,45.639832430810316,39.93485337695904,51.423986260272244
