,frame_seq,m1,m3,m4,m5,m6,m7,m8,m9,m10,m11,m12,m13,m14,m15,m16,m17,e1,e2,e3,b1,b2,b3
0,218,3.0,31.144823004794873,3.1622776601683795,6.082762530298219,9.055385138137417,9.055385138137417,6.082762530298219,18.24828759089466,12.165525060596439,10.5,13.0,10.0,5.5,6.5,0.5,2.5,4.123105625617661,4.123105625617661,4.0,8.0,11.0,10.0
1,219,3.1622776601683795,29.017236257093817,3.0,5.0,8.0,8.06225774829855,6.082762530298219,17.11724276862369,12.165525060596439,10.5,11.0,10.0,4.5,6.5,0.5,1.5,4.0,4.0,4.0,9.0,10.0,10.04987562112089
2,220,2.0,30.066592756745816,3.1622776601683795,5.0,8.0,9.0,6.082762530298219,16.1245154965971,11.180339887498949,10.0,12.0,10.0,5.0,5.0,0.0,2.0,4.0,3.0,3.0,8.0,9.0,10.04987562112089
3,221,1.4142135623730951,28.071337695236398,3.0,5.0,8.06225774829855,8.0,6.324555320336759,15.297058540778355,10.44030650891055,9.5,11.0,9.0,4.0,5.0,0.0,2.0,3.1622776601683795,3.0,3.0,8.0,8.0,8.06225774829855
4,222,1.0,27.018512172212592,3.0,5.0,7.0,8.06225774829855,6.324555320336759,15.132745950421556,10.198039027185569,9.5,10.0,9.0,3.5,5.5,0.5,1.5,3.0,3.0,3.5,8.0,9.0,8.06225774829855
5,223,1.4142135623730951,25.019992006393608,3.0,5.0,7.0,8.0,5.0990195135927845,14.142135623730951,9.219544457292887,8.5,10.0,9.0,4.5,4.5,0.5,1.5,3.0,3.1622776601683795,3.0,8.0,9.0,7.0710678118654755
6,224,1.0,25.019992006393608,3.0,5.0,7.0,7.0710678118654755,5.385164807134504,14.142135623730951,9.219544457292887,8.5,10.0,9.0,4.5,4.5,0.5,1.5,3.0,3.0,3.0,7.0,8.0,8.0
7,225,1.0,24.020824298928627,3.0,5.0,7.0,7.0710678118654755,5.385164807134504,14.142135623730951,9.219544457292887,8.5,10.0,9.0,4.5,4.5,0.5,1.5,3.1622776601683795,2.0,2.5,7.0,8.0,7.0
8,226,1.0,23.021728866442675,3.0,5.0990195135927845,7.0710678118654755,7.0,5.0990195135927845,14.142135623730951,9.055385138137417,8.5,10.0,9.0,4.5,4.5,0.5,2.5,2.0,2.0,2.0,7.0,8.0,7.0
9,227,1.0,23.021728866442675,3.0,4.0,7.0,7.0,4.47213595499958,12.165525060596439,8.246211251235321,7.5,9.0,8.0,4.5,3.5,0.5,1.5,2.23606797749979,2.0,2.5,6.0,7.0,8.0
10,228,2.0,21.02379604162864,2.0,4.0,6.0,6.0,4.47213595499958,12.165525060596439,8.246211251235321,7.0,8.0,7.0,3.5,4.5,0.5,1.5,3.0,2.0,2.0,6.0,7.0,7.0
11,229,2.0,21.02379604162864,3.0,4.0,6.0,7.0,3.1622776601683795,12.041594578792296,8.06225774829855,7.0,8.0,7.0,4.5,4.5,0.5,1.5,3.1622776601683795,3.0,3.0,6.0,6.0,7.0
12,230,1.0,20.024984394500787,2.0,5.0990195135927845,6.0,6.082762530298219,4.123105625617661,12.165525060596439,7.0710678118654755,6.5,8.0,7.0,3.5,4.5,0.5,1.5,3.1622776601683795,2.0,2.5,6.0,7.0,6.082762530298219
13,231,2.0,20.024984394500787,2.0,4.0,6.0,6.082762530298219,4.47213595499958,12.165525060596439,8.246211251235321,7.0,9.0,8.0,4.5,3.5,0.5,2.5,3.1622776601683795,2.0,2.0,5.0,6.0,7.0
14,232,1.0,16.0312195418814,2.0,3.0,5.0,5.0,5.385164807134504,11.180339887498949,8.246211251235321,7.5,10.0,9.0,4.5,1.5,1.5,2.5,3.0,2.0,2.0,6.0,6.0,6.0
15,299,22.02271554554524,82.29823813423954,5.0,9.0,19.026297590440446,21.0,17.029386365926403,53.0,44.0,33.0,20.0,27.0,6.5,29.5,18.5,1.5,10.198039027185569,10.0,9.0,37.0,19.0,34.23448553724738
16,366,4.123105625617661,41.30375285612676,4.0,9.055385138137417,10.04987562112089,12.041594578792296,12.36931687685298,29.427877939124322,20.396078054371138,18.0,15.0,10.0,0.5,16.5,7.5,2.5,2.0,2.8284271247461903,2.0,12.0,20.0,20.223748416156685
17,367,4.0,38.3275357934736,4.123105625617661,8.06225774829855,9.055385138137417,11.045361017187261,11.180339887498949,27.294688127912362,19.235384061671343,17.0,14.0,9.0,0.5,15.5,6.5,2.5,2.23606797749979,2.8284271247461903,2.0,11.0,19.0,19.235384061671343
18,368,5.0,37.21558813185679,3.1622776601683795,7.0710678118654755,9.055385138137417,11.045361017187261,11.180339887498949,26.30589287593181,19.235384061671343,16.5,13.0,9.0,0.0,15.0,7.0,2.0,2.0,1.4142135623730951,1.5,11.0,18.0,18.110770276274835
19,369,4.0,35.22782990761707,3.0,8.06225774829855,9.055385138137417,10.04987562112089,11.40175425099138,26.30589287593181,18.24828759089466,16.0,13.0,9.0,0.0,15.0,7.0,2.0,2.23606797749979,2.8284271247461903,2.0,11.0,18.0,17.11724276862369
20,369,5.0,28.635642126552707,3.1622776601683795,5.0990195135927845,7.280109889280518,7.0710678118654755,7.0,20.09975124224178,15.033296378372908,12.5,6.0,12.0,2.0,11.0,4.0,1.0,2.23606797749979,2.0,2.5,16.0,8.0,16.278820596099706
21,370,3.1622776601683795,35.22782990761707,3.0,8.06225774829855,9.055385138137417,10.04987562112089,11.180339887498949,25.317977802344327,17.26267650163207,15.5,13.0,9.0,0.0,14.0,6.0,2.0,2.23606797749979,2.23606797749979,2.0,10.0,17.0,16.1245154965971
22,370,5.0990195135927845,27.65863337187866,2.0,5.0,7.280109889280518,7.280109889280518,8.06225774829855,20.09975124224178,15.132745950421556,12.5,6.0,12.0,1.0,11.0,4.0,1.0,2.23606797749979,2.0,1.5,15.0,8.0,14.142135623730951
23,371,4.0,34.23448553724738,4.0,7.0710678118654755,8.06225774829855,9.055385138137417,9.219544457292887,24.186773244895647,17.11724276862369,15.0,12.0,8.0,1.0,14.0,6.0,2.0,2.23606797749979,2.8284271247461903,2.0,9.0,16.0,17.029386365926403
24,371,5.0,27.65863337187866,2.23606797749979,4.123105625617661,7.0710678118654755,7.280109889280518,7.0,18.110770276274835,14.035668847618199,11.5,5.0,11.0,1.0,10.0,4.0,1.0,2.23606797749979,2.0,1.5,16.0,8.0,14.142135623730951
25,372,3.1622776601683795,31.25699921617557,3.0,7.0710678118654755,8.06225774829855,9.0,10.198039027185569,23.345235059857504,16.278820596099706,14.5,12.0,8.0,0.0,13.0,6.0,2.0,2.0,2.23606797749979,1.0,9.0,16.0,15.132745950421556
26,372,5.0,26.476404589747453,2.23606797749979,4.123105625617661,7.0710678118654755,7.280109889280518,7.0,18.110770276274835,14.035668847618199,11.5,6.0,11.0,1.5,9.5,3.5,0.5,2.23606797749979,2.23606797749979,2.0,15.0,8.0,13.152946437965905
27,373,5.0,25.495097567963924,2.23606797749979,5.0990195135927845,7.0710678118654755,8.246211251235321,5.0,17.11724276862369,12.041594578792296,9.5,3.0,8.0,0.5,11.5,5.5,1.5,2.23606797749979,2.0,2.0,14.0,7.0,13.152946437965905
28,373,3.0,33.24154027718932,3.1622776601683795,7.0710678118654755,9.0,10.0,8.06225774829855,21.213203435596427,14.142135623730951,12.5,10.0,6.0,0.0,13.0,6.0,3.0,1.4142135623730951,1.4142135623730951,1.0,9.0,15.0,16.0312195418814
29,374,2.23606797749979,29.274562336608895,4.0,7.0710678118654755,8.06225774829855,9.055385138137417,9.219544457292887,22.360679774997898,15.297058540778355,14.0,12.0,8.0,1.0,12.0,5.0,1.0,2.23606797749979,2.23606797749979,1.5,9.0,15.0,15.132745950421556
30,374,4.123105625617661,26.68332812825267,3.0,7.0,9.219544457292887,9.219544457292887,4.0,18.027756377319946,11.045361017187261,9.0,3.0,9.0,2.0,12.0,4.0,1.0,2.23606797749979,2.0,2.0,14.0,7.0,11.180339887498949
31,375,3.0,29.154759474226502,3.1622776601683795,7.0,7.0,8.06225774829855,8.246211251235321,21.213203435596427,14.317821063276353,12.5,10.0,7.0,0.5,12.5,5.5,2.5,2.0,2.23606797749979,1.5,8.0,14.0,14.142135623730951
32,375,4.0,24.515301344262525,2.23606797749979,4.123105625617661,7.0710678118654755,7.0710678118654755,6.0,16.1245154965971,12.041594578792296,10.0,4.0,9.0,0.5,9.5,4.5,1.5,2.23606797749979,2.0,1.5,13.0,7.0,12.165525060596439
33,376,3.0,30.265491900843113,3.1622776601683795,6.0,8.06225774829855,9.055385138137417,8.246211251235321,20.223748416156685,14.317821063276353,12.5,10.0,6.0,0.0,12.0,5.0,2.0,1.0,1.4142135623730951,1.0,8.0,14.0,14.142135623730951
34,377,2.23606797749979,28.284271247461902,3.0,6.0,7.0710678118654755,7.0,9.219544457292887,20.223748416156685,14.317821063276353,13.0,11.0,7.0,0.0,11.0,5.0,2.0,2.0,2.23606797749979,1.5,9.0,14.0,14.142135623730951
35,378,3.0,28.160255680657446,3.1622776601683795,6.082762530298219,8.0,8.0,8.06225774829855,20.223748416156685,14.142135623730951,12.5,9.0,6.0,0.5,12.5,5.5,2.5,1.4142135623730951,1.4142135623730951,1.5,8.0,14.0,14.142135623730951
36,379,3.0,27.16615541441225,2.0,6.082762530298219,7.0710678118654755,8.06225774829855,8.246211251235321,19.235384061671343,13.152946437965905,11.5,9.0,6.0,0.5,11.5,5.5,1.5,1.0,2.23606797749979,1.5,8.0,13.0,13.152946437965905
37,380,3.0,27.16615541441225,3.1622776601683795,6.082762530298219,7.0,8.06225774829855,7.0710678118654755,19.235384061671343,13.152946437965905,11.5,9.0,6.0,0.5,11.5,5.5,2.5,2.0,1.4142135623730951,1.0,8.0,14.0,13.152946437965905
38,381,3.0,26.076809620810597,2.0,5.0990195135927845,6.082762530298219,8.06225774829855,8.06225774829855,18.110770276274835,13.038404810405298,11.5,9.0,7.0,0.0,10.0,4.0,1.0,1.0,1.4142135623730951,1.0,7.0,13.0,13.038404810405298
39,382,3.1622776601683795,26.076809620810597,2.0,5.0,7.0,7.0,7.0710678118654755,17.11724276862369,12.165525060596439,10.5,8.0,6.0,0.0,10.0,5.0,2.0,1.0,1.0,0.5,7.0,12.0,12.165525060596439
40,383,2.0,26.1725046566048,2.0,5.0990195135927845,6.082762530298219,7.0,7.0710678118654755,16.1245154965971,11.045361017187261,10.0,8.0,5.0,0.5,9.5,4.5,1.5,1.4142135623730951,1.4142135623730951,1.0,7.0,12.0,12.165525060596439
41,384,3.0,24.186773244895647,2.0,5.0990195135927845,6.0,6.082762530298219,7.0710678118654755,17.11724276862369,12.041594578792296,10.5,9.0,6.0,0.5,9.5,4.5,1.5,1.4142135623730951,1.4142135623730951,1.0,6.0,11.0,12.165525060596439
42,385,2.0,22.20360331117452,2.0,5.0990195135927845,6.082762530298219,6.0,7.0710678118654755,16.1245154965971,11.045361017187261,10.0,9.0,6.0,0.5,8.5,3.5,0.5,1.4142135623730951,1.4142135623730951,1.0,7.0,12.0,11.045361017187261
43,396,1.0,52.15361924162119,4.123105625617661,8.06225774829855,15.033296378372908,15.033296378372908,16.278820596099706,29.427877939124322,21.37755832643195,20.5,15.0,19.0,1.0,12.0,3.0,3.0,4.123105625617661,4.0,4.0,14.0,8.0,17.11724276862369
44,397,1.0,50.15974481593781,4.123105625617661,8.06225774829855,14.142135623730951,16.0312195418814,16.1245154965971,28.442925306655784,20.396078054371138,20.0,14.0,18.0,0.0,12.0,3.0,4.0,3.0,4.0,4.0,13.0,8.0,15.132745950421556
45,398,1.4142135623730951,48.16637831516918,3.0,7.0710678118654755,14.035668847618199,15.033296378372908,15.297058540778355,26.476404589747453,19.4164878389476,18.5,13.0,17.0,0.0,11.0,3.0,3.0,3.0,4.0,3.5,13.0,8.0,15.033296378372908
46,399,1.4142135623730951,40.311288741492746,3.0,7.0710678118654755,11.045361017187261,12.041594578792296,14.142135623730951,25.317977802344327,18.24828759089466,17.5,12.0,17.0,0.5,10.5,2.5,2.5,3.0,3.0,3.0,12.0,7.0,14.035668847618199
47,400,1.4142135623730951,42.1070065428546,3.0,7.0,12.041594578792296,13.0,13.152946437965905,24.186773244895647,17.26267650163207,16.5,12.0,15.0,0.5,10.5,2.5,2.5,3.1622776601683795,3.0,2.5,12.0,7.0,13.038404810405298
48,401,1.0,40.19950248448356,4.123105625617661,6.0,12.0,13.038404810405298,13.152946437965905,23.345235059857504,17.46424919657298,17.0,12.0,16.0,1.0,9.0,2.0,2.0,2.23606797749979,2.0,2.5,10.0,6.0,12.165525060596439
49,402,1.0,39.11521443121589,3.0,6.082762530298219,11.045361017187261,12.041594578792296,12.165525060596439,21.37755832643195,15.297058540778355,15.0,11.0,14.0,0.5,8.5,1.5,2.5,3.0,2.23606797749979,2.5,10.0,5.0,13.038404810405298
50,402,1.4142135623730951,23.0,2.0,2.0,6.0,7.0,6.0,11.045361017187261,9.055385138137417,8.5,9.0,9.0,3.0,2.0,1.0,1.0,3.0,4.123105625617661,4.0,8.0,8.0,10.04987562112089
51,403,1.0,37.12142238654117,3.1622776601683795,5.0990195135927845,11.045361017187261,12.041594578792296,12.165525060596439,21.37755832643195,16.278820596099706,15.5,11.0,14.0,0.5,8.5,2.5,2.5,2.0,3.1622776601683795,2.5,10.0,6.0,12.041594578792296
52,403,0.0,23.021728866442675,3.0,3.0,7.0,7.0,5.0,11.0,8.0,8.0,9.0,8.0,3.5,2.5,0.5,1.5,3.0,3.0,3.0,8.0,7.0,9.055385138137417
53,404,1.0,36.124783736376884,4.0,5.0,11.0,11.0,10.198039027185569,19.235384061671343,14.317821063276353,14.0,10.0,13.0,1.5,7.5,1.5,1.5,3.1622776601683795,2.0,2.5,9.0,6.0,10.04987562112089
54,404,1.0,21.02379604162864,3.0,2.0,6.082762530298219,7.0,4.0,10.0,8.0,7.5,8.0,7.0,3.5,2.5,0.5,1.5,2.0,3.0,3.0,8.0,7.0,9.055385138137417
55,404,2.23606797749979,22.02271554554524,3.0,3.0,6.0,6.0,8.06225774829855,16.1245154965971,13.152946437965905,12.0,13.0,12.0,4.5,3.5,0.5,1.5,3.0,3.0,3.0,6.0,8.0,8.0
56,405,1.4142135623730951,34.132096331752024,3.0,5.0990195135927845,10.0,11.0,10.198039027185569,19.4164878389476,14.317821063276353,13.5,10.0,13.0,1.5,7.5,1.5,1.5,2.23606797749979,2.0,2.0,9.0,5.0,10.04987562112089
57,405,1.0,20.0,2.0,2.0,6.0,6.0,5.0,10.0,8.0,7.5,8.0,8.0,3.0,2.0,0.0,1.0,3.0,3.0,2.5,7.0,7.0,9.0
58,406,1.4142135623730951,33.06055050963308,3.0,4.123105625617661,9.055385138137417,10.0,9.219544457292887,17.46424919657298,13.341664064126334,12.5,9.0,11.0,1.0,7.0,2.0,2.0,2.0,2.23606797749979,1.5,8.0,4.0,11.045361017187261
59,406,1.4142135623730951,19.0,2.0,2.0,5.0,6.0,4.0,9.055385138137417,7.0710678118654755,6.5,7.0,7.0,3.0,2.0,0.0,1.0,2.0,2.0,2.0,7.0,7.0,8.06225774829855
60,407,1.0,31.064449134018133,2.0,5.0,9.055385138137417,9.0,10.04987562112089,17.11724276862369,12.165525060596439,12.0,9.0,11.0,0.0,7.0,1.0,2.0,1.0,2.0,2.0,9.0,5.0,10.04987562112089
61,407,1.0,18.0,1.0,2.0,5.0,5.0,5.0,9.0,7.0,6.5,7.0,7.0,2.0,2.0,0.0,1.0,2.0,2.0,2.0,6.0,6.0,7.0710678118654755
62,408,1.0,31.144823004794873,2.0,5.0,9.0,9.055385138137417,9.219544457292887,16.278820596099706,11.40175425099138,11.0,8.0,11.0,0.5,6.5,1.5,1.5,1.0,2.0,1.5,7.0,4.0,9.055385138137417
63,408,1.0,18.0,2.0,2.0,6.0,6.0,4.123105625617661,9.055385138137417,7.0710678118654755,6.5,7.0,7.0,3.0,2.0,0.0,1.0,1.0,1.0,1.0,5.0,6.0,8.06225774829855
64,409,1.0,29.154759474226502,2.23606797749979,4.123105625617661,9.055385138137417,9.0,9.055385138137417,16.278820596099706,12.165525060596439,11.5,8.0,11.0,0.5,6.5,1.5,1.5,1.0,2.0,2.0,8.0,5.0,9.055385138137417
65,410,1.0,28.160255680657446,3.0,4.0,8.0,8.0,8.06225774829855,15.132745950421556,11.180339887498949,11.0,7.0,10.0,0.5,6.5,2.5,1.5,1.0,2.0,1.5,8.0,5.0,8.0
66,411,0.0,27.16615541441225,2.0,4.123105625617661,8.06225774829855,8.0,9.219544457292887,15.297058540778355,11.180339887498949,11.0,8.0,11.0,0.5,5.5,1.5,1.5,2.0,1.4142135623730951,1.5,7.0,4.0,9.055385138137417
67,412,1.0,26.076809620810597,2.23606797749979,3.1622776601683795,7.0710678118654755,7.0,8.06225774829855,14.317821063276353,11.180339887498949,10.5,7.0,9.0,0.0,6.0,2.0,2.0,1.4142135623730951,1.0,1.5,7.0,4.0,8.0
68,413,0.0,25.079872407968907,2.23606797749979,4.0,8.06225774829855,7.0710678118654755,8.06225774829855,14.142135623730951,10.198039027185569,10.0,7.0,9.0,0.0,6.0,2.0,2.0,2.23606797749979,2.0,2.0,7.0,4.0,7.0710678118654755
69,414,0.0,25.079872407968907,2.0,4.123105625617661,7.0710678118654755,7.0,7.0710678118654755,13.152946437965905,9.055385138137417,9.0,7.0,9.0,1.0,5.0,1.0,1.0,1.0,1.0,1.5,6.0,4.0,8.06225774829855
70,415,1.4142135623730951,24.08318915758459,2.0,3.0,7.0,7.0,7.0710678118654755,13.152946437965905,10.198039027185569,9.5,7.0,9.0,1.0,5.0,1.0,1.0,2.0,2.0,1.5,7.0,4.0,7.0710678118654755
71,416,1.0,23.08679276123039,2.0,4.0,7.0710678118654755,7.0710678118654755,7.0710678118654755,13.152946437965905,9.219544457292887,9.0,6.0,8.0,0.0,6.0,2.0,2.0,1.0,2.0,1.5,7.0,5.0,5.0990195135927845
72,420,5.0,24.331050121192877,2.0,3.1622776601683795,6.0,6.0,6.324555320336759,16.278820596099706,13.152946437965905,10.5,7.0,11.0,3.0,7.0,3.0,1.0,2.23606797749979,2.23606797749979,2.0,12.0,6.0,9.219544457292887
73,646,15.033296378372908,109.16501271011697,8.0,17.029386365926403,30.14962686336267,33.06055050963308,26.076809620810597,66.0,49.01020301937138,41.5,30.0,36.0,7.0,33.0,12.0,0.0,7.0710678118654755,7.0710678118654755,7.0,33.0,31.0,43.01162633521314
74,647,5.385164807134504,96.18731725128839,7.0,16.0312195418814,26.1725046566048,28.071337695236398,28.0,56.08029957123981,40.049968789001575,37.5,30.0,36.0,5.0,23.0,4.0,2.0,9.219544457292887,10.0,9.5,35.0,32.0,41.048751503547585
75,648,4.47213595499958,98.18350166906862,7.0,16.0312195418814,27.16615541441225,29.068883707497267,28.0,55.08175741568164,39.05124837953327,37.0,28.0,34.0,3.0,24.0,5.0,3.0,7.280109889280518,9.0,8.5,34.0,32.0,41.012193308819754
76,649,3.1622776601683795,95.13148795220224,6.0,16.1245154965971,27.073972741361768,29.068883707497267,27.0,52.08646657242167,36.013886210738214,34.5,28.0,33.0,3.5,21.5,2.5,1.5,7.0710678118654755,8.0,7.5,32.0,30.0,42.0
77,650,3.1622776601683795,93.13431161500041,6.0,16.1245154965971,26.076809620810597,27.073972741361768,27.018512172212592,52.03844732503075,36.0,34.5,29.0,34.0,4.5,20.5,1.5,1.5,9.219544457292887,7.0,7.0,31.0,30.0,41.012193308819754
78,651,3.1622776601683795,94.19129471453293,6.082762530298219,15.132745950421556,27.073972741361768,29.154759474226502,28.0178514522438,52.08646657242167,37.013511046643494,35.5,28.0,34.0,3.0,21.0,3.0,2.0,10.198039027185569,10.0,10.0,32.0,30.0,43.01162633521314
79,652,3.605551275463989,95.1892851112981,6.082762530298219,15.132745950421556,30.14962686336267,31.144823004794873,29.017236257093817,53.150729063673246,38.05259518088089,36.5,27.0,33.0,1.0,23.0,5.0,4.0,8.246211251235321,8.0,8.0,32.0,31.0,44.01136216933077
80,653,8.06225774829855,97.12878049270464,6.082762530298219,14.035668847618199,31.064449134018133,33.13608305156178,27.073972741361768,55.00909015790027,41.0,37.0,27.0,32.0,2.5,25.5,7.5,1.5,8.06225774829855,8.0,7.5,30.0,30.0,42.01190307520001
81,654,14.0,100.07996802557443,7.0710678118654755,15.033296378372908,31.0,33.06055050963308,24.08318915758459,60.0,45.0111097397076,38.0,30.0,34.0,8.0,28.0,10.0,3.0,7.0710678118654755,7.0,7.0,31.0,29.0,44.01136216933077
82,655,18.0,100.00499987500625,6.082762530298219,14.0,33.0,35.05709628591621,23.08679276123039,61.00819617067857,47.01063709417264,38.0,31.0,32.0,8.5,29.5,11.5,4.5,13.152946437965905,12.041594578792296,12.5,30.0,31.0,41.0
83,656,18.0,103.01941564578979,5.0990195135927845,16.0312195418814,33.0,35.05709628591621,24.08318915758459,63.0,47.01063709417264,38.0,30.0,32.0,7.0,32.0,13.0,4.0,8.06225774829855,9.0,9.0,30.0,31.0,41.0
84,657,14.035668847618199,102.0196059588548,6.0,15.033296378372908,32.01562118716424,34.058772731852805,24.186773244895647,59.00847396772772,44.04543109109048,37.0,30.0,32.0,7.0,28.0,10.0,3.0,7.280109889280518,7.0710678118654755,7.5,29.0,30.0,42.0
85,658,14.142135623730951,101.01980003939822,7.0,15.0,31.016124838541646,33.13608305156178,23.194827009486403,59.00847396772772,44.01136216933077,37.0,30.0,32.0,8.0,28.0,10.0,3.0,14.142135623730951,15.033296378372908,14.5,29.0,32.0,41.0
86,659,15.033296378372908,100.0199980003999,5.0,14.035668847618199,30.0,32.0624390837628,25.079872407968907,59.0,45.0111097397076,37.5,31.0,33.0,7.0,27.0,10.0,4.0,11.180339887498949,11.045361017187261,11.0,30.0,32.0,42.01190307520001
87,660,12.041594578792296,101.0,6.0,14.035668847618199,31.0,33.015148038438355,25.079872407968907,57.0,43.01162633521314,37.0,32.0,32.0,7.0,25.0,8.0,3.0,14.035668847618199,16.0312195418814,15.5,27.0,31.0,41.012193308819754
88,661,10.0,99.00505037623081,8.0,16.0312195418814,32.0,34.058772731852805,25.179356624028344,59.033888572581766,43.104524124504614,38.0,32.0,33.0,7.5,26.5,7.5,1.5,14.035668847618199,14.142135623730951,14.5,29.0,33.0,41.012193308819754
89,662,4.123105625617661,96.00520819205592,4.123105625617661,13.038404810405298,33.015148038438355,34.058772731852805,29.274562336608895,50.00999900019995,37.05401462729781,35.0,29.0,30.0,0.5,20.5,3.5,1.5,17.029386365926403,18.110770276274835,18.0,26.0,32.0,44.04543109109048
90,663,3.1622776601683795,92.02173656261873,5.0990195135927845,13.038404810405298,32.0624390837628,33.13608305156178,29.154759474226502,50.0,37.013511046643494,35.5,30.0,32.0,2.0,19.0,2.0,1.0,13.0,12.041594578792296,12.0,28.0,32.0,44.01136216933077
91,664,2.0,90.0222194794152,6.0,14.035668847618199,31.144823004794873,30.14962686336267,28.160255680657446,48.0,34.0147027033899,34.0,31.0,33.0,4.0,16.0,1.0,1.0,17.0,18.110770276274835,18.0,26.0,33.0,41.048751503547585
92,665,1.4142135623730951,92.02173656261873,6.082762530298219,14.035668847618199,29.068883707497267,31.144823004794873,28.160255680657446,49.0,35.014282800023196,34.5,31.0,33.0,4.0,17.0,1.0,1.0,17.029386365926403,18.110770276274835,18.5,25.0,33.0,42.04759208325728
93,666,1.4142135623730951,93.04837451562494,6.082762530298219,16.0312195418814,29.068883707497267,30.14962686336267,28.442925306655784,51.03920062069938,35.12833614050059,34.5,31.0,34.0,4.5,18.5,0.5,0.5,18.0,19.1049731745428,18.5,27.0,35.0,42.04759208325728
94,667,2.8284271247461903,92.0869154657707,7.0710678118654755,16.0312195418814,28.071337695236398,29.154759474226502,28.442925306655784,53.009433122794285,37.05401462729781,36.0,30.0,34.0,4.0,21.0,1.0,1.0,10.04987562112089,10.0,10.0,28.0,33.0,46.04345773288535
95,668,1.4142135623730951,95.02105029939419,6.0,16.0312195418814,30.066592756745816,31.144823004794873,29.427877939124322,52.08646657242167,36.22154055254967,35.5,32.0,34.0,4.0,19.0,0.0,1.0,11.045361017187261,10.04987562112089,10.0,28.0,33.0,44.04543109109048
96,669,3.0,90.08884503644167,7.0710678118654755,15.132745950421556,28.0178514522438,30.265491900843113,28.442925306655784,53.03772242470448,38.2099463490856,36.5,30.0,34.0,4.0,21.0,2.0,1.0,13.152946437965905,13.038404810405298,13.0,28.0,34.0,43.04648650006177
97,670,1.0,90.0222194794152,7.0710678118654755,16.0312195418814,26.019223662515376,27.073972741361768,30.4138126514911,53.03772242470448,37.12142238654117,37.0,32.0,34.0,3.0,20.0,0.0,2.0,11.0,11.045361017187261,11.5,28.0,34.0,44.04543109109048
98,671,1.0,88.0056816347672,6.0,15.0,27.018512172212592,28.0178514522438,31.25699921617557,52.08646657242167,37.12142238654117,37.0,33.0,34.0,2.5,18.5,0.5,1.5,16.0,18.24828759089466,18.0,24.0,34.0,44.04543109109048
99,672,1.0,92.02173656261873,6.082762530298219,15.033296378372908,27.073972741361768,28.071337695236398,31.25699921617557,51.03920062069938,36.124783736376884,36.5,32.0,34.0,2.0,18.0,0.0,3.0,19.026297590440446,19.235384061671343,19.5,25.0,33.0,43.04648650006177
100,673,2.23606797749979,93.0,7.0710678118654755,15.033296378372908,30.01666203960727,30.01666203960727,29.274562336608895,49.01020301937138,34.058772731852805,35.0,32.0,32.0,3.0,17.0,1.0,3.0,18.027756377319946,19.1049731745428,19.0,26.0,35.0,41.10960958218893
101,674,2.23606797749979,88.02272433866155,6.082762530298219,15.033296378372908,26.019223662515376,27.073972741361768,30.14962686336267,53.0,38.01315561749642,37.0,34.0,36.0,5.0,18.0,0.0,0.0,17.029386365926403,18.24828759089466,18.0,26.0,35.0,42.1070065428546
102,675,1.0,90.0222194794152,5.0990195135927845,15.033296378372908,25.019992006393608,27.073972741361768,31.400636936215164,51.03920062069938,36.124783736376884,36.0,32.0,34.0,2.0,18.0,0.0,1.0,7.0,6.082762530298219,6.5,26.0,35.0,43.04648650006177
103,676,3.1622776601683795,89.02246907382428,6.0,15.033296378372908,28.0178514522438,29.068883707497267,28.284271247461902,52.03844732503075,37.12142238654117,35.5,31.0,33.0,4.0,20.0,1.0,0.0,7.0710678118654755,6.082762530298219,6.5,27.0,36.0,43.04648650006177
104,677,2.23606797749979,89.00561780022652,6.082762530298219,15.033296378372908,26.019223662515376,28.160255680657446,28.284271247461902,51.0098029794274,36.05551275463989,35.0,32.0,33.0,4.5,18.5,0.5,0.5,8.06225774829855,8.06225774829855,8.5,27.0,35.0,41.048751503547585
105,678,1.4142135623730951,89.00561780022652,6.082762530298219,16.0,27.018512172212592,29.068883707497267,28.160255680657446,51.0098029794274,35.014282800023196,34.5,32.0,33.0,4.5,18.5,0.5,0.5,15.033296378372908,16.278820596099706,16.0,26.0,35.0,43.04648650006177
106,679,0.0,89.00561780022652,7.0710678118654755,15.033296378372908,27.0,28.0178514522438,30.265491900843113,52.03844732503075,37.12142238654117,37.0,33.0,34.0,3.5,18.5,1.5,1.5,12.041594578792296,10.04987562112089,10.0,27.0,35.0,41.048751503547585
107,680,2.23606797749979,91.0,8.0,15.0,28.0178514522438,29.017236257093817,30.066592756745816,52.0,37.0,37.5,34.0,34.0,4.0,18.0,1.0,3.0,15.033296378372908,16.1245154965971,16.5,24.0,33.0,41.048751503547585
108,681,2.23606797749979,92.0,7.0,14.0,29.0,30.01666203960727,31.064449134018133,53.0,39.0,38.5,35.0,35.0,4.0,18.0,1.0,1.0,17.029386365926403,18.24828759089466,18.0,26.0,35.0,40.049968789001575
109,682,1.0,93.00537618869137,7.0710678118654755,16.0312195418814,28.0,30.01666203960727,29.154759474226502,52.03844732503075,36.124783736376884,36.0,33.0,32.0,3.5,19.5,1.5,1.5,14.035668847618199,14.317821063276353,14.5,26.0,35.0,42.1070065428546
110,683,3.1622776601683795,93.00537618869137,7.0,16.0,28.0,29.017236257093817,28.071337695236398,54.00925846556311,38.01315561749642,36.5,33.0,32.0,4.5,21.5,3.5,0.5,16.0312195418814,16.1245154965971,16.0,27.0,37.0,42.1070065428546
111,684,7.0710678118654755,96.02083107326243,8.06225774829855,17.0,31.0,33.0,27.16615541441225,59.07622195096772,42.1070065428546,38.5,33.0,31.0,5.0,27.0,8.0,1.0,19.026297590440446,20.223748416156685,20.5,21.0,31.0,39.20459156782532
112,685,11.045361017187261,101.01980003939822,7.0710678118654755,15.033296378372908,32.0,35.014282800023196,26.30589287593181,59.21148537234985,44.181444068749045,38.5,32.0,30.0,5.0,28.0,9.0,0.0,14.035668847618199,16.1245154965971,16.0,21.0,31.0,42.190046219457976
113,686,11.0,103.07764064044152,10.04987562112089,16.0312195418814,35.0,37.013511046643494,23.08679276123039,60.13318551349163,44.10215414239989,38.5,34.0,30.0,9.0,28.0,8.0,1.0,17.0,18.24828759089466,18.5,21.0,32.0,38.47076812334269
114,687,1.4142135623730951,100.00499987500625,6.0,15.0,31.016124838541646,32.01562118716424,27.073972741361768,49.01020301937138,34.0147027033899,33.5,30.0,29.0,2.5,19.5,2.5,1.5,10.04987562112089,9.055385138137417,9.5,25.0,34.0,42.04759208325728
115,688,10.04987562112089,106.07544484940895,10.04987562112089,16.0312195418814,34.0147027033899,37.0,23.021728866442675,59.135437767890075,43.104524124504614,38.0,31.0,27.0,6.0,30.0,12.0,1.0,17.029386365926403,17.46424919657298,17.5,20.0,31.0,40.19950248448356
116,689,9.055385138137417,99.08077512817509,6.082762530298219,13.038404810405298,33.015148038438355,35.0,26.476404589747453,54.3323108288245,41.30375285612676,36.5,29.0,25.0,1.0,27.0,11.0,2.0,16.0,17.46424919657298,17.0,19.0,29.0,40.19950248448356
117,690,6.0,93.1933474020544,10.04987562112089,14.035668847618199,31.016124838541646,32.0,29.427877939124322,59.413803110051795,45.39823785126467,42.0,36.0,30.0,4.0,26.0,10.0,3.0,18.0,19.4164878389476,19.5,20.0,32.0,41.10960958218893
118,691,9.0,97.51410154434076,9.219544457292887,13.152946437965905,33.06055050963308,34.0147027033899,28.284271247461902,59.53990258641679,46.389654018972806,41.5,35.0,25.0,2.0,29.0,13.0,3.0,14.0,16.278820596099706,15.5,22.0,34.0,43.104524124504614
119,692,11.0,103.01941564578979,10.04987562112089,17.029386365926403,33.0,35.05709628591621,23.08679276123039,61.1310068623117,44.10215414239989,38.5,32.0,30.0,8.0,30.0,10.0,0.0,17.0,18.24828759089466,18.5,20.0,32.0,43.18564576337837
120,693,5.0,99.02019995940222,7.0,16.0,34.0,36.05551275463989,26.076809620810597,54.037024344425184,38.05259518088089,35.5,29.0,27.0,2.0,26.0,7.0,2.0,18.027756377319946,19.235384061671343,19.5,21.0,32.0,44.181444068749045
121,694,3.1622776601683795,103.04368005850722,7.0,16.0312195418814,35.0,36.0,26.1725046566048,52.08646657242167,36.05551275463989,34.5,28.0,25.0,0.5,25.5,7.5,3.5,17.0,19.4164878389476,19.0,19.0,30.0,42.190046219457976
122,695,7.0710678118654755,103.12128781197411,7.0,15.033296378372908,36.013886210738214,38.01315561749642,27.294688127912362,56.142675390472796,41.10960958218893,37.5,29.0,24.0,0.5,29.5,10.5,3.5,17.0,19.235384061671343,19.5,18.0,32.0,43.289721643826724
123,696,7.0,107.11675872616759,9.055385138137417,16.0312195418814,37.013511046643494,38.0,26.076809620810597,58.137767414994535,42.1070065428546,38.5,31.0,26.0,2.5,29.5,10.5,2.5,16.0312195418814,17.26267650163207,17.0,18.0,31.0,42.2965719651132
124,697,10.04987562112089,108.11567878897121,9.055385138137417,18.0,39.01281840626232,40.0,21.213203435596427,58.215118311311535,40.311288741492746,35.0,29.0,24.0,5.5,31.5,10.5,0.5,5.0,5.0990195135927845,5.5,18.0,30.0,44.10215414239989
125,698,10.04987562112089,108.16653826391968,9.055385138137417,18.027756377319946,36.013886210738214,39.01281840626232,23.0,60.07495318350236,42.04759208325728,37.0,29.0,23.0,3.0,34.0,14.0,3.0,10.0,9.219544457292887,9.5,19.0,33.0,42.190046219457976
126,699,12.0,109.22453936730518,9.055385138137417,17.029386365926403,37.05401462729781,39.01281840626232,21.095023109728988,59.135437767890075,42.1070065428546,36.0,29.0,22.0,4.5,33.5,13.5,1.5,16.0312195418814,16.278820596099706,16.5,18.0,31.0,42.42640687119285
127,700,9.0,108.2266141020775,10.04987562112089,17.029386365926403,38.01315561749642,39.0,23.021728866442675,59.07622195096772,42.04759208325728,37.5,31.0,24.0,4.5,31.5,11.5,2.5,17.029386365926403,18.439088914585774,18.0,18.0,33.0,45.27692569068709
128,701,15.033296378372908,111.28791488746656,9.0,18.027756377319946,37.05401462729781,40.01249804748511,22.090722034374522,64.1248781675256,46.09772228646444,38.5,32.0,24.0,6.0,36.0,15.0,0.0,17.029386365926403,18.439088914585774,19.0,19.0,32.0,43.41658669218482
129,702,13.0,109.16501271011697,9.055385138137417,15.033296378372908,37.05401462729781,40.01249804748511,23.194827009486403,60.207972893961475,45.17742799230607,38.5,29.0,23.0,3.0,34.0,16.0,2.0,17.0,18.439088914585774,18.5,16.0,29.0,38.3275357934736
130,703,7.0710678118654755,109.22453936730518,8.06225774829855,16.0312195418814,38.05259518088089,40.049968789001575,25.079872407968907,56.22277118748239,40.19950248448356,36.5,27.0,20.0,1.5,32.5,14.5,5.5,17.0,18.24828759089466,18.5,17.0,31.0,39.11521443121589
131,704,12.0,107.29864864013899,10.04987562112089,17.029386365926403,37.05401462729781,39.01281840626232,21.0,60.03332407921454,43.01162633521314,37.0,31.0,23.0,6.0,33.0,13.0,1.0,16.0,16.278820596099706,16.0,20.0,34.0,42.190046219457976
132,705,10.04987562112089,108.2266141020775,9.055385138137417,17.11724276862369,38.118237105091836,40.01249804748511,23.08679276123039,59.30430001273095,42.190046219457976,37.0,29.0,22.0,2.5,33.5,14.5,2.5,15.0,17.26267650163207,17.0,18.0,32.0,42.2965719651132
133,706,6.082762530298219,109.29318368498559,10.04987562112089,16.1245154965971,37.05401462729781,39.01281840626232,24.020824298928627,56.22277118748239,40.11234224026316,37.0,30.0,22.0,2.0,30.0,11.0,4.0,17.029386365926403,18.439088914585774,18.0,18.0,33.0,41.30375285612676
134,707,17.0,110.16351483136329,8.06225774829855,18.110770276274835,40.049968789001575,41.0,20.09975124224178,63.198101237299845,45.09988913511872,36.5,29.0,23.0,6.0,37.0,16.0,2.0,13.038404810405298,13.341664064126334,13.0,18.0,32.0,41.30375285612676
135,708,14.035668847618199,111.22050170719426,10.04987562112089,17.11724276862369,38.118237105091836,40.01249804748511,20.223748416156685,61.40032573203501,44.28317965096906,37.0,30.0,23.0,6.5,34.5,14.5,0.5,17.0,18.439088914585774,18.0,20.0,34.0,41.19465984809196
136,709,15.132745950421556,112.21853679316978,10.0,15.132745950421556,37.12142238654117,39.01281840626232,24.186773244895647,64.38167441127949,49.25444142409901,41.5,33.0,26.0,5.5,34.5,17.5,0.5,17.029386365926403,18.439088914585774,18.0,19.0,32.0,42.190046219457976
137,710,6.0,102.17631819555841,6.0,14.035668847618199,34.0147027033899,35.014282800023196,25.019992006393608,51.03920062069938,37.013511046643494,34.0,31.0,25.0,3.0,23.0,7.0,1.0,14.0,13.341664064126334,13.5,22.0,37.0,41.19465984809196
138,711,6.082762530298219,102.17631819555841,5.0990195135927845,14.035668847618199,35.05709628591621,36.013886210738214,26.019223662515376,51.03920062069938,37.013511046643494,34.0,30.0,24.0,1.0,24.0,8.0,0.0,10.0,10.44030650891055,10.5,23.0,36.0,40.19950248448356
139,712,4.0,102.07840124139877,6.0,13.0,35.0,36.0,27.018512172212592,50.00999900019995,37.013511046643494,35.0,28.0,24.0,1.0,24.0,8.0,4.0,11.0,10.44030650891055,10.0,25.0,37.0,43.104524124504614
140,713,5.0990195135927845,102.12247548899312,7.0710678118654755,13.038404810405298,33.0,34.0,26.0,51.0098029794274,38.0,35.5,30.0,25.0,1.5,23.5,7.5,2.5,14.035668847618199,14.317821063276353,14.5,24.0,37.0,41.19465984809196
141,714,3.0,96.08329719571451,5.0,14.0,30.01666203960727,31.0,29.017236257093817,51.0098029794274,37.013511046643494,35.5,33.0,29.0,2.0,20.0,4.0,0.0,12.0,11.40175425099138,11.5,25.0,36.0,40.11234224026316
142,715,1.0,98.08159868191383,6.0,14.0,32.01562118716424,32.0,29.0,50.0,36.0,35.5,33.0,29.0,2.0,19.0,2.0,1.0,14.0,14.142135623730951,14.0,24.0,36.0,39.20459156782532
143,716,1.0,99.12618221237011,8.0,16.0,29.068883707497267,31.016124838541646,27.018512172212592,52.009614495783374,36.013886210738214,35.5,34.0,29.0,4.5,20.5,2.5,0.5,9.0,8.246211251235321,8.5,25.0,37.0,42.1070065428546
144,717,1.0,99.12618221237011,9.0,17.0,31.064449134018133,33.015148038438355,26.019223662515376,53.009433122794285,36.013886210738214,35.5,35.0,30.0,6.5,20.5,2.5,0.5,9.055385138137417,8.246211251235321,8.0,26.0,37.0,40.11234224026316
145,718,1.0,99.08077512817509,6.0,15.0,32.01562118716424,33.015148038438355,30.01666203960727,52.009614495783374,37.013511046643494,36.5,35.0,31.0,3.0,19.0,2.0,0.0,12.0,9.219544457292887,9.5,25.0,35.0,40.11234224026316
146,719,5.0990195135927845,101.1236866416568,8.06225774829855,15.0,32.0624390837628,34.0147027033899,27.018512172212592,55.00909015790027,40.01249804748511,37.5,33.0,28.0,3.5,24.5,7.5,0.5,12.041594578792296,11.40175425099138,11.0,25.0,37.0,40.11234224026316
147,720,14.035668847618199,100.24470060806208,7.0710678118654755,15.033296378372908,35.12833614050059,37.05401462729781,24.020824298928627,60.03332407921454,45.0111097397076,38.0,36.0,29.0,8.5,27.5,11.5,5.5,10.0,8.246211251235321,9.0,25.0,36.0,37.12142238654117
148,721,16.0,101.1236866416568,7.0,16.0,33.06055050963308,34.0147027033899,23.021728866442675,62.00806399170998,46.010868281309364,38.0,34.0,29.0,8.5,30.5,12.5,4.5,10.04987562112089,8.246211251235321,8.5,26.0,36.0,39.11521443121589
149,722,13.0,101.07917688624102,6.0,15.0,33.06055050963308,35.014282800023196,25.079872407968907,59.033888572581766,44.04543109109048,37.5,33.0,29.0,6.0,28.0,11.0,3.0,9.0,8.54400374531753,8.5,26.0,36.0,40.11234224026316
150,723,5.0,103.07764064044152,7.0,14.0,33.015148038438355,34.0,27.018512172212592,53.009433122794285,39.01281840626232,36.5,31.0,27.0,2.0,24.0,8.0,2.0,11.045361017187261,11.180339887498949,11.0,25.0,35.0,39.11521443121589
151,724,4.0,101.07917688624102,8.0,16.0,32.01562118716424,33.0,24.020824298928627,52.009614495783374,36.013886210738214,34.0,31.0,27.0,5.0,23.0,5.0,0.0,7.0710678118654755,7.0710678118654755,7.5,25.0,36.0,38.118237105091836
152,725,2.0,100.07996802557443,6.082762530298219,13.0,33.015148038438355,33.0,26.019223662515376,47.042533945356304,34.058772731852805,33.0,31.0,27.0,3.0,18.0,3.0,0.0,8.0,8.246211251235321,8.5,26.0,36.0,41.10960958218893
153,726,2.0,101.07917688624102,7.0,14.0,33.015148038438355,34.0,26.076809620810597,49.040799340956916,35.05709628591621,34.0,30.0,26.0,2.0,21.0,4.0,2.0,8.0,7.280109889280518,7.0,24.0,35.0,39.11521443121589
154,727,6.082762530298219,102.12247548899312,5.0,14.035668847618199,33.015148038438355,34.0147027033899,26.076809620810597,51.03920062069938,37.013511046643494,34.0,31.0,26.0,2.5,22.5,6.5,0.5,7.0,8.246211251235321,8.0,24.0,35.0,41.048751503547585
155,728,13.0,102.12247548899312,7.0,14.0,33.015148038438355,35.014282800023196,23.08679276123039,57.0350769263968,43.04648650006177,36.5,33.0,28.0,7.5,26.5,10.5,3.5,8.0,7.280109889280518,7.5,23.0,35.0,41.10960958218893
156,729,16.0312195418814,105.17128885774862,7.0,14.035668847618199,36.013886210738214,37.013511046643494,24.08318915758459,61.032778078668514,47.01063709417264,39.0,32.0,26.0,5.0,32.0,15.0,1.0,8.0,8.246211251235321,8.0,21.0,35.0,39.20459156782532
157,730,16.0,103.12128781197411,8.06225774829855,17.029386365926403,34.0147027033899,37.013511046643494,21.0,62.03224967708329,45.0111097397076,37.0,33.0,28.0,9.5,31.5,12.5,4.5,12.0,11.180339887498949,11.5,21.0,35.0,38.118237105091836
158,731,14.035668847618199,104.30723848324239,9.055385138137417,17.029386365926403,35.05709628591621,36.013886210738214,21.0,61.00819617067857,44.0,37.0,33.0,25.0,8.0,32.0,13.0,2.0,9.055385138137417,7.0710678118654755,8.0,21.0,35.0,38.2099463490856
159,732,16.0,108.29589096544707,7.0710678118654755,17.029386365926403,37.05401462729781,39.01281840626232,21.02379604162864,61.07372593840988,44.04543109109048,36.0,33.0,25.0,8.0,32.0,13.0,4.0,12.0,11.180339887498949,11.0,22.0,35.0,40.311288741492746
160,733,13.038404810405298,109.29318368498559,8.06225774829855,17.029386365926403,37.12142238654117,38.05259518088089,21.02379604162864,59.033888572581766,42.01190307520001,35.5,28.0,20.0,3.0,35.0,16.0,1.0,8.0,8.246211251235321,8.5,21.0,34.0,36.345563690772494
161,734,12.0,108.2266141020775,6.0,15.0,35.014282800023196,37.013511046643494,23.08679276123039,56.0357029044876,41.048751503547585,35.0,29.0,22.0,2.5,30.5,13.5,0.5,7.0,7.280109889280518,7.5,24.0,37.0,40.19950248448356
162,735,15.0,109.37092849564732,6.0,15.0,36.05551275463989,38.05259518088089,23.08679276123039,59.033888572581766,44.04543109109048,36.5,30.0,21.0,2.5,33.5,16.5,0.5,6.0,6.324555320336759,6.5,19.0,34.0,41.19465984809196
163,736,18.0,112.28535078094559,6.0,17.029386365926403,38.05259518088089,40.01249804748511,21.095023109728988,62.07253821135398,45.044422518220834,36.0,28.0,20.0,3.0,38.0,18.0,1.0,6.0,6.324555320336759,6.0,21.0,35.0,39.11521443121589
164,737,22.0,108.2266141020775,5.0990195135927845,16.0312195418814,39.11521443121589,40.01249804748511,22.02271554554524,65.06919393998976,49.040799340956916,38.0,30.0,23.0,4.5,38.5,19.5,3.5,7.0710678118654755,8.54400374531753,8.0,20.0,34.0,38.2099463490856
165,738,23.0,110.54863183232979,5.0990195135927845,16.0312195418814,38.118237105091836,40.01249804748511,22.090722034374522,66.12110101926616,50.08991914547278,38.5,31.0,20.0,3.5,40.5,22.5,2.5,7.0710678118654755,7.280109889280518,7.0,20.0,35.0,40.311288741492746
166,739,24.020824298928627,108.37435120913067,6.0,15.033296378372908,36.124783736376884,38.05259518088089,21.213203435596427,66.18912297349165,51.15662224971465,39.0,32.0,23.0,6.5,38.5,21.5,4.5,18.027756377319946,19.4164878389476,19.5,20.0,35.0,35.22782990761707
167,740,16.0,105.23307464861035,5.0990195135927845,12.041594578792296,34.132096331752024,36.013886210738214,25.079872407968907,58.137767414994535,46.09772228646444,38.0,30.0,23.0,1.5,31.5,16.5,0.5,14.0,15.297058540778355,15.5,21.0,35.0,34.36568055487916
168,741,11.0,101.31633629380802,6.0,15.033296378372908,34.058772731852805,35.014282800023196,21.37755832643195,53.23532661682466,38.2099463490856,32.5,30.0,22.0,5.0,27.0,10.0,2.0,7.0710678118654755,7.280109889280518,7.5,22.0,35.0,39.11521443121589
169,742,7.0,104.23531071570709,10.04987562112089,18.027756377319946,36.05551275463989,38.0,19.026297590440446,54.08326913195984,36.05551275463989,32.5,29.0,22.0,6.5,28.5,7.5,0.5,5.0,5.385164807134504,5.5,21.0,36.0,39.20459156782532
170,743,7.0,101.17806086301516,8.0,17.029386365926403,37.013511046643494,38.0,21.095023109728988,53.08483775994799,36.05551275463989,32.5,29.0,23.0,5.0,27.0,7.0,0.0,6.0,6.324555320336759,6.0,21.0,35.0,36.22154055254967
171,744,0.0,94.08506789071261,7.0,14.0,32.01562118716424,32.0,27.073972741361768,48.041648597857254,34.058772731852805,34.0,32.0,28.0,3.0,18.0,2.0,1.0,8.0,8.246211251235321,8.0,19.0,33.0,39.20459156782532
172,745,1.4142135623730951,96.08329719571451,6.0,15.033296378372908,33.0,34.0,27.073972741361768,49.040799340956916,34.0147027033899,33.5,31.0,27.0,2.0,20.0,3.0,2.0,10.04987562112089,10.04987562112089,10.0,20.0,33.0,38.2099463490856
173,746,1.0,96.04686356149273,5.0,13.0,31.016124838541646,32.0,30.066592756745816,49.040799340956916,36.05551275463989,35.5,33.0,30.0,1.5,17.5,1.5,0.5,13.0,13.152946437965905,13.0,24.0,37.0,40.11234224026316
174,747,1.0,95.02105029939419,6.0,14.0,30.0,30.0,29.0,49.01020301937138,35.014282800023196,35.0,32.0,30.0,2.0,18.0,1.0,1.0,7.0710678118654755,7.280109889280518,7.0,26.0,37.0,44.10215414239989
175,748,2.0,92.02173656261873,7.0,15.033296378372908,29.017236257093817,31.0,30.01666203960727,50.0,35.014282800023196,36.0,33.0,31.0,2.0,18.0,1.0,2.0,13.0,13.341664064126334,12.5,26.0,36.0,37.12142238654117
176,749,1.0,92.04890004774636,7.0,15.0,29.0,29.017236257093817,28.071337695236398,50.08991914547278,35.12833614050059,35.0,32.0,29.0,2.5,19.5,2.5,2.5,18.027756377319946,18.24828759089466,18.0,26.0,36.0,39.11521443121589
177,750,6.082762530298219,99.08077512817509,7.0,16.0,33.0,34.0,26.019223662515376,55.036351623268054,39.05124837953327,36.0,33.0,29.0,5.0,24.0,5.0,0.0,7.0,8.246211251235321,8.5,21.0,30.0,42.04759208325728
178,751,5.385164807134504,100.04498987955368,7.0,15.0,31.0,32.0,26.1725046566048,53.23532661682466,38.3275357934736,35.5,32.0,29.0,4.5,22.5,4.5,0.5,16.0,16.1245154965971,16.5,20.0,30.0,39.20459156782532
179,752,6.082762530298219,102.04410811016969,8.0,17.029386365926403,34.0,36.013886210738214,26.019223662515376,57.07889277132134,40.049968789001575,37.0,31.0,28.0,3.5,27.5,7.5,1.5,10.0,10.04987562112089,10.5,23.0,31.0,39.11521443121589
180,753,5.0990195135927845,105.01904589168576,8.0,15.0,35.0,35.014282800023196,26.30589287593181,54.230987451824994,39.319206502675,36.5,29.0,27.0,2.0,26.0,8.0,4.0,17.029386365926403,17.11724276862369,17.5,21.0,31.0,39.05124837953327
181,754,5.385164807134504,105.01904589168576,7.0,16.0,36.0,38.01315561749642,27.073972741361768,55.14526271584895,39.20459156782532,36.5,27.0,25.0,1.0,29.0,11.0,5.0,9.0,8.06225774829855,8.5,22.0,30.0,42.1070065428546
182,755,6.082762530298219,109.04127658827184,5.0990195135927845,14.0,38.0,40.0,30.265491900843113,55.14526271584895,41.19465984809196,38.0,30.0,27.0,1.5,26.5,9.5,3.5,15.033296378372908,15.132745950421556,16.0,21.0,32.0,41.10960958218893
183,756,5.0990195135927845,108.01851693112621,5.0,14.0,37.0,38.01315561749642,31.25699921617557,55.226805085936306,41.30375285612676,38.5,30.0,28.0,2.0,26.0,9.0,4.0,9.0,9.219544457292887,10.0,21.0,31.0,39.05124837953327
184,757,2.23606797749979,103.04368005850722,8.0,17.0,37.013511046643494,38.01315561749642,27.073972741361768,54.08326913195984,37.12142238654117,36.0,30.0,27.0,1.5,25.5,5.5,2.5,8.06225774829855,8.06225774829855,9.0,21.0,30.0,41.10960958218893
185,758,4.123105625617661,100.0199980003999,6.0,15.0,34.0,36.0,28.284271247461902,53.23532661682466,38.3275357934736,36.0,36.0,34.0,7.0,18.0,0.0,3.0,14.0,15.132745950421556,15.5,21.0,30.0,39.11521443121589
186,759,3.1622776601683795,99.04544411531506,7.0,17.0,36.0,37.0,27.073972741361768,54.08326913195984,37.12142238654117,35.5,34.0,31.0,5.5,21.5,1.5,1.5,9.0,8.246211251235321,8.5,21.0,30.0,42.04759208325728
187,760,3.0,99.02019995940222,8.0,16.0,34.0,35.0,27.16615541441225,54.08326913195984,38.118237105091836,36.5,35.0,33.0,7.0,20.0,1.0,2.0,11.0,10.198039027185569,11.0,22.0,31.0,41.012193308819754
188,761,2.0,99.00505037623081,7.0,17.0,33.0,35.014282800023196,27.294688127912362,53.150729063673246,36.22154055254967,35.0,32.0,31.0,4.5,21.5,1.5,0.5,12.041594578792296,12.165525060596439,12.0,22.0,31.0,41.10960958218893
189,762,1.4142135623730951,100.00499987500625,6.0,16.0,34.0,34.0,27.16615541441225,50.15974481593781,34.23448553724738,33.5,31.0,30.0,3.5,19.5,1.5,0.5,8.0,9.055385138137417,9.0,24.0,33.0,42.1070065428546
190,763,2.23606797749979,102.04410811016969,6.0,16.0,35.0,36.0,28.160255680657446,52.15361924162119,36.22154055254967,35.0,32.0,29.0,2.5,21.5,3.5,1.5,15.033296378372908,16.278820596099706,16.0,21.0,32.0,42.1070065428546
191,764,3.1622776601683795,99.02019995940222,6.0,15.0,34.0147027033899,34.0,29.154759474226502,53.150729063673246,38.2099463490856,36.5,33.0,31.0,3.0,21.0,4.0,1.0,9.0,10.04987562112089,10.5,21.0,30.0,43.04648650006177
192,765,3.1622776601683795,104.04326023342406,8.0,15.0,35.0,36.0,27.294688127912362,53.23532661682466,38.3275357934736,36.5,32.0,29.0,3.5,22.5,5.5,1.5,16.0312195418814,16.1245154965971,16.5,22.0,30.0,38.05259518088089
193,766,7.0,110.04090148667449,9.0,15.0,36.0,38.01315561749642,25.079872407968907,56.0357029044876,41.048751503547585,37.5,29.0,26.0,2.5,28.5,10.5,3.5,12.0,13.152946437965905,13.0,19.0,28.0,43.104524124504614
194,767,8.0,106.04244433244644,10.0,16.0,34.0147027033899,36.013886210738214,24.08318915758459,58.034472514187634,42.04759208325728,38.0,32.0,29.0,6.5,27.5,8.5,0.5,13.038404810405298,14.317821063276353,14.5,20.0,29.0,44.10215414239989
195,768,12.041594578792296,108.11567878897121,10.0,16.0,35.05709628591621,37.05401462729781,26.076809620810597,64.00781202322104,48.010415536631214,42.0,32.0,27.0,3.5,34.5,16.5,2.5,14.035668847618199,15.297058540778355,15.5,17.0,27.0,43.104524124504614
196,769,10.0,106.07544484940895,7.0,15.0,34.058772731852805,36.013886210738214,28.284271247461902,60.13318551349163,45.17742799230607,40.0,31.0,27.0,1.0,31.0,14.0,3.0,14.0,13.152946437965905,14.0,20.0,30.0,42.04759208325728
197,770,6.0,111.11255554616679,8.0,15.0,37.013511046643494,39.05124837953327,27.16615541441225,56.08029957123981,41.10960958218893,38.0,31.0,26.0,1.5,27.5,10.5,3.5,15.0,16.278820596099706,16.5,19.0,30.0,41.10960958218893
198,771,8.0,105.17128885774862,7.0,15.0,34.058772731852805,35.05709628591621,26.30589287593181,56.142675390472796,41.19465984809196,37.0,32.0,26.0,3.0,27.0,10.0,1.0,14.0,14.317821063276353,15.0,16.0,30.0,42.190046219457976
199,772,2.0,104.17293314484334,7.0,13.0,33.06055050963308,34.058772731852805,26.68332812825267,48.373546489791295,35.510561809129406,34.0,32.0,26.0,3.0,19.0,5.0,1.0,12.041594578792296,13.601470508735444,13.5,20.0,34.0,42.190046219457976
200,773,1.0,103.58571330062848,7.0710678118654755,14.035668847618199,35.12833614050059,36.22154055254967,27.65863337187866,48.25971404805462,34.52535300326414,34.0,32.0,21.0,0.5,21.5,6.5,2.5,14.035668847618199,15.524174696260024,15.0,20.0,34.0,41.19465984809196
201,774,1.0,108.29589096544707,6.082762530298219,13.0,36.05551275463989,38.05259518088089,31.78049716414141,50.48762224545735,37.656340767525464,37.0,31.0,23.0,4.0,23.0,8.0,6.0,13.0,15.524174696260024,15.5,20.0,39.0,39.45883931389772
202,775,11.045361017187261,106.47065323364932,7.0,15.0,33.06055050963308,36.22154055254967,25.495097567963924,58.309518948453004,43.41658669218482,37.5,35.0,25.0,5.0,28.0,13.0,1.0,14.035668847618199,14.560219778561036,15.0,19.0,36.0,37.33630940518894
203,776,3.1622776601683795,110.45361017187261,7.0,13.038404810405298,36.124783736376884,37.21558813185679,30.4138126514911,53.23532661682466,40.44749683231337,38.5,31.0,21.0,4.0,27.0,13.0,6.0,15.033296378372908,14.317821063276353,14.5,18.0,34.0,43.289721643826724
204,777,2.0,104.38869670610895,8.0,16.0,33.13608305156178,36.22154055254967,26.68332812825267,52.3450093132096,36.49657518178932,35.0,34.0,25.0,3.5,22.5,5.5,0.5,14.0,15.811388300841896,15.5,18.0,35.0,44.40720662234904
205,778,1.4142135623730951,104.30723848324239,5.0,14.0,32.0624390837628,33.06055050963308,28.442925306655784,46.389654018972806,32.55764119219941,32.5,31.0,23.0,1.0,19.0,4.0,3.0,14.0,14.317821063276353,14.5,18.0,33.0,44.28317965096906
206,779,0.0,101.24228365658294,6.0,14.0,32.01562118716424,33.06055050963308,27.892651361962706,47.51841748206689,33.734255586866,33.0,31.0,24.0,0.5,19.5,4.5,2.5,15.0,15.297058540778355,16.0,17.0,32.0,43.18564576337837
207,780,0.0,103.31021246711285,7.0710678118654755,14.0,32.0624390837628,33.06055050963308,27.202941017470888,47.51841748206689,33.734255586866,33.0,34.0,26.0,4.0,17.0,3.0,0.0,15.033296378372908,14.317821063276353,15.0,17.0,31.0,40.311288741492746
208,781,1.4142135623730951,103.1746092796091,7.0710678118654755,14.0,32.0624390837628,33.13608305156178,26.68332812825267,48.373546489791295,34.52535300326414,33.5,33.0,27.0,4.0,18.0,4.0,0.0,15.0,16.278820596099706,16.5,17.0,32.0,41.30375285612676
209,782,1.0,102.39628899525607,6.0,14.0,32.0624390837628,33.13608305156178,26.68332812825267,45.39823785126467,31.575306807693888,31.5,33.0,24.0,2.5,16.5,1.5,0.5,15.0,15.297058540778355,15.5,19.0,34.0,41.30375285612676
210,783,4.0,104.58011283222064,6.082762530298219,13.038404810405298,35.22782990761707,36.22154055254967,26.68332812825267,49.16299421312742,36.345563690772494,34.0,35.0,24.0,3.5,19.5,5.5,1.5,14.0,14.560219778561036,14.5,19.0,34.0,42.2965719651132
211,784,3.1622776601683795,104.58011283222064,6.082762530298219,12.041594578792296,37.05401462729781,38.118237105091836,29.427877939124322,50.15974481593781,38.3275357934736,36.5,34.0,23.0,0.5,21.5,8.5,2.5,13.038404810405298,14.317821063276353,14.5,17.0,32.0,42.42640687119285
212,785,11.0,103.4842983258813,7.0710678118654755,14.035668847618199,33.06055050963308,35.12833614050059,26.476404589747453,58.077534382926416,44.181444068749045,38.5,36.0,26.0,5.0,27.0,12.0,1.0,15.0,15.524174696260024,16.0,19.0,36.0,43.41658669218482
213,786,7.0710678118654755,107.37783756436893,9.0,15.033296378372908,39.05124837953327,40.049968789001575,27.294688127912362,58.137767414994535,43.289721643826724,39.5,36.0,27.0,4.5,26.5,9.5,1.5,13.0,13.341664064126334,13.5,21.0,37.0,44.28317965096906
214,787,15.0,104.38869670610895,6.082762530298219,14.035668847618199,34.058772731852805,36.05551275463989,25.179356624028344,60.00833275470999,46.04345773288535,38.5,36.0,27.0,6.5,28.5,13.5,3.5,15.0,14.560219778561036,14.5,25.0,39.0,44.10215414239989
215,788,20.0,106.47065323364932,6.082762530298219,15.033296378372908,32.14031735997639,34.23448553724738,25.079872407968907,66.0,51.0098029794274,41.0,39.0,29.0,9.0,32.0,16.0,6.0,14.035668847618199,13.601470508735444,13.5,28.0,43.0,48.093658625644196
216,789,14.0,102.59142264341595,6.0,14.035668847618199,36.05551275463989,37.12142238654117,27.16615541441225,61.032778078668514,47.095647357266465,40.0,37.0,26.0,4.5,29.5,14.5,2.5,13.0,13.341664064126334,13.5,26.0,45.0,49.09175083453431
217,790,20.0,106.92053123698928,8.06225774829855,15.132745950421556,33.13608305156178,36.22154055254967,21.213203435596427,64.0,49.040799340956916,39.0,38.0,24.0,10.0,33.0,18.0,6.0,14.0,12.36931687685298,13.0,28.0,47.0,51.15662224971465
218,791,17.029386365926403,108.18964830333815,5.0990195135927845,14.142135623730951,34.058772731852805,36.345563690772494,24.08318915758459,60.0,46.04345773288535,37.5,37.0,21.0,5.0,31.0,17.0,3.0,12.0,11.40175425099138,12.0,25.0,47.0,45.09988913511872
219,792,12.0,110.3177229641729,6.082762530298219,14.142135623730951,33.24154027718932,35.35533905932738,26.1725046566048,58.0,44.04543109109048,38.0,36.0,19.0,1.5,30.5,16.5,0.5,12.041594578792296,12.36931687685298,12.5,25.0,48.0,49.09175083453431
220,793,18.0,112.14722466472365,7.0710678118654755,15.132745950421556,35.12833614050059,37.33630940518894,23.194827009486403,63.0,48.041648597857254,39.0,38.0,22.0,7.0,33.0,18.0,4.0,14.0,12.649110640673518,13.0,22.0,46.0,44.28317965096906
221,794,9.0,107.91200118615167,7.0710678118654755,14.142135623730951,34.36568055487916,35.35533905932738,27.16615541441225,57.0,43.04648650006177,38.5,36.0,22.0,2.0,28.0,14.0,0.0,14.035668847618199,13.601470508735444,14.0,19.0,42.0,45.17742799230607
222,795,18.0,106.6770828247567,7.0710678118654755,15.033296378372908,31.144823004794873,34.23448553724738,22.360679774997898,62.03224967708329,47.095647357266465,38.0,37.0,25.0,9.0,31.0,16.0,6.0,15.033296378372908,13.92838827718412,14.5,22.0,42.0,44.181444068749045
223,796,17.029386365926403,107.22872749408155,6.0,13.038404810405298,34.058772731852805,35.05709628591621,25.179356624028344,61.07372593840988,48.16637831516918,39.5,34.0,27.0,5.5,30.5,16.5,2.5,14.035668847618199,14.317821063276353,14.5,23.0,40.0,48.25971404805462
224,797,22.02271554554524,106.47065323364932,7.0,13.038404810405298,33.06055050963308,34.132096331752024,21.213203435596427,63.071388124885914,50.15974481593781,39.0,38.0,28.0,12.0,30.0,17.0,8.0,15.033296378372908,15.297058540778355,16.0,23.0,40.0,43.289721643826724
225,798,17.0,109.22453936730518,6.0,14.035668847618199,34.0147027033899,35.014282800023196,26.476404589747453,63.12685640834652,49.25444142409901,40.5,38.0,31.0,8.5,28.5,13.5,5.5,17.029386365926403,16.278820596099706,17.0,23.0,38.0,45.09988913511872
226,799,18.0,108.29589096544707,6.0,11.045361017187261,33.015148038438355,34.058772731852805,26.30589287593181,61.07372593840988,50.15974481593781,41.0,40.0,32.0,10.0,25.0,14.0,6.0,15.0,15.524174696260024,15.5,23.0,39.0,48.16637831516918
227,800,17.029386365926403,110.45361017187261,6.082762530298219,13.152946437965905,35.014282800023196,37.05401462729781,27.294688127912362,63.0317380372777,50.15974481593781,41.5,39.0,29.0,7.0,29.0,15.0,4.0,13.0,14.317821063276353,14.5,24.0,39.0,46.17358552246078
228,801,16.0,109.55363982999378,5.0,13.038404810405298,34.058772731852805,36.124783736376884,27.294688127912362,61.07372593840988,48.16637831516918,40.0,37.0,26.0,4.5,29.5,16.5,2.5,15.033296378372908,16.278820596099706,16.5,21.0,39.0,46.17358552246078
229,802,14.035668847618199,108.90362712049586,8.0,14.142135623730951,33.13608305156178,35.22782990761707,26.076809620810597,62.00806399170998,48.093658625644196,41.0,39.0,25.0,6.0,30.0,16.0,2.0,15.033296378372908,15.524174696260024,16.0,23.0,41.0,48.25971404805462
230,803,23.021728866442675,105.57461816175325,7.0,14.035668847618199,34.058772731852805,36.124783736376884,22.20360331117452,66.06814663663572,52.15361924162119,40.5,44.0,33.0,16.5,27.5,13.5,12.5,15.0,16.492422502470642,16.0,24.0,40.0,41.30375285612676
231,804,3.1622776601683795,103.58571330062848,8.0,15.033296378372908,31.144823004794873,33.13608305156178,28.442925306655784,54.08326913195984,39.20459156782532,37.5,40.0,29.0,6.5,19.5,3.5,2.5,17.0,18.681541692269406,18.0,23.0,40.0,43.289721643826724
232,805,1.4142135623730951,103.39245620450265,7.0710678118654755,13.038404810405298,30.066592756745816,31.144823004794873,31.25699921617557,50.08991914547278,37.21558813185679,37.5,40.0,31.0,4.5,14.5,1.5,0.5,17.0,16.492422502470642,16.5,24.0,39.0,44.28317965096906
233,806,1.4142135623730951,98.41239759298622,7.0,13.038404810405298,28.071337695236398,29.154759474226502,32.38826948140329,51.24451190127583,38.47076812334269,38.5,42.0,33.0,5.5,13.5,0.5,1.5,17.0,17.26267650163207,17.0,26.0,40.0,44.28317965096906
234,807,2.23606797749979,102.3132444994293,8.06225774829855,14.035668847618199,30.066592756745816,30.14962686336267,31.144823004794873,54.08326913195984,40.19950248448356,39.5,41.0,33.0,6.0,17.0,3.0,1.0,16.0,16.492422502470642,16.0,26.0,41.0,45.27692569068709
235,808,1.4142135623730951,101.40019723846694,8.0,14.035668847618199,28.071337695236398,30.066592756745816,32.38826948140329,53.23532661682466,39.45883931389772,39.5,41.0,32.0,4.5,16.5,2.5,0.5,16.0312195418814,16.492422502470642,16.0,26.0,41.0,48.373546489791295
236,809,4.123105625617661,105.38500842150178,10.0,15.0,30.066592756745816,33.13608305156178,28.442925306655784,57.3149195236284,42.42640687119285,40.0,38.0,29.0,5.5,23.5,8.5,1.5,17.0,16.492422502470642,16.0,28.0,42.0,46.2709412050371
237,810,11.40175425099138,112.16059914247963,7.0,13.0,32.01562118716424,33.06055050963308,26.476404589747453,57.55866572463264,44.721359549995796,38.5,32.0,26.0,3.0,28.0,15.0,1.0,15.033296378372908,14.317821063276353,14.5,24.0,38.0,45.09988913511872
238,811,17.26267650163207,122.06555615733703,5.0,13.038404810405298,34.0,36.013886210738214,25.495097567963924,60.40695324215582,47.67598976424087,38.5,28.0,24.0,1.0,34.0,20.0,2.0,15.033296378372908,16.492422502470642,16.5,23.0,40.0,47.265209192385896
239,812,18.24828759089466,123.00406497347964,6.0,14.035668847618199,34.0147027033899,36.0,25.0,62.64982043070834,49.03060268852505,39.0,25.0,26.0,1.5,36.5,20.5,3.5,14.035668847618199,14.317821063276353,15.0,23.0,39.0,45.27692569068709
240,813,6.708203932499369,118.03812943282352,6.0,12.0,34.0147027033899,35.05709628591621,31.400636936215164,55.57877292636101,43.73785545725808,40.0,25.0,28.0,4.5,28.5,13.5,8.5,15.033296378372908,15.297058540778355,16.0,23.0,38.0,48.16637831516918
241,814,3.1622776601683795,109.00458705944443,7.0,13.0,31.016124838541646,33.015148038438355,30.805843601498726,53.600373133029585,40.792156108742276,38.5,29.0,30.0,0.5,23.5,7.5,5.5,15.0,16.278820596099706,16.5,23.0,39.0,45.17742799230607
242,815,2.23606797749979,105.04284840006957,8.0,15.033296378372908,30.01666203960727,32.01562118716424,31.400636936215164,56.22277118748239,41.43669871020132,40.0,39.0,36.0,6.5,18.5,1.5,0.5,15.033296378372908,16.278820596099706,16.5,21.0,38.0,47.38143096192854
243,816,2.23606797749979,97.18538984847466,6.082762530298219,16.0312195418814,29.017236257093817,30.01666203960727,30.4138126514911,54.147945482723536,38.3275357934736,37.0,40.0,34.0,7.0,17.0,1.0,3.0,15.033296378372908,15.297058540778355,15.5,22.0,38.0,43.289721643826724
244,817,3.0,100.40418317978589,6.0,16.0,29.068883707497267,30.066592756745816,30.14962686336267,55.08175741568164,39.11521443121589,37.5,41.0,32.0,6.5,18.5,2.5,3.5,16.0312195418814,16.278820596099706,16.5,22.0,41.0,48.373546489791295
245,818,1.0,96.51942809610924,6.082762530298219,14.035668847618199,29.017236257093817,30.14962686336267,30.14962686336267,51.0098029794274,37.05401462729781,36.5,43.0,33.0,8.0,13.0,1.0,4.0,16.0312195418814,17.46424919657298,17.0,21.0,42.0,46.52956049652737
246,819,1.0,102.82509421342633,8.0,15.132745950421556,32.2490309931942,33.13608305156178,30.14962686336267,54.00925846556311,39.11521443121589,38.5,41.0,28.0,4.5,19.5,4.5,0.5,18.0,16.76305461424021,17.0,20.0,46.0,47.853944456021594
247,820,1.0,106.21205204683694,8.06225774829855,15.132745950421556,31.25699921617557,33.24154027718932,30.066592756745816,54.00925846556311,39.01281840626232,38.5,40.0,24.0,2.0,22.0,8.0,2.0,17.029386365926403,17.72004514666935,17.5,17.0,44.0,48.662100242385755
248,821,6.082762530298219,113.28283188550682,9.055385138137417,15.132745950421556,33.24154027718932,35.35533905932738,26.076809620810597,56.0357029044876,41.0,38.0,41.0,24.0,6.5,23.5,9.5,1.5,17.11724276862369,18.027756377319946,17.5,19.0,47.0,46.09772228646444
249,822,0.0,112.29425630903836,8.246211251235321,14.142135623730951,35.35533905932738,36.345563690772494,31.25699921617557,53.0,39.05124837953327,39.0,38.0,21.0,1.5,23.5,10.5,3.5,17.029386365926403,17.72004514666935,17.5,17.0,45.0,48.662100242385755
250,823,1.0,111.15754585272202,9.055385138137417,14.142135623730951,33.24154027718932,35.35533905932738,32.2490309931942,56.00892785976178,42.1070065428546,41.5,41.0,25.0,1.0,23.0,9.0,3.0,17.029386365926403,16.76305461424021,17.0,19.0,46.0,49.64876634922564
251,824,3.1622776601683795,109.77249200050075,8.06225774829855,13.152946437965905,33.13608305156178,35.35533905932738,33.24154027718932,57.0350769263968,44.181444068749045,42.5,40.0,27.0,0.5,23.5,10.5,3.5,17.029386365926403,16.492422502470642,16.5,18.0,41.0,46.52956049652737
252,825,9.055385138137417,110.8873302050329,10.0,16.1245154965971,34.058772731852805,37.21558813185679,27.16615541441225,62.03224967708329,46.17358552246078,41.5,44.0,30.0,10.0,25.0,10.0,3.0,16.0,17.26267650163207,17.5,20.0,42.0,44.553338819890925
253,826,7.0710678118654755,108.90362712049586,9.055385138137417,14.142135623730951,34.132096331752024,35.22782990761707,28.160255680657446,58.008620049092706,44.10215414239989,40.5,43.0,29.0,8.0,22.0,9.0,3.0,16.0312195418814,17.26267650163207,17.5,20.0,40.0,43.289721643826724
254,827,2.0,108.90362712049586,10.04987562112089,14.035668847618199,33.13608305156178,35.35533905932738,32.0624390837628,54.0,40.01249804748511,41.0,46.0,32.0,7.0,15.0,2.0,1.0,17.029386365926403,17.26267650163207,17.0,19.0,39.0,48.507731342539614
255,828,3.0,111.01801655587259,10.04987562112089,12.165525060596439,33.24154027718932,34.36568055487916,32.0624390837628,57.0087712549569,45.0111097397076,43.5,50.0,35.0,10.5,14.5,3.5,4.5,17.029386365926403,17.46424919657298,17.5,20.0,40.0,46.52956049652737
256,829,1.0,112.29425630903836,9.055385138137417,14.142135623730951,35.12833614050059,37.33630940518894,33.06055050963308,56.0,42.04759208325728,42.0,51.0,34.0,9.5,13.5,1.5,4.5,18.027756377319946,17.46424919657298,17.5,18.0,40.0,48.373546489791295
257,830,1.0,106.06601717798213,8.06225774829855,14.035668847618199,32.14031735997639,33.24154027718932,36.22154055254967,59.033888572581766,45.09988913511872,44.5,48.0,33.0,4.5,18.5,4.5,0.5,17.0,17.46424919657298,17.5,20.0,41.0,51.478150704935004
258,831,1.4142135623730951,104.23531071570709,8.06225774829855,14.142135623730951,27.294688127912362,28.442925306655784,34.132096331752024,55.00909015790027,41.012193308819754,41.5,47.0,31.0,5.0,16.0,4.0,1.0,18.0,18.439088914585774,18.5,22.0,44.0,50.48762224545735
259,832,16.0,105.22357150372724,7.0710678118654755,13.152946437965905,30.14962686336267,32.38826948140329,28.160255680657446,64.0,51.03920062069938,43.0,48.0,32.0,12.0,24.0,12.0,8.0,17.029386365926403,17.46424919657298,17.5,20.0,43.0,45.5411901469428
260,833,20.0,109.17875251164945,8.06225774829855,16.0312195418814,34.132096331752024,37.21558813185679,25.079872407968907,69.0,53.009433122794285,43.0,47.0,31.0,14.0,30.0,14.0,9.0,17.029386365926403,17.46424919657298,17.5,21.0,43.0,40.44749683231337
261,834,14.035668847618199,110.0272693471941,5.0990195135927845,12.041594578792296,33.13608305156178,35.35533905932738,32.01562118716424,63.0,51.0098029794274,44.0,43.0,28.0,3.5,27.5,16.5,2.5,18.027756377319946,16.492422502470642,17.0,17.0,41.0,48.373546489791295
262,835,15.033296378372908,112.00892821556681,7.0710678118654755,13.038404810405298,34.058772731852805,36.124783736376884,29.154759474226502,64.03124237432849,51.088159097779204,43.5,44.0,29.0,7.5,27.5,14.5,4.5,17.0,16.492422502470642,17.0,21.0,44.0,46.52956049652737
263,836,15.0,112.00892821556681,7.0,15.033296378372908,35.05709628591621,37.21558813185679,26.1725046566048,63.0317380372777,48.093658625644196,40.5,44.0,29.0,10.5,26.5,12.5,6.5,17.029386365926403,17.46424919657298,17.5,20.0,42.0,46.389654018972806
264,837,14.0,111.87939935484101,9.055385138137417,14.035668847618199,34.058772731852805,36.124783736376884,25.179356624028344,62.00806399170998,48.041648597857254,41.0,43.0,29.0,11.0,26.0,12.0,5.0,17.0,17.46424919657298,17.5,19.0,41.0,45.27692569068709
265,838,5.0990195135927845,112.00892821556681,8.246211251235321,13.152946437965905,35.12833614050059,37.33630940518894,31.25699921617557,57.0087712549569,44.10215414239989,41.5,42.0,27.0,3.5,22.5,9.5,0.5,18.0,16.492422502470642,17.0,18.0,40.0,50.35871324805669
266,839,7.0710678118654755,111.64676439557037,8.0,15.033296378372908,36.05551275463989,38.2099463490856,29.154759474226502,59.07622195096772,44.181444068749045,40.5,42.0,30.0,7.0,23.0,8.0,2.0,17.0,16.492422502470642,17.0,19.0,40.0,48.373546489791295
267,840,14.035668847618199,110.65260954898443,8.06225774829855,15.132745950421556,36.05551275463989,38.118237105091836,26.30589287593181,63.0317380372777,48.16637831516918,41.0,43.0,31.0,11.0,26.0,11.0,6.0,16.0,16.492422502470642,16.5,20.0,39.0,44.28317965096906
268,841,3.0,111.64676439557037,7.0,12.165525060596439,34.058772731852805,36.22154055254967,32.2490309931942,54.037024344425184,42.190046219457976,40.5,39.0,27.0,1.0,21.0,9.0,2.0,16.0312195418814,16.492422502470642,17.0,19.0,39.0,45.27692569068709
269,842,4.0,110.76551810017412,7.0710678118654755,12.041594578792296,34.132096331752024,35.35533905932738,32.2490309931942,55.036351623268054,43.104524124504614,41.0,41.0,28.0,2.5,20.5,9.5,0.5,17.0,16.278820596099706,16.5,20.0,40.0,48.25971404805462
270,843,0.0,105.57461816175325,7.0710678118654755,13.038404810405298,33.06055050963308,34.132096331752024,34.132096331752024,54.00925846556311,41.048751503547585,41.0,43.0,32.0,3.5,16.5,3.5,0.5,17.0,17.26267650163207,17.0,22.0,39.0,42.2965719651132
271,844,1.4142135623730951,100.24470060806208,8.0,14.035668847618199,32.0624390837628,33.06055050963308,30.14962686336267,53.08483775994799,39.20459156782532,38.5,43.0,36.0,9.5,13.5,1.5,4.5,16.0,16.278820596099706,16.5,21.0,38.0,42.2965719651132
272,845,0.0,100.40418317978589,10.0,16.0,31.016124838541646,33.06055050963308,29.274562336608895,55.14526271584895,39.20459156782532,39.0,46.0,37.0,12.5,13.5,2.5,5.5,16.0312195418814,17.26267650163207,17.0,21.0,37.0,40.311288741492746
273,846,2.23606797749979,96.25487000666512,8.0,16.0,30.01666203960727,31.064449134018133,30.14962686336267,56.142675390472796,40.19950248448356,39.0,46.0,39.0,12.5,13.5,2.5,6.5,17.029386365926403,16.492422502470642,16.5,22.0,35.0,42.190046219457976
274,847,5.0990195135927845,92.0869154657707,7.0,14.0,28.0178514522438,31.0,30.14962686336267,56.142675390472796,42.190046219457976,39.5,45.0,41.0,13.0,13.0,2.0,8.0,16.0,16.278820596099706,16.5,24.0,35.0,40.19950248448356
275,848,15.297058540778355,92.02173656261873,8.0,16.0,29.0,30.01666203960727,29.274562336608895,68.3593446428504,52.46903848937962,44.5,47.0,45.0,17.0,22.0,5.0,10.0,10.0,11.180339887498949,11.0,26.0,35.0,40.11234224026316
276,849,22.02271554554524,96.02083107326243,7.0,16.0312195418814,30.01666203960727,32.0,29.154759474226502,74.16872656315464,58.137767414994535,47.0,45.0,43.0,15.0,30.0,12.0,9.0,9.0,9.055385138137417,9.0,29.0,38.0,39.11521443121589
277,850,13.038404810405298,91.00549433962765,7.0,15.033296378372908,29.0,30.0,29.427877939124322,64.38167441127949,49.36598018878993,42.5,42.0,41.0,12.5,22.5,5.5,7.5,8.06225774829855,8.06225774829855,8.5,31.0,38.0,35.05709628591621
278,851,7.0710678118654755,88.02272433866155,6.0,15.033296378372908,28.0,29.017236257093817,29.427877939124322,57.42821606144492,42.42640687119285,38.5,41.0,39.0,11.0,17.0,1.0,7.0,8.06225774829855,8.06225774829855,8.5,31.0,37.0,38.05259518088089
279,852,5.0,90.0222194794152,9.055385138137417,19.026297590440446,28.0,29.017236257093817,28.160255680657446,61.204574992397426,42.190046219457976,39.5,41.0,39.0,12.0,21.0,1.0,5.0,9.055385138137417,10.198039027185569,10.0,33.0,38.0,39.05124837953327
280,853,1.0,87.05170877128145,6.082762530298219,14.035668847618199,26.0,27.018512172212592,31.064449134018133,52.15361924162119,38.118237105091836,37.5,42.0,39.0,9.5,11.5,3.5,5.5,10.0,10.198039027185569,10.0,27.0,36.0,35.05709628591621
281,854,1.0,86.05230967266364,6.0,15.033296378372908,26.0,26.019223662515376,33.24154027718932,54.147945482723536,39.11521443121589,39.0,45.0,42.0,10.5,10.5,4.5,6.5,10.0,10.04987562112089,10.0,25.0,34.0,37.12142238654117
282,855,0.0,89.08984229416954,5.0,12.041594578792296,29.0,29.0,32.14031735997639,49.16299421312742,37.12142238654117,37.0,44.0,40.0,10.0,7.0,6.0,6.0,7.0710678118654755,8.06225774829855,8.0,28.0,37.0,32.0624390837628
283,856,3.0,88.09086218218096,7.0710678118654755,16.0312195418814,26.0,27.018512172212592,31.144823004794873,57.21887800367987,41.19465984809196,39.5,45.0,41.0,12.0,14.0,2.0,6.0,3.605551275463989,4.0,4.0,29.0,37.0,35.12833614050059
284,857,3.1622776601683795,89.02246907382428,8.06225774829855,15.132745950421556,26.019223662515376,27.0,30.14962686336267,56.43580423808985,41.30375285612676,39.5,44.0,42.0,13.0,13.0,2.0,6.0,3.1622776601683795,5.0,5.0,33.0,39.0,37.12142238654117
285,858,5.0990195135927845,95.08417323613851,6.082762530298219,14.035668847618199,26.0,28.0178514522438,29.154759474226502,54.3323108288245,40.311288741492746,37.5,42.0,38.0,11.0,14.0,1.0,7.0,9.055385138137417,9.055385138137417,9.0,32.0,41.0,36.05551275463989
286,859,2.8284271247461903,99.04544411531506,12.0,17.0,29.0,30.01666203960727,24.08318915758459,55.14526271584895,38.2099463490856,37.0,44.0,41.0,18.5,12.5,4.5,7.5,9.219544457292887,9.219544457292887,8.5,32.0,40.0,33.06055050963308
287,860,7.0710678118654755,99.04544411531506,10.04987562112089,16.0312195418814,28.0,30.01666203960727,26.1725046566048,59.30430001273095,43.289721643826724,39.5,43.0,40.0,15.5,17.5,0.5,6.5,8.06225774829855,7.280109889280518,7.5,29.0,36.0,33.06055050963308
288,861,12.36931687685298,100.0199980003999,10.0,17.0,31.016124838541646,33.0,28.071337695236398,67.1863081289633,50.24937810560445,44.0,46.0,44.0,17.0,22.0,4.0,9.0,7.0710678118654755,7.280109889280518,7.0,30.0,36.0,34.058772731852805
289,862,24.08318915758459,104.00480758118829,6.082762530298219,14.0,32.01562118716424,34.0147027033899,28.0178514522438,72.11102550927978,58.137767414994535,46.0,47.0,46.0,18.5,25.5,9.5,13.5,8.06225774829855,9.055385138137417,9.0,28.0,37.0,35.12833614050059
290,863,21.095023109728988,107.0420478129973,7.0,15.0,33.0,34.0,27.018512172212592,70.06425622241343,55.08175741568164,44.5,44.0,41.0,15.5,27.5,11.5,10.5,9.055385138137417,10.04987562112089,10.0,27.0,39.0,32.0624390837628
291,864,17.11724276862369,110.16351483136329,6.0,14.035668847618199,34.0,36.013886210738214,30.14962686336267,67.11929677819934,53.23532661682466,44.5,44.0,38.0,11.0,26.0,11.0,8.0,10.198039027185569,10.198039027185569,10.0,24.0,38.0,32.2490309931942
292,865,18.027756377319946,110.3675676999362,7.0710678118654755,15.033296378372908,33.015148038438355,35.05709628591621,26.076809620810597,66.007575322837,51.03920062069938,42.0,43.0,34.0,12.5,27.5,12.5,9.5,11.045361017187261,11.40175425099138,11.0,26.0,41.0,35.35533905932738
293,866,12.041594578792296,110.2905254316979,8.0,16.0,34.0147027033899,36.05551275463989,27.16615541441225,63.12685640834652,47.16990566028302,41.0,41.0,33.0,10.0,26.0,9.0,5.0,10.04987562112089,10.44030650891055,10.5,26.0,41.0,33.24154027718932
294,867,14.035668847618199,108.2266141020775,9.0,16.0312195418814,34.0147027033899,36.05551275463989,24.331050121192877,63.12685640834652,47.265209192385896,40.0,41.0,34.0,13.5,25.5,8.5,7.5,10.04987562112089,10.44030650891055,10.5,25.0,41.0,36.6742416417845
295,868,9.055385138137417,107.16809226630845,9.0,16.0312195418814,33.015148038438355,35.014282800023196,28.071337695236398,62.03224967708329,46.09772228646444,41.5,41.0,35.0,10.0,24.0,7.0,4.0,9.055385138137417,9.219544457292887,8.5,23.0,38.0,37.33630940518894
296,869,10.04987562112089,104.17293314484334,9.0,17.029386365926403,35.014282800023196,37.013511046643494,25.019992006393608,61.00819617067857,44.04543109109048,39.0,41.0,35.0,13.0,23.0,5.0,7.0,10.04987562112089,9.219544457292887,9.5,25.0,39.0,39.20459156782532
297,870,8.0,98.12746812182611,9.0,17.0,32.01562118716424,33.06055050963308,26.076809620810597,60.03332407921454,43.04648650006177,39.0,42.0,37.0,13.5,20.5,2.5,7.5,10.0,10.198039027185569,10.5,26.0,40.0,38.2099463490856
298,871,4.0,99.18165152889924,10.0,16.0312195418814,31.064449134018133,32.0624390837628,27.018512172212592,57.0,41.012193308819754,39.0,42.0,36.0,12.0,18.0,1.0,5.0,8.06225774829855,8.246211251235321,8.5,23.0,38.0,39.20459156782532
299,872,4.123105625617661,97.25224933131366,8.06225774829855,16.0312195418814,30.066592756745816,32.01562118716424,28.071337695236398,56.00892785976178,40.049968789001575,38.0,44.0,37.0,12.5,15.5,0.5,6.5,10.04987562112089,10.198039027185569,10.5,23.0,38.0,34.23448553724738
300,873,2.23606797749979,95.25754563287887,10.0,16.0312195418814,29.017236257093817,31.016124838541646,29.068883707497267,57.0350769263968,41.10960958218893,40.0,47.0,40.0,14.5,13.5,2.5,6.5,11.045361017187261,11.40175425099138,11.0,26.0,41.0,35.6931365951495
301,874,3.1622776601683795,97.32933781753577,9.0,18.027756377319946,29.068883707497267,30.066592756745816,30.01666203960727,60.00833275470999,42.04759208325728,40.5,47.0,39.0,13.0,17.0,1.0,6.0,10.198039027185569,9.486832980505138,9.0,23.0,39.0,43.41658669218482
302,875,3.1622776601683795,94.33981132056604,9.055385138137417,17.029386365926403,29.068883707497267,30.066592756745816,31.064449134018133,60.00833275470999,43.04648650006177,41.5,47.0,39.0,12.0,17.0,0.0,6.0,12.041594578792296,11.180339887498949,11.0,23.0,39.0,39.6232255123179
303,876,5.0,90.44888059008801,9.0,17.029386365926403,28.071337695236398,31.064449134018133,30.0,61.00819617067857,44.0,41.5,48.0,39.0,13.5,17.5,0.5,7.5,11.045361017187261,10.198039027185569,10.5,25.0,41.0,42.42640687119285
304,877,3.0,97.32933781753577,10.0,17.029386365926403,32.0624390837628,34.058772731852805,31.016124838541646,61.0,44.01136216933077,42.5,47.0,39.0,12.0,18.0,1.0,5.0,13.0,12.36931687685298,12.5,25.0,39.0,36.124783736376884
305,878,4.123105625617661,96.42095207992918,6.082762530298219,14.035668847618199,32.0624390837628,33.06055050963308,35.05709628591621,59.00847396772772,45.044422518220834,43.0,47.0,38.0,7.5,16.5,2.5,4.5,13.0,13.341664064126334,14.0,25.0,40.0,38.3275357934736
306,879,11.045361017187261,101.31633629380802,9.0,17.029386365926403,32.0,33.015148038438355,27.0,64.0,47.01063709417264,41.5,45.0,37.0,14.0,23.0,5.0,7.0,12.0,11.40175425099138,12.0,23.0,39.0,37.21558813185679
307,880,12.041594578792296,106.23088063270491,7.0,17.029386365926403,33.015148038438355,36.013886210738214,29.017236257093817,65.00769185258002,48.041648597857254,42.0,43.0,36.0,10.5,25.5,7.5,5.5,12.041594578792296,11.180339887498949,11.5,26.0,39.0,34.36568055487916
308,881,3.1622776601683795,105.30432089900205,7.0,16.0312195418814,31.064449134018133,33.06055050963308,34.058772731852805,60.03332407921454,44.10215414239989,42.5,43.0,35.0,5.0,21.0,5.0,1.0,11.045361017187261,10.198039027185569,10.0,25.0,38.0,36.22154055254967
309,882,2.23606797749979,105.38500842150178,10.0,16.1245154965971,32.0624390837628,34.132096331752024,31.144823004794873,59.033888572581766,43.18564576337837,42.0,44.0,35.0,8.5,19.5,3.5,1.5,12.0,11.180339887498949,11.0,27.0,38.0,36.22154055254967
310,883,2.0,107.22872749408155,10.0,15.033296378372908,31.064449134018133,34.058772731852805,31.25699921617557,58.077534382926416,43.18564576337837,42.0,42.0,35.0,7.5,19.5,3.5,0.5,11.0,12.165525060596439,12.0,26.0,37.0,37.05401462729781
311,884,3.1622776601683795,105.47511554864494,9.0,16.0312195418814,31.064449134018133,33.06055050963308,27.16615541441225,55.08175741568164,39.20459156782532,37.5,40.0,30.0,8.0,20.0,3.0,2.0,12.0,10.198039027185569,10.5,28.0,39.0,36.124783736376884
312,885,1.0,104.47966309287182,7.0,14.035668847618199,32.14031735997639,33.13608305156178,31.25699921617557,53.08483775994799,39.20459156782532,38.5,42.0,32.0,6.0,16.0,2.0,3.0,11.045361017187261,11.180339887498949,10.5,27.0,38.0,37.12142238654117
313,886,1.0,105.47511554864494,9.0,15.0,32.0624390837628,33.13608305156178,33.13608305156178,56.08029957123981,41.10960958218893,41.5,43.0,33.0,5.0,18.0,2.0,0.0,12.0,11.180339887498949,11.0,27.0,40.0,39.20459156782532
314,887,1.4142135623730951,107.56393447619885,9.0,16.0312195418814,31.064449134018133,33.06055050963308,31.25699921617557,55.14526271584895,39.319206502675,39.5,42.0,31.0,5.5,18.5,2.5,0.5,12.0,11.180339887498949,11.5,26.0,39.0,39.20459156782532
315,888,2.23606797749979,106.56922632730333,7.0,15.132745950421556,32.14031735997639,33.24154027718932,34.058772731852805,58.008620049092706,43.104524124504614,42.0,42.0,31.0,2.5,21.5,6.5,0.5,12.0,11.40175425099138,11.0,26.0,41.0,41.19465984809196
316,889,10.04987562112089,108.55873986004075,9.055385138137417,16.0312195418814,33.06055050963308,35.12833614050059,27.018512172212592,62.0,46.010868281309364,41.0,41.0,30.0,8.5,26.5,10.5,2.5,12.041594578792296,11.40175425099138,11.5,24.0,38.0,41.19465984809196
317,890,4.47213595499958,107.46627377926528,11.0,17.11724276862369,34.132096331752024,36.124783736376884,27.018512172212592,59.00847396772772,42.1070065428546,40.0,40.0,30.0,8.0,24.0,7.0,1.0,12.041594578792296,12.165525060596439,11.5,23.0,36.0,40.19950248448356
318,891,2.23606797749979,109.37092849564732,7.0,15.033296378372908,34.058772731852805,35.05709628591621,31.064449134018133,55.036351623268054,40.11234224026316,39.0,37.0,28.0,1.5,22.5,7.5,1.5,12.0,11.180339887498949,11.5,23.0,37.0,38.118237105091836
319,892,3.1622776601683795,109.37092849564732,8.0,16.0,35.014282800023196,36.05551275463989,30.14962686336267,57.14017850864661,41.19465984809196,39.5,38.0,29.0,3.5,23.5,7.5,1.5,12.0,10.198039027185569,11.0,27.0,39.0,37.05401462729781
320,893,0.0,108.37435120913067,8.0,15.033296378372908,32.0624390837628,33.13608305156178,32.14031735997639,55.036351623268054,40.11234224026316,40.0,37.0,28.0,0.5,22.5,7.5,4.5,13.0,13.341664064126334,13.5,30.0,42.0,43.01162633521314
321,894,4.0,108.46197490364999,8.0,15.0,34.058772731852805,36.22154055254967,31.25699921617557,58.137767414994535,43.18564576337837,41.0,37.0,27.0,1.0,26.0,11.0,3.0,14.035668847618199,13.152946437965905,14.0,33.0,47.0,48.093658625644196
322,895,1.0,106.47065323364932,10.0,18.027756377319946,32.0624390837628,33.13608305156178,30.265491900843113,59.07622195096772,41.19465984809196,40.5,41.0,31.0,6.0,23.0,5.0,1.0,15.033296378372908,14.317821063276353,15.0,36.0,49.0,50.08991914547278
323,896,1.0,102.59142264341595,8.0,16.0,30.066592756745816,31.064449134018133,31.144823004794873,54.08326913195984,38.118237105091836,38.5,40.0,29.0,3.5,19.5,3.5,0.5,15.033296378372908,13.152946437965905,14.0,36.0,49.0,50.039984012787215
324,897,10.198039027185569,104.6900186264192,7.0,13.0,29.017236257093817,31.144823004794873,33.37663853655727,63.387695966961914,50.48762224545735,45.0,45.0,33.0,6.0,24.0,12.0,1.0,16.0312195418814,15.524174696260024,15.5,36.0,50.0,47.095647357266465
325,898,0.0,102.70345661174214,11.0,15.0,31.064449134018133,33.24154027718932,31.144823004794873,57.07889277132134,42.1070065428546,42.0,46.0,34.0,9.0,17.0,3.0,1.0,14.0,14.560219778561036,14.5,33.0,50.0,48.25971404805462
326,899,1.0,105.80170130957252,10.04987562112089,15.033296378372908,30.066592756745816,31.400636936215164,31.144823004794873,56.0357029044876,41.10960958218893,41.0,43.0,30.0,5.5,19.5,5.5,1.5,15.0,14.560219778561036,14.0,32.0,51.0,48.507731342539614
327,900,2.23606797749979,109.65856099730654,14.0,17.0,32.0624390837628,33.13608305156178,27.0,60.00833275470999,43.01162633521314,42.0,41.0,29.0,8.0,25.0,8.0,3.0,15.033296378372908,13.341664064126334,14.0,33.0,52.0,45.27692569068709
328,901,5.0,105.80170130957252,8.0,14.035668847618199,33.13608305156178,35.22782990761707,31.016124838541646,58.0,44.01136216933077,41.5,41.0,28.0,3.5,23.5,9.5,0.5,12.0,12.36931687685298,12.5,32.0,51.0,46.17358552246078
329,902,11.180339887498949,104.80935072788114,9.055385138137417,16.1245154965971,33.06055050963308,34.132096331752024,25.019992006393608,61.0,45.044422518220834,39.5,41.0,28.0,9.5,26.5,10.5,3.5,5.0990195135927845,5.385164807134504,5.5,32.0,53.0,46.17358552246078
330,903,16.0312195418814,103.24727599312246,8.0,16.1245154965971,30.066592756745816,32.2490309931942,25.019992006393608,65.0,49.040799340956916,41.0,45.0,29.0,12.0,28.0,13.0,7.0,5.385164807134504,5.830951894845301,5.5,37.0,58.0,48.373546489791295
331,904,20.0,103.58571330062848,9.055385138137417,15.297058540778355,31.25699921617557,34.36568055487916,22.02271554554524,66.06814663663572,51.0,41.0,51.0,28.0,17.5,26.5,12.5,12.5,5.830951894845301,5.830951894845301,5.0,32.0,60.0,50.635955604688654
332,906,21.02379604162864,109.38464243210744,9.219544457292887,17.46424919657298,31.400636936215164,33.734255586866,21.095023109728988,68.59300255857006,51.24451190127583,40.5,52.0,25.0,17.5,29.5,14.5,12.5,12.165525060596439,12.083045973594572,11.5,30.0,66.0,50.99019513592785
333,907,19.026297590440446,111.12605455067681,10.44030650891055,16.492422502470642,32.38826948140329,34.713109915419565,21.02379604162864,66.61080993352356,50.24937810560445,40.5,51.0,21.0,15.0,30.0,16.0,10.0,13.152946437965905,12.083045973594572,12.0,30.0,66.0,49.47726750741192
334,908,24.020824298928627,109.7679370308106,9.219544457292887,17.46424919657298,32.55764119219941,33.95585369269929,21.095023109728988,71.56814934033156,54.230987451824994,42.0,56.0,24.0,19.0,31.0,16.0,15.0,11.40175425099138,12.083045973594572,11.5,29.0,66.0,50.21951811795888
335,909,29.017236257093817,110.16351483136329,8.54400374531753,17.46424919657298,32.55764119219941,34.713109915419565,20.024984394500787,74.54528824815154,57.21887800367987,42.5,56.0,26.0,21.0,33.0,18.0,17.0,13.341664064126334,13.92838827718412,13.0,28.0,66.0,51.419840528729765
336,910,28.0178514522438,108.52188719332152,9.219544457292887,17.46424919657298,34.52535300326414,35.90264614203248,19.1049731745428,73.55270219373317,56.22277118748239,42.0,57.0,26.0,22.5,31.5,16.5,18.5,13.341664064126334,13.416407864998739,13.0,29.0,65.0,48.83646178829912
337,911,22.02271554554524,109.38464243210744,9.219544457292887,15.524174696260024,31.400636936215164,33.734255586866,24.020824298928627,70.45565981523414,55.14526271584895,44.0,56.0,29.0,18.5,27.5,14.5,13.5,14.317821063276353,13.92838827718412,14.0,31.0,60.0,51.62363799656123
338,912,16.0,106.23088063270491,8.246211251235321,15.297058540778355,30.59411708155671,32.01562118716424,27.16615541441225,66.48308055437865,51.24451190127583,43.0,53.0,27.0,13.0,26.0,13.0,10.0,11.40175425099138,11.180339887498949,11.0,30.0,63.0,51.78802950489621
339,913,20.024984394500787,107.28000745712129,9.055385138137417,16.278820596099706,28.442925306655784,30.4138126514911,26.1725046566048,71.449282711585,55.226805085936306,45.0,53.0,31.0,16.0,29.0,14.0,11.0,17.11724276862369,15.811388300841896,15.5,36.0,61.0,55.326304774492215
340,914,28.0178514522438,107.07940978544848,7.0710678118654755,15.132745950421556,31.25699921617557,33.37663853655727,23.08679276123039,73.24616030891995,58.137767414994535,44.0,55.0,34.0,21.5,28.5,14.5,18.5,14.142135623730951,13.92838827718412,13.5,34.0,57.0,48.16637831516918
341,915,28.0178514522438,106.96261028976434,7.0710678118654755,15.297058540778355,29.614185789921695,31.575306807693888,24.08318915758459,74.33034373659252,59.135437767890075,45.0,59.0,34.0,22.5,27.5,14.5,20.5,11.40175425099138,11.704699910719626,11.5,26.0,59.0,48.05205510693585
342,916,25.0,105.75916035975324,5.0990195135927845,13.341664064126334,29.427877939124322,30.805843601498726,30.066592756745816,73.24616030891995,60.07495318350236,47.5,59.0,35.0,17.0,26.0,16.0,15.0,11.704699910719626,12.649110640673518,12.0,23.0,55.0,50.21951811795888
343,917,30.0,109.14210919713803,5.0990195135927845,15.524174696260024,30.4138126514911,32.7566787083184,24.020824298928627,74.24284477308234,59.033888572581766,44.0,57.0,31.0,20.0,30.0,17.0,19.0,9.848857801796104,11.180339887498949,10.0,20.0,54.0,46.32493928760188
344,918,23.0,109.63576058932597,4.242640687119285,11.704699910719626,31.575306807693888,34.20526275297414,30.066592756745816,67.60177512462228,56.22277118748239,44.5,55.0,27.0,11.0,26.0,18.0,13.0,11.704699910719626,10.770329614269007,10.5,15.0,52.0,50.44799302251776
345,919,25.0,110.60289327137876,7.280109889280518,15.811388300841896,33.54101966249684,37.107950630558946,24.08318915758459,71.56814934033156,56.142675390472796,43.5,55.0,27.0,17.0,30.0,18.0,15.0,10.44030650891055,9.848857801796104,10.0,18.0,55.0,46.57252408878007
346,920,27.0,108.90821823902914,4.47213595499958,12.36931687685298,31.575306807693888,32.7566787083184,25.079872407968907,68.3593446428504,56.142675390472796,42.5,52.0,27.0,14.5,28.5,18.5,14.5,11.704699910719626,12.649110640673518,12.0,16.0,53.0,49.72926703662542
347,921,28.0,109.14210919713803,5.385164807134504,14.560219778561036,33.54101966249684,35.6931365951495,24.020824298928627,71.34423592694787,57.07889277132134,43.0,56.0,30.0,19.0,28.0,17.0,18.0,11.40175425099138,12.083045973594572,11.5,17.0,51.0,46.09772228646444
348,922,25.0,112.17842929904127,7.280109889280518,15.297058540778355,32.38826948140329,35.35533905932738,23.08679276123039,70.06425622241343,55.0,42.5,52.0,30.0,18.0,29.0,15.0,15.0,11.40175425099138,11.704699910719626,11.0,20.0,48.0,44.91102314577124
349,923,23.0,111.15754585272202,7.0,15.132745950421556,32.14031735997639,35.22782990761707,20.024984394500787,65.00769185258002,50.00999900019995,38.5,46.0,30.0,18.0,27.0,13.0,14.0,11.180339887498949,10.44030650891055,10.0,25.0,45.0,42.579337712087536
350,924,8.246211251235321,111.64676439557037,7.0,14.035668847618199,32.14031735997639,33.24154027718932,31.016124838541646,60.03332407921454,46.09772228646444,42.0,42.0,30.0,5.0,24.0,11.0,2.0,9.219544457292887,10.198039027185569,10.0,25.0,38.0,48.25971404805462
351,925,17.029386365926403,110.22250223978767,9.0,16.0,33.015148038438355,34.0147027033899,24.331050121192877,66.18912297349165,50.24937810560445,41.5,41.0,34.0,13.5,28.5,12.5,7.5,11.0,10.04987562112089,11.0,31.0,40.0,47.042533945356304
352,926,9.219544457292887,113.1591799192624,5.0,14.035668847618199,31.016124838541646,32.0624390837628,31.144823004794873,59.30430001273095,45.27692569068709,40.5,38.0,32.0,4.0,24.0,10.0,2.0,10.04987562112089,10.04987562112089,10.5,33.0,37.0,48.0
353,927,9.219544457292887,112.21853679316978,7.0,15.033296378372908,31.064449134018133,31.064449134018133,32.2490309931942,63.198101237299845,48.373546489791295,43.5,41.0,34.0,5.5,25.5,10.5,1.5,10.0,9.055385138137417,10.0,32.0,36.0,49.0
354,928,10.198039027185569,111.11255554616679,6.082762530298219,13.0,31.0,33.015148038438355,33.06055050963308,62.20128616033595,49.25444142409901,44.0,40.0,35.0,4.5,24.5,11.5,0.5,9.0,9.055385138137417,9.5,31.0,35.0,47.01063709417264
355,929,12.165525060596439,111.16204388189342,7.0,14.035668847618199,31.016124838541646,32.0624390837628,28.284271247461902,61.204574992397426,47.38143096192854,41.0,40.0,34.0,9.0,24.0,9.0,4.0,11.045361017187261,10.198039027185569,11.0,33.0,39.0,51.0098029794274
356,930,14.142135623730951,108.11567878897121,7.0,14.035668847618199,32.01562118716424,33.015148038438355,26.1725046566048,61.1310068623117,47.265209192385896,40.0,39.0,34.0,10.5,24.5,10.5,5.5,9.055385138137417,8.06225774829855,9.5,31.0,38.0,47.042533945356304
357,931,20.024984394500787,108.2266141020775,8.0,15.033296378372908,32.01562118716424,34.058772731852805,25.317977802344327,68.11754546370561,53.23532661682466,43.0,43.0,36.0,14.5,28.5,13.5,8.5,11.0,10.04987562112089,10.5,31.0,39.0,44.10215414239989
358,932,20.223748416156685,104.12012293500234,5.0,14.0,30.01666203960727,31.064449134018133,29.154759474226502,68.26419266350405,54.3323108288245,44.0,42.0,37.0,10.5,28.5,13.5,8.5,11.045361017187261,11.045361017187261,11.5,30.0,37.0,47.01063709417264
359,933,29.068883707497267,107.07474025184464,8.0,16.0,31.0,33.0,21.37755832643195,74.24284477308234,58.309518948453004,43.5,44.0,40.0,21.0,32.0,15.0,15.0,11.045361017187261,12.165525060596439,12.5,33.0,39.0,45.044422518220834
360,934,31.064449134018133,107.0420478129973,7.0710678118654755,15.0,32.01562118716424,33.015148038438355,21.37755832643195,74.33034373659252,59.413803110051795,43.5,43.0,40.0,20.5,32.5,15.5,15.5,9.055385138137417,10.04987562112089,10.0,32.0,37.0,40.01249804748511
361,935,30.14962686336267,108.04165863221463,6.0,16.0,31.0,32.0,22.561028345356956,74.43117626371358,58.54912467321779,43.0,42.0,39.0,18.5,33.5,16.5,14.5,12.0,12.165525060596439,12.5,34.0,38.0,44.04543109109048
362,936,31.144823004794873,111.00450441310929,6.0,15.033296378372908,31.016124838541646,34.0147027033899,23.345235059857504,75.4254598925323,60.40695324215582,44.5,40.0,39.0,16.5,35.5,18.5,12.5,12.0,12.041594578792296,12.5,36.0,38.0,46.0
363,937,23.08679276123039,107.0,5.0990195135927845,14.035668847618199,29.017236257093817,31.0,30.14962686336267,72.3394774656273,58.309518948453004,46.5,40.0,40.0,10.0,32.0,17.0,7.0,11.045361017187261,11.045361017187261,12.0,36.0,36.0,48.010415536631214
364,938,28.071337695236398,110.00454536063498,8.06225774829855,16.0312195418814,32.01562118716424,35.0,23.769728648009426,75.66372975210778,59.682493245507096,45.0,41.0,42.0,18.5,33.5,15.5,11.5,11.0,11.0,11.5,36.0,35.0,42.01190307520001
365,939,26.1725046566048,112.04017136723775,7.0710678118654755,16.0,32.0624390837628,34.058772731852805,24.515301344262525,73.55270219373317,57.706152185014034,44.0,39.0,42.0,16.5,32.5,15.5,10.5,10.0,10.04987562112089,10.5,38.0,34.0,41.048751503547585
366,940,28.160255680657446,111.16204388189342,6.082762530298219,17.029386365926403,34.132096331752024,36.124783736376884,23.53720459187964,74.67261881037788,57.706152185014034,43.0,37.0,43.0,17.0,34.0,15.0,11.0,11.045361017187261,10.0,10.5,39.0,33.0,43.01162633521314
367,941,25.317977802344327,106.30145812734649,8.06225774829855,17.11724276862369,32.0624390837628,34.132096331752024,21.840329667841555,72.18032973047436,55.10898293381942,41.5,34.0,42.0,17.0,33.0,14.0,10.0,10.04987562112089,10.0,10.5,41.0,34.0,44.04543109109048
368,942,27.16615541441225,110.3675676999362,8.06225774829855,16.1245154965971,33.13608305156178,36.124783736376884,23.08679276123039,74.14849964766651,58.05170109479997,43.5,36.0,45.0,18.5,32.5,13.5,11.5,11.045361017187261,11.0,11.5,42.0,33.0,48.041648597857254
369,943,24.331050121192877,109.45775440780794,8.246211251235321,15.297058540778355,33.13608305156178,35.22782990761707,22.80350850198276,70.61161377563892,55.31726674375732,42.0,33.0,43.0,16.0,31.0,13.0,8.0,12.165525060596439,12.0,12.5,44.0,32.0,45.09988913511872
370,944,22.360679774997898,113.28283188550682,9.055385138137417,16.1245154965971,34.132096331752024,36.124783736376884,23.08679276123039,70.40596565632774,54.3415126767741,42.0,33.0,41.0,15.0,32.0,13.0,7.0,11.045361017187261,10.04987562112089,10.5,42.0,32.0,46.09772228646444
371,945,24.186773244895647,108.46197490364999,8.246211251235321,16.278820596099706,32.14031735997639,33.24154027718932,21.840329667841555,70.40596565632774,54.12947441089743,41.0,32.0,42.0,16.0,32.0,13.0,9.0,8.06225774829855,7.0710678118654755,7.5,43.0,30.0,49.16299421312742
372,946,22.360679774997898,110.3675676999362,7.280109889280518,14.317821063276353,32.14031735997639,34.23448553724738,21.840329667841555,65.73431371817918,51.419840528729765,39.0,31.0,40.0,14.5,28.5,11.5,7.5,2.23606797749979,4.123105625617661,4.0,44.0,30.0,47.265209192385896
373,947,19.4164878389476,108.29589096544707,8.246211251235321,15.297058540778355,32.14031735997639,34.23448553724738,24.041630560342615,66.94027188471824,51.66236541235796,40.5,31.0,39.0,12.0,30.0,12.0,5.0,3.1622776601683795,5.0990195135927845,5.0,42.0,30.0,43.18564576337837
374,948,24.186773244895647,105.17128885774862,5.0990195135927845,12.165525060596439,30.066592756745816,31.144823004794873,24.515301344262525,65.92419889539804,53.75872022286245,41.0,31.0,37.0,10.0,31.0,17.0,5.0,6.082762530298219,7.0710678118654755,7.5,40.0,29.0,42.42640687119285
375,949,24.186773244895647,106.1178590059185,8.06225774829855,16.1245154965971,32.0624390837628,33.06055050963308,23.08679276123039,71.19691004531025,55.10898293381942,42.0,34.0,39.0,14.5,33.5,15.5,7.5,10.04987562112089,10.04987562112089,10.5,42.0,31.0,43.41658669218482
376,950,24.515301344262525,108.2266141020775,6.082762530298219,14.142135623730951,32.14031735997639,34.058772731852805,24.73863375370596,69.42621983083913,55.31726674375732,42.0,33.0,40.0,12.5,31.5,15.5,6.5,11.180339887498949,11.045361017187261,11.5,39.0,28.0,41.30375285612676
377,951,16.492422502470642,106.1178590059185,9.055385138137417,13.038404810405298,33.0,35.014282800023196,24.515301344262525,62.96824596572466,50.00999900019995,41.0,31.0,36.0,9.5,28.5,13.5,2.5,12.165525060596439,11.0,11.5,38.0,27.0,45.39823785126467
378,952,11.40175425099138,104.17293314484334,7.0710678118654755,12.165525060596439,31.064449134018133,33.015148038438355,27.892651361962706,58.463663928973865,46.32493928760188,39.5,29.0,35.0,5.0,25.0,10.0,0.0,12.041594578792296,12.0,12.0,38.0,27.0,43.18564576337837
379,953,7.280109889280518,107.22872749408155,7.0710678118654755,14.142135623730951,35.05709628591621,37.12142238654117,29.732137494637012,57.97413216254298,43.965895873961216,38.5,31.0,38.0,6.5,21.5,3.5,1.5,11.180339887498949,11.0,12.0,37.0,27.0,42.2965719651132
380,954,4.242640687119285,108.46197490364999,10.04987562112089,19.235384061671343,36.124783736376884,37.12142238654117,27.51363298439521,60.166435825965294,41.10960958218893,37.5,31.0,41.0,10.0,22.0,0.0,1.0,11.180339887498949,12.0,12.5,39.0,28.0,44.28317965096906
381,955,7.615773105863909,104.38869670610895,8.06225774829855,16.278820596099706,33.13608305156178,34.132096331752024,28.460498941515414,60.166435825965294,43.965895873961216,38.5,34.0,43.0,11.5,19.5,0.5,4.5,12.165525060596439,12.0,13.0,38.0,26.0,45.27692569068709
382,956,5.830951894845301,104.30723848324239,8.06225774829855,15.297058540778355,30.14962686336267,32.14031735997639,31.04834939252005,59.90826320300064,44.64302857109943,40.5,38.0,46.0,12.0,16.0,1.0,4.0,13.152946437965905,13.0,13.5,37.0,25.0,45.17742799230607
383,957,3.1622776601683795,101.24228365658294,9.055385138137417,14.142135623730951,28.160255680657446,30.066592756745816,34.713109915419565,59.43904440685432,45.35416188179427,43.5,39.0,46.0,8.5,15.5,0.5,0.5,14.142135623730951,15.0,15.5,37.0,25.0,42.190046219457976
384,958,3.605551275463989,103.1746092796091,9.219544457292887,15.132745950421556,29.017236257093817,31.064449134018133,33.734255586866,61.39218191268331,46.32493928760188,43.5,37.0,43.0,7.0,20.0,4.0,1.0,16.1245154965971,15.0,15.5,38.0,28.0,40.19950248448356
385,959,16.278820596099706,105.23307464861035,6.324555320336759,14.142135623730951,33.13608305156178,35.05709628591621,31.78049716414141,68.4470598345904,54.3415126767741,45.0,38.0,45.0,10.5,25.5,8.5,4.5,14.142135623730951,14.0,14.5,35.0,27.0,42.190046219457976
386,960,23.194827009486403,107.11675872616759,8.246211251235321,15.132745950421556,32.0624390837628,35.05709628591621,25.0,71.386273190299,56.293871780150276,43.5,36.0,41.0,14.5,31.5,14.5,7.5,15.132745950421556,15.0,15.5,36.0,29.0,42.190046219457976
387,961,21.213203435596427,109.1146186356347,7.280109889280518,14.142135623730951,33.06055050963308,36.05551275463989,26.248809496813376,68.65857557508748,54.57105459856901,42.5,35.0,40.0,12.5,29.5,13.5,6.5,15.033296378372908,15.0,15.5,36.0,28.0,44.40720662234904
388,962,23.08679276123039,107.16809226630845,9.055385138137417,16.278820596099706,33.015148038438355,36.05551275463989,23.08679276123039,71.19691004531025,54.91812087098393,42.5,35.0,41.0,16.0,32.0,15.0,8.0,16.278820596099706,16.0,16.0,36.0,29.0,39.20459156782532
389,963,8.54400374531753,107.11675872616759,5.0990195135927845,14.142135623730951,31.016124838541646,33.06055050963308,34.92849839314596,62.5859409132754,48.507731342539614,43.0,36.0,41.0,4.5,22.5,6.5,1.5,14.035668847618199,15.0,15.0,36.0,28.0,43.18564576337837
390,964,2.0,103.07764064044152,9.055385138137417,14.142135623730951,30.01666203960727,32.01562118716424,32.984845004941285,56.515484603779164,42.44997055358225,41.0,38.0,42.0,8.0,15.0,1.0,0.0,15.132745950421556,14.0,14.5,34.0,27.0,45.17742799230607
391,965,2.8284271247461903,103.01941564578979,7.0710678118654755,13.152946437965905,28.0178514522438,30.0,32.984845004941285,55.54277630799526,42.44997055358225,40.0,38.0,40.0,7.0,15.0,1.0,2.0,6.082762530298219,7.0710678118654755,7.0,37.0,30.0,41.10960958218893
392,966,3.1622776601683795,96.02083107326243,7.0710678118654755,14.035668847618199,28.0178514522438,29.017236257093817,32.7566787083184,55.31726674375732,41.48493702538308,39.5,36.0,38.0,5.0,17.0,2.0,0.0,5.0,6.0,6.0,38.0,32.0,39.11521443121589
393,967,7.280109889280518,102.0196059588548,7.0710678118654755,13.152946437965905,29.017236257093817,30.01666203960727,31.25699921617557,58.69412236331676,45.5411901469428,41.5,36.0,38.0,6.0,21.0,6.0,1.0,5.0,6.0,6.0,38.0,33.0,40.11234224026316
394,968,3.605551275463989,102.00490184299969,10.04987562112089,15.033296378372908,28.0178514522438,29.0,32.38826948140329,54.74486277268398,39.81205847478876,40.5,39.0,40.0,7.5,14.5,1.5,0.5,7.0,7.0,7.5,36.0,32.0,42.1070065428546
395,969,6.082762530298219,98.00510190801293,7.0710678118654755,15.033296378372908,27.018512172212592,28.0178514522438,31.400636936215164,59.53990258641679,44.553338819890925,41.0,41.0,40.0,9.5,18.5,2.5,4.5,11.0,11.045361017187261,10.5,37.0,36.0,47.042533945356304
396,970,4.123105625617661,100.00499987500625,6.082762530298219,14.035668847618199,29.0,31.0,31.25699921617557,55.44366510251645,41.43669871020132,39.0,40.0,39.0,8.5,15.5,0.5,4.5,11.045361017187261,9.055385138137417,10.0,37.0,34.0,42.04759208325728
397,971,2.8284271247461903,100.00499987500625,7.0,15.033296378372908,29.0,30.0,31.575306807693888,55.731499172371095,40.792156108742276,39.0,40.0,39.0,8.5,15.5,0.5,3.5,10.04987562112089,9.055385138137417,10.0,34.0,33.0,44.04543109109048
398,972,2.23606797749979,102.00490184299969,8.06225774829855,15.033296378372908,28.0178514522438,30.0,30.4138126514911,55.57877292636101,40.607881008493905,39.0,37.0,36.0,6.5,18.5,2.5,0.5,11.045361017187261,12.165525060596439,12.5,37.0,35.0,44.01136216933077
399,973,1.0,100.00499987500625,7.0710678118654755,15.132745950421556,30.01666203960727,31.016124838541646,30.59411708155671,52.952809179494906,37.8549864614954,37.0,36.0,35.0,5.5,16.5,0.5,0.5,11.0,11.180339887498949,11.5,33.0,31.0,45.044422518220834
400,974,1.4142135623730951,103.00485425454472,8.06225774829855,15.033296378372908,30.01666203960727,31.016124838541646,32.38826948140329,56.568542494923804,41.593268686170845,40.5,37.0,36.0,4.5,19.5,3.5,1.5,12.041594578792296,11.045361017187261,11.5,35.0,33.0,45.044422518220834
401,975,1.4142135623730951,108.00462953040486,9.055385138137417,16.1245154965971,33.0,34.0,32.2490309931942,58.54912467321779,42.42640687119285,41.5,35.0,36.0,3.5,22.5,5.5,2.5,12.041594578792296,11.045361017187261,11.5,35.0,33.0,43.18564576337837
402,976,8.246211251235321,110.00454536063498,6.082762530298219,13.038404810405298,33.015148038438355,34.0,28.442925306655784,55.731499172371095,42.7551166528639,38.0,32.0,31.0,3.5,23.5,8.5,0.5,12.041594578792296,12.041594578792296,12.5,34.0,33.0,43.04648650006177
403,977,9.055385138137417,110.00454536063498,6.082762530298219,12.041594578792296,34.0147027033899,34.0,29.427877939124322,56.568542494923804,44.553338819890925,39.5,32.0,31.0,2.5,24.5,9.5,0.5,10.04987562112089,10.04987562112089,10.5,34.0,33.0,44.10215414239989
404,978,15.297058540778355,109.00458705944443,8.0,12.041594578792296,33.015148038438355,34.0147027033899,23.769728648009426,58.855755878248644,46.87216658103186,38.5,34.0,33.0,10.5,24.5,10.5,3.5,12.041594578792296,12.041594578792296,12.0,33.0,33.0,43.01162633521314
405,979,18.110770276274835,107.01868995647442,9.0,15.0,32.0,33.015148038438355,21.587033144922902,63.387695966961914,48.507731342539614,39.0,38.0,36.0,16.0,26.0,10.0,9.0,12.041594578792296,13.152946437965905,13.0,35.0,36.0,41.0
406,980,11.180339887498949,108.01851693112621,7.0710678118654755,16.0,33.0,34.0147027033899,27.294688127912362,61.40032573203501,45.5411901469428,39.5,35.0,33.0,7.0,27.0,9.0,2.0,13.038404810405298,11.180339887498949,11.5,35.0,36.0,44.01136216933077
407,981,6.324555320336759,99.00505037623081,6.0,15.0,32.0,33.015148038438355,30.14962686336267,57.21887800367987,42.2965719651132,39.0,37.0,36.0,6.5,20.5,3.5,2.5,12.041594578792296,11.180339887498949,11.5,33.0,34.0,41.0
408,982,5.0990195135927845,91.00549433962765,8.0,17.029386365926403,30.0,32.0,28.442925306655784,58.42088667591412,41.43669871020132,38.5,38.0,39.0,10.5,19.5,0.5,4.5,13.0,11.180339887498949,11.5,33.0,35.0,41.0
409,983,6.082762530298219,94.00531899844816,8.06225774829855,16.0312195418814,30.0,30.01666203960727,27.294688127912362,57.42821606144492,41.43669871020132,38.0,40.0,41.0,13.5,16.5,0.5,7.5,12.0,12.041594578792296,12.5,31.0,33.0,43.01162633521314
410,984,6.082762530298219,90.0222194794152,9.055385138137417,17.029386365926403,30.01666203960727,32.01562118716424,26.30589287593181,58.42088667591412,41.43669871020132,38.0,41.0,43.0,16.0,16.0,3.0,8.0,12.041594578792296,12.041594578792296,12.5,32.0,33.0,43.0
411,985,4.47213595499958,94.00531899844816,10.04987562112089,20.09975124224178,30.01666203960727,31.0,29.154759474226502,63.50590523722971,43.41658669218482,41.0,45.0,46.0,16.5,17.5,3.5,7.5,13.038404810405298,13.038404810405298,13.5,36.0,35.0,44.01136216933077
412,986,2.8284271247461903,90.0222194794152,8.0,17.029386365926403,26.076809620810597,29.017236257093817,33.24154027718932,60.40695324215582,43.41658669218482,42.0,45.0,47.0,13.0,14.0,4.0,5.0,13.038404810405298,13.038404810405298,13.0,35.0,35.0,43.0
413,987,2.23606797749979,95.02105029939419,8.06225774829855,15.0,29.017236257093817,30.01666203960727,32.2490309931942,56.43580423808985,41.593268686170845,40.5,45.0,47.0,14.0,10.0,6.0,7.0,12.041594578792296,12.041594578792296,13.0,35.0,32.0,44.04543109109048
414,988,2.23606797749979,93.00537618869137,9.055385138137417,15.033296378372908,28.071337695236398,30.01666203960727,36.22154055254967,58.42088667591412,43.41658669218482,44.0,46.0,47.0,10.5,11.5,4.5,2.5,12.041594578792296,12.041594578792296,12.0,32.0,29.0,40.01249804748511
415,989,1.4142135623730951,93.00537618869137,9.055385138137417,16.0312195418814,28.0178514522438,30.0,34.132096331752024,60.29925372672534,44.28317965096906,43.5,48.0,47.0,13.5,12.5,3.5,5.5,12.0,12.041594578792296,12.0,33.0,31.0,39.01281840626232
416,990,4.123105625617661,95.04735661763561,10.04987562112089,14.035668847618199,30.0,31.016124838541646,32.2490309931942,60.40695324215582,46.389654018972806,44.0,46.0,43.0,12.5,15.5,0.5,5.5,15.033296378372908,15.033296378372908,15.0,37.0,36.0,40.11234224026316
417,991,5.385164807134504,101.00495037373169,14.035668847618199,16.1245154965971,29.017236257093817,30.01666203960727,28.160255680657446,63.50590523722971,47.38143096192854,44.5,45.0,46.0,17.5,17.5,0.5,4.5,13.038404810405298,13.152946437965905,13.5,37.0,36.0,46.17358552246078
418,992,2.0,96.02083107326243,11.045361017187261,16.0312195418814,27.0,28.0178514522438,33.24154027718932,60.530983801686226,44.553338819890925,44.0,49.0,47.0,15.0,12.0,4.0,5.0,12.041594578792296,12.041594578792296,12.5,36.0,33.0,40.11234224026316
419,993,1.4142135623730951,93.00537618869137,11.045361017187261,16.0312195418814,25.019992006393608,27.0,32.2490309931942,60.40695324215582,44.40720662234904,43.5,48.0,49.0,16.5,11.5,5.5,6.5,13.038404810405298,13.038404810405298,13.5,38.0,32.0,41.012193308819754
420,994,2.8284271247461903,90.0499861188218,10.04987562112089,16.0312195418814,26.019223662515376,27.018512172212592,33.37663853655727,61.66036003787198,45.70557952810576,44.0,48.0,51.0,16.5,11.5,5.5,6.5,14.035668847618199,14.035668847618199,14.5,36.0,32.0,38.05259518088089
421,995,2.0,91.0494371207203,9.219544457292887,13.152946437965905,27.018512172212592,29.0,34.23448553724738,56.88585061331157,43.73785545725808,43.0,47.0,50.0,14.5,7.5,6.5,6.5,14.035668847618199,14.035668847618199,13.5,38.0,30.0,39.11521443121589
422,996,1.0,83.05419917138447,7.280109889280518,12.165525060596439,25.079872407968907,25.019992006393608,37.33630940518894,55.731499172371095,43.56604182158393,43.5,44.0,47.0,8.5,9.5,4.5,2.5,13.152946437965905,13.038404810405298,13.5,37.0,30.0,37.21558813185679
423,997,1.0,84.0535543567314,7.280109889280518,13.152946437965905,23.08679276123039,24.08318915758459,36.6742416417845,58.05170109479997,44.91102314577124,43.5,46.0,49.0,11.5,9.5,4.5,4.5,13.152946437965905,13.038404810405298,13.0,38.0,29.0,37.12142238654117
424,998,1.0,83.09632964216891,5.0990195135927845,11.180339887498949,23.08679276123039,23.08679276123039,36.87817782917155,53.36665625650534,42.20189569201838,41.0,43.0,47.0,9.0,7.0,5.0,5.0,13.152946437965905,13.038404810405298,13.0,39.0,29.0,31.064449134018133
425,999,2.8284271247461903,82.05485969764375,5.0990195135927845,10.198039027185569,23.08679276123039,23.021728866442675,36.6742416417845,54.3415126767741,44.14748010928823,42.0,44.0,47.0,9.5,7.5,3.5,4.5,15.132745950421556,15.0,15.0,36.0,28.0,29.274562336608895
426,1000,1.0,86.05230967266364,5.385164807134504,12.36931687685298,24.08318915758459,25.079872407968907,36.345563690772494,54.12947441089743,41.773197148410844,41.0,43.0,46.0,8.5,8.5,4.5,3.5,13.152946437965905,13.0,13.0,35.0,28.0,29.154759474226502
427,1001,2.8284271247461903,85.09406559801923,6.324555320336759,13.152946437965905,23.08679276123039,24.08318915758459,35.510561809129406,57.271284253105414,44.14748010928823,42.0,44.0,48.0,11.0,10.0,5.0,5.0,13.152946437965905,13.0,13.0,35.0,27.0,32.38826948140329
428,1002,2.23606797749979,86.05230967266364,7.280109889280518,13.341664064126334,24.08318915758459,25.019992006393608,34.713109915419565,57.48912940721924,44.14748010928823,42.0,45.0,48.0,12.5,9.5,4.5,5.5,14.142135623730951,14.035668847618199,14.0,36.0,28.0,30.066592756745816
429,1003,2.23606797749979,86.09297300012354,6.324555320336759,12.36931687685298,24.186773244895647,25.019992006393608,35.510561809129406,55.54277630799526,43.174066289845804,41.5,43.0,47.0,10.0,9.0,4.0,4.0,14.142135623730951,14.035668847618199,14.5,38.0,29.0,34.132096331752024
430,1004,3.1622776601683795,86.09297300012354,6.324555320336759,13.152946437965905,24.186773244895647,25.079872407968907,33.37663853655727,55.90169943749474,42.7551166528639,40.5,40.0,44.0,9.0,13.0,2.0,3.0,14.317821063276353,15.0,14.5,38.0,29.0,36.22154055254967
431,1005,3.1622776601683795,84.09518416651456,6.082762530298219,10.04987562112089,25.079872407968907,25.079872407968907,32.38826948140329,51.62363799656123,41.593268686170845,39.5,40.0,44.0,10.0,9.0,3.0,4.0,13.152946437965905,14.035668847618199,13.5,37.0,30.0,35.22782990761707
432,1006,1.0,85.09406559801923,6.082762530298219,13.152946437965905,25.079872407968907,25.179356624028344,33.54101966249684,53.75872022286245,40.607881008493905,39.5,39.0,43.0,8.0,12.0,3.0,3.0,14.142135623730951,14.0,14.5,37.0,31.0,33.13608305156178
433,1007,2.23606797749979,86.05230967266364,5.385164807134504,15.132745950421556,24.08318915758459,26.019223662515376,34.52535300326414,57.0701322935211,41.97618372363071,40.0,40.0,43.0,7.5,14.5,1.5,3.5,13.152946437965905,12.0,13.0,37.0,30.0,36.124783736376884
434,1008,1.4142135623730951,81.05553651663777,4.123105625617661,11.180339887498949,24.08318915758459,24.08318915758459,33.734255586866,50.21951811795888,39.05124837953327,37.5,39.0,42.0,7.5,8.5,3.5,3.5,13.152946437965905,13.038404810405298,13.5,36.0,30.0,30.066592756745816
435,1009,1.4142135623730951,83.02409288875127,5.385164807134504,10.198039027185569,25.0,25.019992006393608,32.55764119219941,49.24428900898052,39.05124837953327,37.5,39.0,41.0,8.0,8.0,3.0,5.0,14.142135623730951,14.0,14.5,37.0,33.0,34.058772731852805
436,1010,1.4142135623730951,83.0,5.0990195135927845,12.165525060596439,23.021728866442675,24.020824298928627,33.37663853655727,51.78802950489621,39.6232255123179,38.5,39.0,39.0,6.0,12.0,1.0,2.0,15.132745950421556,14.035668847618199,15.0,34.0,32.0,36.05551275463989
437,1011,1.0,85.00588214941364,5.0990195135927845,11.045361017187261,26.019223662515376,26.0,34.713109915419565,50.99019513592785,40.024992192379,39.0,41.0,40.0,6.5,9.5,2.5,2.5,14.142135623730951,14.035668847618199,14.5,31.0,32.0,35.05709628591621
438,1012,2.23606797749979,87.02298546935747,5.385164807134504,12.165525060596439,24.0,25.019992006393608,32.55764119219941,52.172789842982326,40.024992192379,38.0,41.0,39.0,8.0,11.0,2.0,4.0,15.033296378372908,15.132745950421556,15.0,35.0,36.0,37.013511046643494
439,1013,2.23606797749979,85.05292469985967,6.082762530298219,13.152946437965905,24.0,26.019223662515376,32.55764119219941,53.9351462406472,40.792156108742276,39.0,41.0,38.0,7.5,13.5,0.5,3.5,15.132745950421556,15.132745950421556,15.5,32.0,36.0,38.0
440,1014,2.23606797749979,90.13878188659973,6.082762530298219,14.035668847618199,24.020824298928627,26.076809620810597,32.38826948140329,54.589376255824725,40.607881008493905,39.0,42.0,37.0,7.5,14.5,0.5,3.5,14.035668847618199,14.317821063276353,14.0,31.0,37.0,39.05124837953327
441,1015,3.1622776601683795,91.19758768739445,7.0,14.035668847618199,26.019223662515376,27.073972741361768,29.427877939124322,53.46026561849464,39.45883931389772,37.5,41.0,35.0,9.0,15.0,1.0,4.0,14.035668847618199,15.297058540778355,15.0,30.0,38.0,37.013511046643494
442,1016,3.1622776601683795,96.25487000666512,10.04987562112089,15.033296378372908,28.0178514522438,29.068883707497267,30.265491900843113,58.215118311311535,43.41658669218482,41.5,43.0,36.0,9.5,18.5,2.5,2.5,14.0,14.317821063276353,14.5,27.0,37.0,44.10215414239989
443,1017,8.06225774829855,98.32598842625484,5.0,14.0,31.016124838541646,33.13608305156178,31.575306807693888,58.42088667591412,44.553338819890925,40.0,40.0,32.0,5.0,22.0,8.0,3.0,14.035668847618199,13.341664064126334,13.0,27.0,38.0,38.118237105091836
444,1018,10.0,98.41239759298622,5.0,14.0,29.017236257093817,31.064449134018133,29.427877939124322,58.215118311311535,44.28317965096906,39.0,39.0,30.0,5.5,23.5,8.5,3.5,13.0,14.142135623730951,14.5,26.0,38.0,38.118237105091836
445,1019,15.033296378372908,101.31633629380802,4.0,13.038404810405298,29.017236257093817,31.144823004794873,27.294688127912362,59.135437767890075,46.2709412050371,38.5,39.0,31.0,8.0,24.0,11.0,6.0,14.0,14.317821063276353,14.0,27.0,38.0,37.05401462729781
446,1020,16.0,104.47966309287182,4.0,13.0,29.068883707497267,31.144823004794873,28.284271247461902,61.1310068623117,48.16637831516918,40.0,41.0,31.0,8.0,25.0,12.0,6.0,13.0,13.601470508735444,13.0,23.0,38.0,37.21558813185679
447,1021,17.0,102.70345661174214,6.0,15.033296378372908,29.154759474226502,31.144823004794873,24.08318915758459,62.00806399170998,47.042533945356304,38.5,42.0,30.0,12.0,26.0,12.0,9.0,14.0,14.317821063276353,14.0,25.0,43.0,40.44749683231337
448,1022,17.029386365926403,103.0970416646375,6.082762530298219,14.142135623730951,29.154759474226502,31.25699921617557,26.019223662515376,63.00793600809346,49.01020301937138,40.5,45.0,30.0,11.5,25.5,12.5,8.5,16.0312195418814,15.524174696260024,15.5,19.0,45.0,37.8549864614954
449,1023,19.0,103.16006979447037,5.385164807134504,14.317821063276353,29.427877939124322,31.575306807693888,26.019223662515376,64.28063471995279,50.08991914547278,40.5,47.0,26.0,10.5,27.5,14.5,9.5,12.36931687685298,12.083045973594572,12.0,14.0,48.0,40.26164427839479
450,1025,21.095023109728988,106.73331251301067,9.219544457292887,15.524174696260024,35.510561809129406,37.48332962798263,21.37755832643195,67.08203932499369,51.62363799656123,40.5,48.0,24.0,15.0,30.0,16.0,11.0,13.601470508735444,13.0,13.0,9.0,49.0,40.496913462633174
451,1026,15.132745950421556,105.99056561788883,8.246211251235321,15.524174696260024,30.805843601498726,32.984845004941285,24.08318915758459,62.80127387243033,47.38143096192854,39.5,49.0,24.0,12.5,25.5,12.5,9.5,13.341664064126334,13.416407864998739,12.5,8.0,50.0,37.33630940518894
452,1037,17.11724276862369,106.60675400742676,7.615773105863909,15.811388300841896,33.95585369269929,35.17101079013795,23.53720459187964,63.788713735268246,48.05205510693585,38.5,54.0,23.0,15.5,23.5,12.5,13.5,14.317821063276353,14.317821063276353,14.0,5.0,52.0,32.31098884280702
453,1038,20.09975124224178,103.74005976477939,6.708203932499369,12.083045973594572,33.95585369269929,36.40054944640259,22.20360331117452,60.41522986797286,48.662100242385755,38.0,53.0,22.0,15.5,21.5,13.5,14.5,15.524174696260024,16.15549442140351,15.5,5.0,52.0,35.11409973215888
454,1039,23.021728866442675,106.3202708800161,6.708203932499369,13.0,33.95585369269929,37.107950630558946,22.360679774997898,64.32728814430156,51.62363799656123,39.5,52.0,22.0,15.0,26.0,16.0,14.0,14.560219778561036,14.7648230602334,13.5,5.0,51.0,39.56008088970496
455,1040,23.08679276123039,105.3612832116238,8.54400374531753,14.866068747318506,35.90264614203248,36.87817782917155,20.396078054371138,66.49060083951716,51.78802950489621,39.5,52.0,22.0,17.0,28.0,16.0,14.0,13.601470508735444,12.529964086141668,12.0,7.0,52.0,40.496913462633174
456,1041,25.179356624028344,105.3612832116238,5.830951894845301,13.0,34.92849839314596,37.107950630558946,22.360679774997898,65.73431371817918,52.952809179494906,39.5,54.0,24.0,17.0,25.0,16.0,17.0,17.46424919657298,18.384776310850235,17.5,7.0,56.0,37.69615364994153
457,1042,17.11724276862369,102.88342918079665,8.54400374531753,15.524174696260024,30.805843601498726,32.01562118716424,24.331050121192877,65.30696746902278,49.8196748283246,40.5,53.0,25.0,15.0,25.0,12.0,12.0,14.560219778561036,14.317821063276353,13.5,7.0,53.0,40.496913462633174
458,1043,4.123105625617661,94.64142856064674,9.486832980505138,14.560219778561036,30.59411708155671,31.78049716414141,28.284271247461902,56.293871780150276,41.773197148410844,39.0,51.0,25.0,10.0,17.0,5.0,6.0,15.524174696260024,14.317821063276353,13.5,5.0,52.0,39.56008088970496
459,1044,1.4142135623730951,93.14504817756014,5.830951894845301,13.601470508735444,27.459060435491963,28.861739379323623,33.13608305156178,53.150729063673246,39.6232255123179,38.5,50.0,26.0,5.0,14.0,2.0,5.0,16.278820596099706,16.15549442140351,15.5,5.0,53.0,37.33630940518894
460,1045,2.23606797749979,92.89241088485109,5.385164807134504,13.601470508735444,27.65863337187866,29.614185789921695,31.25699921617557,52.172789842982326,38.63935817272331,37.0,49.0,26.0,6.5,13.5,2.5,5.5,15.524174696260024,14.866068747318506,14.5,8.0,52.0,35.11409973215888
461,1046,2.23606797749979,91.92388155425118,6.324555320336759,14.560219778561036,28.442925306655784,29.614185789921695,31.25699921617557,54.12947441089743,39.6232255123179,38.0,50.0,27.0,7.5,14.5,1.5,5.5,14.560219778561036,13.92838827718412,13.5,8.0,52.0,41.43669871020132
462,1047,3.605551275463989,93.14504817756014,5.385164807134504,13.601470508735444,29.614185789921695,30.805843601498726,32.2490309931942,54.3415126767741,40.792156108742276,38.5,50.0,26.0,6.0,15.0,3.0,6.0,14.317821063276353,14.317821063276353,13.0,7.0,52.0,36.05551275463989
463,1048,11.045361017187261,91.67878707749138,8.246211251235321,15.524174696260024,27.892651361962706,28.635642126552707,28.442925306655784,63.150613615387776,47.67598976424087,41.5,53.0,31.0,14.0,20.0,7.0,10.0,15.297058540778355,15.231546211727817,14.5,9.0,52.0,38.897300677553446
464,1057,3.0,90.6697303403953,5.0990195135927845,13.152946437965905,25.079872407968907,26.1725046566048,35.014282800023196,56.0357029044876,43.0,41.5,45.0,34.0,4.5,16.5,2.5,2.5,17.029386365926403,17.46424919657298,17.0,21.0,46.0,41.773197148410844
465,1058,5.0,93.43446901438462,5.0990195135927845,13.152946437965905,26.019223662515376,28.071337695236398,34.0147027033899,57.0350769263968,44.0,41.5,44.0,35.0,5.5,17.5,3.5,2.5,15.033296378372908,15.524174696260024,16.0,19.0,43.0,40.607881008493905
466,1059,8.0,94.13288479590966,4.123105625617661,11.045361017187261,29.017236257093817,31.016124838541646,33.06055050963308,56.0,45.0111097397076,41.0,42.0,37.0,6.5,16.5,3.5,4.5,16.0312195418814,16.278820596099706,16.0,19.0,42.0,36.345563690772494
467,1060,6.0,96.08329719571451,5.0990195135927845,14.035668847618199,29.017236257093817,30.01666203960727,33.06055050963308,58.0,44.01136216933077,41.0,42.0,38.0,7.0,18.0,3.0,4.0,17.029386365926403,17.26267650163207,17.5,22.0,40.0,39.319206502675
468,1061,7.0,95.02105029939419,5.0,13.0,29.0,29.017236257093817,32.01562118716424,57.0087712549569,44.01136216933077,40.5,41.0,39.0,8.0,17.0,3.0,5.0,15.033296378372908,16.278820596099706,16.0,22.0,39.0,38.3275357934736
469,1062,5.0,92.04890004774636,5.0,14.035668847618199,29.017236257093817,29.017236257093817,33.015148038438355,57.0,43.01162633521314,40.5,41.0,38.0,6.5,17.5,2.5,4.5,16.0,15.297058540778355,15.5,25.0,39.0,41.19465984809196
470,1063,6.0,94.02127418834527,5.0,14.035668847618199,29.0,30.01666203960727,34.058772731852805,59.00847396772772,45.044422518220834,42.0,42.0,40.0,7.0,18.0,2.0,4.0,16.0,15.132745950421556,15.5,25.0,38.0,37.21558813185679
471,1064,6.0,93.00537618869137,5.0,14.0,28.0,29.0,34.0147027033899,59.00847396772772,45.0111097397076,42.0,43.0,42.0,8.5,16.5,0.5,5.5,17.0,17.11724276862369,17.5,25.0,37.0,39.11521443121589
472,1065,5.0,92.00543462209176,5.0,14.0,29.0,29.0,34.0147027033899,58.008620049092706,44.01136216933077,41.5,41.0,40.0,6.5,17.5,1.5,3.5,15.0,15.132745950421556,15.0,26.0,37.0,39.20459156782532
473,1066,5.0990195135927845,92.00543462209176,7.0,15.033296378372908,28.0178514522438,28.0,31.0,58.0,43.01162633521314,40.5,41.0,40.0,9.5,17.5,0.5,5.5,15.0,15.132745950421556,15.5,26.0,37.0,36.124783736376884
474,1067,7.0,92.0,5.0,13.0,30.01666203960727,32.0,32.0624390837628,57.0350769263968,44.04543109109048,40.5,42.0,42.0,10.0,15.0,0.0,7.0,18.027756377319946,17.26267650163207,17.0,24.0,34.0,37.12142238654117
475,1068,10.0,93.0,6.0,15.0,30.0,31.016124838541646,31.016124838541646,62.00806399170998,47.01063709417264,42.0,42.0,42.0,11.0,20.0,2.0,6.0,17.029386365926403,16.0312195418814,17.0,23.0,34.0,41.10960958218893
476,1069,11.045361017187261,101.00495037373169,11.0,18.027756377319946,32.0,34.0147027033899,28.0178514522438,68.00735254367721,50.0,44.5,43.0,44.0,15.5,24.5,3.5,5.5,16.0,16.1245154965971,17.0,26.0,36.0,38.05259518088089
477,1070,14.035668847618199,97.0051545022222,9.0,15.0,31.0,32.01562118716424,29.0,67.00746227100382,52.009614495783374,45.0,44.0,45.0,15.5,22.5,4.5,7.5,16.0,15.132745950421556,15.5,24.0,34.0,38.05259518088089
478,1071,13.0,96.0,10.0,16.0,30.01666203960727,33.015148038438355,29.017236257093817,68.00735254367721,52.009614495783374,45.5,44.0,44.0,15.0,24.0,5.0,6.0,17.0,15.033296378372908,15.5,28.0,35.0,36.05551275463989
479,1072,16.0,100.04498987955368,11.045361017187261,18.0,32.01562118716424,35.05709628591621,30.0,75.0066663703967,57.0087712549569,49.0,46.0,49.0,17.5,27.5,6.5,7.5,15.0,14.142135623730951,14.5,26.0,34.0,37.013511046643494
480,1073,25.0,97.04638066409278,6.0,16.0,31.016124838541646,33.13608305156178,29.0,76.0,60.0,47.5,47.0,50.0,19.5,27.5,8.5,14.5,15.0,15.033296378372908,15.0,27.0,33.0,37.013511046643494
481,1074,22.0,96.02083107326243,5.0990195135927845,14.0,32.01562118716424,34.058772731852805,30.01666203960727,71.0,57.0,46.0,46.0,48.0,17.0,24.0,7.0,13.0,16.0,16.1245154965971,16.0,27.0,32.0,35.014282800023196
482,1075,23.08679276123039,97.02061636580135,6.0,15.0,32.01562118716424,34.0147027033899,27.0,71.02816342831905,56.0357029044876,44.5,45.0,47.0,19.0,25.0,8.0,13.0,15.0,15.033296378372908,15.0,28.0,32.0,37.05401462729781
483,1076,16.1245154965971,98.04590761474952,8.0,17.0,34.0147027033899,36.05551275463989,31.016124838541646,72.00694410957877,55.00909015790027,47.0,45.0,48.0,15.5,25.5,5.5,8.5,15.0,15.132745950421556,14.5,28.0,32.0,37.013511046643494
484,1077,19.1049731745428,98.12746812182611,7.0,16.0312195418814,32.01562118716424,34.132096331752024,29.0,71.06335201775947,55.036351623268054,45.5,42.0,47.0,15.5,26.5,7.5,9.5,16.0,16.1245154965971,16.0,28.0,31.0,40.01249804748511
485,1078,14.035668847618199,98.12746812182611,6.0,16.0312195418814,32.01562118716424,35.12833614050059,29.017236257093817,65.06919393998976,49.040799340956916,42.0,41.0,46.0,14.5,21.5,2.5,9.5,14.035668847618199,15.033296378372908,15.0,28.0,30.0,37.013511046643494
486,1079,13.038404810405298,97.18538984847466,7.0,14.035668847618199,32.0624390837628,34.132096331752024,28.0178514522438,62.07253821135398,48.041648597857254,41.5,41.0,47.0,16.0,18.0,0.0,10.0,18.027756377319946,18.027756377319946,18.5,29.0,32.0,37.013511046643494
487,1080,5.0990195135927845,94.26027795418386,10.04987562112089,19.026297590440446,30.14962686336267,32.2490309931942,28.0178514522438,62.12889826803627,43.104524124504614,40.5,36.0,43.0,11.5,22.5,0.5,1.5,15.033296378372908,14.0,14.5,29.0,29.0,40.01249804748511
488,1081,4.47213595499958,96.33275663033837,9.055385138137417,18.027756377319946,32.14031735997639,33.37663853655727,29.068883707497267,60.29925372672534,42.2965719651132,40.0,35.0,43.0,10.0,21.0,1.0,2.0,17.029386365926403,17.029386365926403,17.0,32.0,28.0,37.05401462729781
489,1082,14.142135623730951,99.08077512817509,10.0,18.110770276274835,31.016124838541646,33.06055050963308,29.068883707497267,71.25307010929424,53.150729063673246,46.0,39.0,43.0,12.0,30.0,8.0,3.0,16.1245154965971,16.0312195418814,15.5,34.0,27.0,38.2099463490856
490,1083,2.8284271247461903,98.50888284819801,9.055385138137417,18.110770276274835,33.13608305156178,34.23448553724738,27.294688127912362,56.71860364994893,38.63935817272331,37.0,34.0,44.0,12.0,17.0,5.0,3.0,16.278820596099706,16.0,15.5,33.0,25.0,38.2099463490856
491,1084,3.605551275463989,99.50376877284599,8.06225774829855,17.11724276862369,32.2490309931942,33.24154027718932,29.154759474226502,56.71860364994893,39.6232255123179,38.0,36.0,46.0,12.0,15.0,5.0,4.0,15.132745950421556,15.033296378372908,14.5,34.0,25.0,36.124783736376884
492,1085,2.23606797749979,87.69264507357501,7.280109889280518,16.278820596099706,27.294688127912362,28.284271247461902,30.14962686336267,54.91812087098393,38.63935817272331,37.5,38.0,49.0,13.5,10.5,8.5,5.5,16.1245154965971,15.0,15.0,35.0,25.0,37.12142238654117
493,1086,5.385164807134504,83.72574275573791,7.0710678118654755,16.278820596099706,25.179356624028344,27.459060435491963,31.144823004794873,59.682493245507096,43.41658669218482,40.5,40.0,51.0,14.5,13.5,6.5,7.5,16.0312195418814,16.0,15.5,33.0,25.0,34.058772731852805
494,1087,6.708203932499369,85.0,6.082762530298219,15.297058540778355,26.1725046566048,27.459060435491963,33.13608305156178,60.8276253029822,45.5411901469428,42.0,40.0,53.0,13.5,13.5,5.5,7.5,18.110770276274835,18.0,18.0,37.0,26.0,38.118237105091836
495,1088,2.8284271247461903,86.70063436907483,6.324555320336759,14.317821063276353,25.179356624028344,26.30589287593181,35.05709628591621,57.706152185014034,43.41658669218482,42.0,39.0,50.0,9.5,12.5,5.5,3.5,16.1245154965971,17.0,16.5,35.0,24.0,38.05259518088089
496,1089,2.23606797749979,88.81441324469807,8.246211251235321,13.341664064126334,26.1725046566048,26.30589287593181,35.05709628591621,55.731499172371095,42.42640687119285,42.5,38.0,50.0,9.0,11.0,5.0,1.0,17.11724276862369,17.0,16.5,34.0,22.0,39.319206502675
