,video_id,frame_seq,gap,time_seconds,m1,m3,m4,m5,m6,m7,m8,m9,m10,m11,m12,m13,m14,m15,m16,m17,e1,e2,e3,b1,b2,b3
0,64,311,1,10.377033333333287,7.0710678118654755,39.01281840626232,4.0,6.0,10.0,12.0,11.045361017187261,28.071337695236398,22.090722034374522,18.5,17.0,16.0,5.5,11.5,4.5,1.5,2.0,2.0,2.0,19.0,19.0,17.029386365926403
1,64,312,0,10.410399999999957,6.082762530298219,40.01249804748511,5.0,7.0,10.0,11.045361017187261,11.045361017187261,29.068883707497267,22.090722034374522,19.0,17.0,16.0,5.5,12.5,5.5,0.5,2.23606797749979,2.23606797749979,2.0,20.0,18.0,17.029386365926403
2,64,313,0,10.44376666666662,5.0,38.01315561749642,5.0,7.0,10.04987562112089,12.041594578792296,11.045361017187261,28.0178514522438,21.02379604162864,18.5,17.0,16.0,5.5,11.5,4.5,1.5,1.0,2.0,1.5,21.0,20.0,19.026297590440446
3,64,314,0,10.477133333333288,6.082762530298219,38.05259518088089,5.0,7.0,11.0,11.045361017187261,11.045361017187261,29.068883707497267,22.090722034374522,19.0,18.0,16.0,6.0,12.0,5.0,1.0,1.4142135623730951,2.0,1.5,20.0,19.0,19.026297590440446
4,64,315,0,10.510499999999952,6.082762530298219,38.01315561749642,5.0,8.0,10.0,12.041594578792296,10.04987562112089,29.068883707497267,21.095023109728988,18.0,16.0,15.0,5.5,13.5,5.5,0.5,1.0,2.0,2.0,20.0,20.0,19.026297590440446
5,64,316,0,10.543866666666618,7.0,38.05259518088089,4.0,8.0,10.04987562112089,12.041594578792296,12.041594578792296,31.016124838541646,23.021728866442675,19.5,18.0,16.0,5.0,14.0,6.0,2.0,2.0,2.0,2.0,20.0,19.0,20.024984394500787
6,64,317,0,10.577233333333284,5.0,39.05124837953327,5.0,8.0,10.0,11.045361017187261,11.045361017187261,29.017236257093817,21.02379604162864,18.5,17.0,15.0,5.0,13.0,5.0,1.0,2.0,1.0,1.5,20.0,19.0,19.026297590440446
7,64,318,0,10.61059999999995,5.0,39.05124837953327,5.0,8.0,11.045361017187261,12.041594578792296,10.04987562112089,28.0178514522438,20.024984394500787,17.5,17.0,15.0,6.0,12.0,4.0,2.0,2.0,2.0,2.0,20.0,18.0,18.110770276274835
8,64,319,0,10.643966666666616,5.0,39.05124837953327,5.0,8.0,10.0,12.041594578792296,10.04987562112089,28.0178514522438,20.024984394500787,17.5,17.0,15.0,6.0,12.0,5.0,1.0,2.23606797749979,1.0,1.5,20.0,18.0,18.027756377319946
9,64,320,0,10.677333333333282,6.082762530298219,39.05124837953327,5.0,8.0,10.04987562112089,12.041594578792296,10.04987562112089,29.068883707497267,21.095023109728988,18.0,16.0,14.0,5.0,14.0,6.0,1.0,2.23606797749979,2.0,2.0,20.0,20.0,19.0
10,64,321,0,10.710699999999948,6.082762530298219,39.01281840626232,4.0,7.0710678118654755,10.0,11.045361017187261,10.04987562112089,27.018512172212592,20.09975124224178,17.0,15.0,14.0,4.5,12.5,5.5,0.5,2.0,2.0,2.0,16.0,16.0,15.0
11,64,322,0,10.744066666666614,4.0,38.05259518088089,4.123105625617661,7.0,10.0,12.165525060596439,11.045361017187261,26.076809620810597,19.1049731745428,17.0,17.0,15.0,5.0,10.0,3.0,2.0,2.0,2.0,2.0,19.0,18.0,18.027756377319946
12,64,323,0,10.77743333333328,3.0,36.124783736376884,3.0,8.0,10.0,11.045361017187261,11.045361017187261,25.019992006393608,17.029386365926403,15.5,17.0,14.0,4.5,9.5,1.5,1.5,2.0,2.0,1.5,21.0,20.0,18.027756377319946
13,64,324,0,10.810799999999944,3.0,37.12142238654117,4.0,7.0,10.0,11.045361017187261,10.04987562112089,24.020824298928627,17.029386365926403,15.5,16.0,13.0,4.5,9.5,1.5,1.5,2.0,2.0,2.0,21.0,20.0,18.027756377319946
14,64,325,0,10.844166666666611,4.0,36.124783736376884,3.0,7.0,9.0,10.04987562112089,11.045361017187261,25.019992006393608,18.027756377319946,16.0,17.0,14.0,4.5,9.5,2.5,1.5,2.0,2.0,2.0,19.0,19.0,21.02379604162864
15,64,326,0,10.877533333333275,3.0,36.124783736376884,4.0,7.0,10.04987562112089,11.045361017187261,11.0,25.0,18.0,16.5,17.0,14.0,4.5,9.5,1.5,1.5,3.0,1.0,1.5,19.0,19.0,21.02379604162864
16,64,327,0,10.910899999999945,2.0,37.05401462729781,4.123105625617661,8.0,10.04987562112089,12.165525060596439,11.0,25.019992006393608,17.029386365926403,16.0,16.0,14.0,4.0,10.0,2.0,1.0,2.0,2.0,2.0,19.0,17.0,17.029386365926403
17,64,328,0,10.944266666666609,2.0,36.124783736376884,5.0,8.06225774829855,10.0,11.045361017187261,10.04987562112089,25.079872407968907,17.029386365926403,16.0,17.0,14.0,5.5,9.5,0.5,1.5,2.0,2.0,2.0,20.0,19.0,19.026297590440446
18,64,329,0,10.977633333333277,2.0,36.05551275463989,5.0,8.0,10.0,12.041594578792296,11.045361017187261,26.019223662515376,18.027756377319946,17.0,17.0,15.0,5.0,10.0,1.0,1.0,2.0,1.0,1.0,19.0,18.0,19.026297590440446
19,64,330,0,11.01099999999994,2.0,37.05401462729781,4.0,9.0,10.04987562112089,11.045361017187261,11.045361017187261,26.019223662515376,17.029386365926403,16.0,16.0,14.0,4.0,11.0,2.0,1.0,3.0,1.0,1.5,19.0,18.0,19.026297590440446
20,64,331,0,11.044366666666606,4.0,37.05401462729781,4.0,7.0,9.0,11.045361017187261,10.04987562112089,25.019992006393608,18.027756377319946,16.0,16.0,14.0,5.0,10.0,3.0,1.0,2.23606797749979,1.0,1.5,18.0,18.0,18.027756377319946
21,64,332,0,11.077733333333272,6.0,37.05401462729781,5.0,7.0,9.0,11.045361017187261,9.055385138137417,27.018512172212592,20.024984394500787,17.0,16.0,14.0,6.0,12.0,4.0,1.0,2.0,2.0,2.0,19.0,19.0,18.0
22,64,333,0,11.111099999999938,7.0710678118654755,38.05259518088089,4.0,7.0,10.0,11.045361017187261,10.04987562112089,28.071337695236398,21.095023109728988,17.5,16.0,14.0,5.0,13.0,6.0,1.0,2.0,2.0,2.0,19.0,19.0,19.026297590440446
23,64,334,0,11.144466666666604,7.0710678118654755,38.05259518088089,4.0,7.0,10.0,11.045361017187261,10.04987562112089,28.071337695236398,21.095023109728988,17.5,16.0,14.0,5.0,13.0,6.0,1.0,2.0,1.0,1.5,19.0,19.0,19.026297590440446
24,64,335,0,11.17783333333327,6.0,39.05124837953327,4.123105625617661,8.0,10.0,11.180339887498949,10.04987562112089,28.071337695236398,20.09975124224178,17.0,16.0,14.0,5.0,13.0,5.0,1.0,2.0,1.0,1.5,18.0,18.0,18.0
25,64,336,0,11.211199999999936,6.0,38.118237105091836,4.0,8.0,11.045361017187261,11.180339887498949,10.04987562112089,28.0178514522438,20.024984394500787,17.0,16.0,13.0,4.5,13.5,5.5,1.5,1.0,2.0,2.0,18.0,18.0,19.0
26,64,337,0,11.244566666666602,6.082762530298219,39.05124837953327,4.0,7.0,10.04987562112089,12.041594578792296,9.055385138137417,26.076809620810597,19.1049731745428,16.0,15.0,13.0,5.0,12.0,5.0,2.0,2.0,2.0,2.0,19.0,19.0,19.0
27,64,338,0,11.277933333333268,1.0,37.12142238654117,4.0,9.0,11.045361017187261,11.180339887498949,11.045361017187261,25.019992006393608,16.0312195418814,15.5,16.0,13.0,3.5,10.5,1.5,0.5,2.0,2.0,2.0,19.0,19.0,19.0
28,64,339,0,11.311299999999934,1.0,38.118237105091836,5.0,9.0,11.045361017187261,11.180339887498949,10.04987562112089,25.019992006393608,16.0312195418814,15.5,16.0,13.0,4.5,10.5,1.5,1.5,2.23606797749979,2.0,2.0,19.0,19.0,20.0
29,64,340,0,11.3446666666666,2.23606797749979,35.12833614050059,4.123105625617661,8.06225774829855,10.04987562112089,11.045361017187261,11.0,25.019992006393608,17.0,16.0,17.0,14.0,4.5,9.5,1.5,1.5,2.23606797749979,2.0,2.0,19.0,19.0,19.0
30,64,341,0,11.378033333333263,1.0,36.124783736376884,5.0990195135927845,8.0,10.04987562112089,12.165525060596439,11.0,25.019992006393608,17.029386365926403,16.5,17.0,14.0,4.5,9.5,1.5,1.5,1.0,2.0,2.0,17.0,18.0,20.0
31,64,342,0,11.411399999999931,1.0,36.124783736376884,5.0990195135927845,8.0,10.04987562112089,10.04987562112089,11.0,25.019992006393608,17.029386365926403,16.5,17.0,14.0,4.5,9.5,1.5,0.5,2.0,1.0,1.0,18.0,18.0,19.0
32,64,343,0,11.444766666666595,2.0,37.12142238654117,4.0,8.0,10.04987562112089,11.045361017187261,11.0,25.0,17.0,16.0,17.0,14.0,4.5,9.5,1.5,1.5,2.0,2.0,1.5,18.0,18.0,19.0
33,64,344,0,11.478133333333265,2.0,37.12142238654117,4.0,8.0,10.04987562112089,11.045361017187261,11.0,25.0,17.0,16.0,17.0,14.0,4.5,9.5,1.5,1.5,2.0,2.0,1.5,18.0,18.0,19.0
34,64,345,0,11.511499999999929,1.0,35.05709628591621,5.0,9.0,10.04987562112089,11.045361017187261,11.0,26.0,17.0,16.5,17.0,15.0,5.0,10.0,1.0,1.0,2.0,2.0,2.0,18.0,18.0,19.026297590440446
35,64,346,0,11.544866666666596,2.23606797749979,35.12833614050059,5.0,9.0,10.04987562112089,12.165525060596439,11.0,27.018512172212592,18.027756377319946,17.0,18.0,15.0,5.5,10.5,1.5,1.5,2.0,2.0,2.0,18.0,18.0,21.0
36,64,347,0,11.57823333333326,2.0,35.05709628591621,5.0,8.06225774829855,10.04987562112089,10.04987562112089,11.0,26.019223662515376,18.0,17.0,17.0,15.0,5.0,10.0,2.0,1.0,2.0,2.0,2.0,17.0,17.0,21.02379604162864
37,64,348,0,11.611599999999926,2.0,34.132096331752024,5.0990195135927845,9.0,10.04987562112089,11.045361017187261,11.0,27.018512172212592,18.027756377319946,17.0,18.0,15.0,5.5,10.5,1.5,1.5,2.23606797749979,2.0,2.0,19.0,19.0,20.024984394500787
38,64,349,0,11.644966666666592,2.23606797749979,34.132096331752024,5.0,9.0,10.04987562112089,11.180339887498949,11.0,27.018512172212592,18.027756377319946,17.0,18.0,15.0,5.5,10.5,1.5,1.5,2.0,2.0,2.0,18.0,18.0,20.024984394500787
39,64,350,0,11.678333333333258,3.1622776601683795,35.05709628591621,5.0,7.0,10.04987562112089,11.045361017187261,11.0,26.019223662515376,19.026297590440446,17.5,17.0,15.0,5.0,10.0,3.0,1.0,2.0,2.0,2.0,20.0,19.0,20.0
40,64,351,0,11.711699999999924,6.082762530298219,36.05551275463989,4.0,7.0,10.0,12.041594578792296,11.045361017187261,28.071337695236398,21.095023109728988,18.0,18.0,16.0,6.0,11.0,4.0,2.0,2.0,2.0,2.5,19.0,19.0,21.02379604162864
41,64,352,0,11.74506666666659,5.0990195135927845,36.124783736376884,4.0,8.0,10.04987562112089,11.045361017187261,11.045361017187261,28.071337695236398,20.09975124224178,17.5,18.0,15.0,5.5,11.5,3.5,2.5,2.0,1.4142135623730951,1.5,18.0,18.0,21.02379604162864
42,64,353,0,11.778433333333256,7.0710678118654755,37.12142238654117,4.0,8.0,10.0,11.180339887498949,10.04987562112089,29.068883707497267,21.095023109728988,17.5,17.0,14.0,5.5,13.5,5.5,1.5,3.0,2.0,2.0,19.0,19.0,21.02379604162864
43,64,354,0,11.811799999999922,7.0710678118654755,37.12142238654117,4.0,8.0,10.0,11.180339887498949,10.04987562112089,29.068883707497267,21.095023109728988,17.5,17.0,14.0,5.5,13.5,5.5,1.5,3.0,2.0,2.0,19.0,19.0,21.02379604162864
44,64,355,0,11.845166666666588,4.0,38.2099463490856,3.0,7.0,11.045361017187261,12.165525060596439,10.04987562112089,24.020824298928627,17.029386365926403,15.0,17.0,13.0,5.0,9.0,2.0,3.0,2.0,2.0,2.0,18.0,19.0,20.09975124224178
45,64,356,0,11.878533333333252,4.123105625617661,39.20459156782532,3.0,8.0,11.045361017187261,12.165525060596439,10.0,25.019992006393608,17.029386365926403,15.0,17.0,13.0,5.0,10.0,2.0,2.0,2.0,1.0,1.5,18.0,20.0,21.02379604162864
46,64,357,0,11.91189999999992,2.0,38.3275357934736,4.0,8.0,12.041594578792296,13.152946437965905,10.0,24.0,16.0,15.0,18.0,13.0,5.5,8.5,0.5,2.5,2.0,3.0,3.0,18.0,19.0,21.02379604162864
47,64,358,0,11.945266666666583,1.0,35.22782990761707,4.0,8.0,10.04987562112089,11.045361017187261,11.045361017187261,24.020824298928627,16.0312195418814,15.5,17.0,13.0,4.0,9.0,1.0,1.0,2.0,1.0,1.5,17.0,18.0,19.0
48,64,359,0,11.978633333333253,2.0,35.22782990761707,4.0,9.0,10.04987562112089,11.180339887498949,10.04987562112089,25.019992006393608,16.0312195418814,15.0,17.0,13.0,5.0,10.0,1.0,2.0,3.0,2.0,2.0,18.0,19.0,19.026297590440446
49,64,360,0,12.011999999999915,0.0,37.21558813185679,4.0,7.0,10.04987562112089,11.180339887498949,11.045361017187261,22.02271554554524,15.033296378372908,15.0,16.0,12.0,3.0,8.0,1.0,0.0,3.0,2.0,2.0,18.0,19.0,21.02379604162864
50,64,361,0,12.045366666666585,2.0,38.118237105091836,3.0,6.0,10.04987562112089,11.180339887498949,11.045361017187261,22.02271554554524,16.0312195418814,15.0,15.0,12.0,2.5,8.5,2.5,0.5,2.0,2.0,2.0,18.0,19.0,22.02271554554524
51,64,362,0,12.078733333333249,2.0,38.2099463490856,4.0,7.0,10.04987562112089,12.165525060596439,10.04987562112089,23.021728866442675,16.0312195418814,15.0,15.0,11.0,3.0,10.0,3.0,0.0,3.0,2.23606797749979,2.0,18.0,20.0,22.0
52,64,363,0,12.112099999999916,3.0,38.2099463490856,4.0,7.0,10.04987562112089,11.045361017187261,10.04987562112089,24.020824298928627,17.029386365926403,15.5,15.0,11.0,3.0,11.0,4.0,0.0,2.0,2.0,2.0,18.0,19.0,21.0
53,64,364,0,12.14546666666658,2.0,39.20459156782532,4.0,7.0,10.04987562112089,11.180339887498949,10.04987562112089,23.021728866442675,16.0312195418814,15.0,15.0,11.0,3.0,10.0,3.0,0.0,3.0,3.1622776601683795,3.0,18.0,19.0,22.0
54,64,365,0,12.178833333333246,4.0,39.20459156782532,4.0,7.0,11.0,11.180339887498949,10.198039027185569,25.079872407968907,18.110770276274835,16.0,15.0,11.0,3.0,12.0,5.0,1.0,2.0,2.0,2.0,18.0,19.0,20.024984394500787
55,64,366,0,12.212199999999912,3.1622776601683795,39.11521443121589,4.0,8.0,11.045361017187261,11.045361017187261,9.055385138137417,24.08318915758459,16.1245154965971,14.5,14.0,11.0,3.5,11.5,3.5,0.5,3.1622776601683795,3.1622776601683795,3.0,18.0,19.0,21.0
56,64,367,0,12.245566666666578,3.1622776601683795,38.118237105091836,4.0,7.0,10.04987562112089,11.045361017187261,10.04987562112089,24.08318915758459,17.11724276862369,15.5,15.0,12.0,3.5,10.5,3.5,0.5,4.0,4.123105625617661,4.0,18.0,19.0,22.0
57,64,368,0,12.278933333333244,1.0,36.124783736376884,4.0,7.0710678118654755,10.04987562112089,10.04987562112089,12.0,24.020824298928627,17.0,16.5,16.0,13.0,2.5,9.5,2.5,0.5,4.123105625617661,4.123105625617661,4.5,18.0,19.0,21.0
58,64,369,0,12.31229999999991,1.0,36.124783736376884,4.0,7.0710678118654755,10.0,11.045361017187261,12.0,24.020824298928627,17.0,16.5,16.0,13.0,2.5,9.5,1.5,0.5,4.0,4.0,4.0,18.0,19.0,21.02379604162864
59,64,370,0,12.345666666666576,1.0,35.12833614050059,3.0,8.0,10.04987562112089,10.04987562112089,12.041594578792296,24.020824298928627,16.0312195418814,15.5,16.0,13.0,2.5,9.5,1.5,0.5,5.0990195135927845,4.123105625617661,4.5,18.0,19.0,23.021728866442675
60,64,371,0,12.379033333333242,2.0,35.12833614050059,3.0,7.0,9.055385138137417,11.045361017187261,12.165525060596439,24.08318915758459,17.11724276862369,16.0,16.0,13.0,2.5,9.5,2.5,0.5,4.0,4.0,4.5,18.0,19.0,21.02379604162864
61,64,372,0,12.412399999999908,1.0,36.124783736376884,4.0,7.0710678118654755,9.055385138137417,10.198039027185569,12.165525060596439,24.186773244895647,17.11724276862369,16.5,16.0,13.0,2.5,9.5,3.5,0.5,5.0,5.0,5.5,18.0,19.0,21.02379604162864
62,64,373,0,12.445766666666572,5.0990195135927845,37.12142238654117,3.0,7.0,10.04987562112089,11.180339887498949,11.045361017187261,26.076809620810597,19.1049731745428,16.5,15.0,12.0,2.5,12.5,5.5,0.5,5.0,4.123105625617661,4.5,19.0,19.0,22.0
63,64,374,0,12.47913333333324,4.123105625617661,37.12142238654117,3.0,7.0,10.04987562112089,11.180339887498949,11.180339887498949,25.179356624028344,18.24828759089466,16.0,16.0,13.0,3.5,10.5,4.5,1.5,5.0990195135927845,4.0,4.5,19.0,19.0,22.0
64,64,375,0,12.512499999999903,4.0,37.12142238654117,2.23606797749979,6.0,10.04987562112089,10.04987562112089,12.041594578792296,24.08318915758459,18.110770276274835,16.0,16.0,13.0,2.5,9.5,3.5,1.5,5.0990195135927845,5.0,5.0,18.0,18.0,20.024984394500787
65,64,376,0,12.545866666666573,3.1622776601683795,36.124783736376884,3.0,8.0,9.055385138137417,11.180339887498949,10.44030650891055,24.331050121192877,16.492422502470642,14.5,14.0,11.0,2.5,11.5,3.5,0.5,5.0,5.0990195135927845,5.0,18.0,20.0,20.0
66,64,377,0,12.579233333333235,6.0,36.22154055254967,1.4142135623730951,6.082762530298219,10.04987562112089,10.198039027185569,11.180339887498949,24.331050121192877,18.24828759089466,15.0,14.0,10.0,1.0,12.0,6.0,0.0,5.0990195135927845,4.123105625617661,4.5,18.0,18.0,20.0
67,64,378,0,12.612599999999905,3.1622776601683795,35.12833614050059,2.23606797749979,7.0,8.06225774829855,9.219544457292887,11.045361017187261,23.194827009486403,16.278820596099706,14.5,14.0,11.0,1.5,10.5,4.5,0.5,5.0990195135927845,5.0,5.0,17.0,18.0,22.0
68,64,379,0,12.645966666666569,3.0,35.12833614050059,3.1622776601683795,6.082762530298219,9.055385138137417,9.219544457292887,11.180339887498949,23.345235059857504,17.26267650163207,15.5,14.0,11.0,1.5,10.5,4.5,0.5,4.0,4.123105625617661,4.0,18.0,18.0,21.02379604162864
69,64,380,0,12.679333333333236,1.0,33.24154027718932,3.1622776601683795,6.082762530298219,8.06225774829855,9.219544457292887,12.165525060596439,22.360679774997898,16.278820596099706,15.5,15.0,11.0,1.0,9.0,3.0,1.0,5.0,4.123105625617661,4.5,18.0,18.0,22.0
70,64,381,0,12.7126999999999,2.23606797749979,36.124783736376884,3.0,7.0,10.04987562112089,11.180339887498949,11.40175425099138,23.345235059857504,16.492422502470642,15.0,14.0,11.0,1.5,10.5,3.5,0.5,4.123105625617661,3.0,3.5,18.0,18.0,20.024984394500787
71,64,382,0,12.746066666666566,1.4142135623730951,34.23448553724738,3.0,7.0,9.055385138137417,10.04987562112089,11.180339887498949,22.20360331117452,15.297058540778355,14.5,14.0,10.0,1.0,10.0,3.0,1.0,5.0990195135927845,4.123105625617661,4.5,18.0,19.0,20.0
72,64,383,0,12.779433333333232,3.0,36.22154055254967,3.1622776601683795,7.0710678118654755,9.055385138137417,10.198039027185569,10.198039027185569,23.345235059857504,16.278820596099706,14.5,13.0,9.0,1.0,12.0,5.0,1.0,2.23606797749979,2.0,2.5,17.0,17.0,20.024984394500787
73,64,384,0,12.812799999999898,3.0,36.22154055254967,3.1622776601683795,7.0710678118654755,9.055385138137417,10.198039027185569,10.198039027185569,23.345235059857504,16.278820596099706,14.5,13.0,9.0,1.0,12.0,5.0,1.0,2.0,2.0,2.5,17.0,17.0,20.024984394500787
74,64,385,0,12.846166666666564,4.123105625617661,36.124783736376884,3.0,8.06225774829855,8.06225774829855,9.219544457292887,9.486832980505138,24.515301344262525,16.492422502470642,14.0,12.0,9.0,1.5,13.5,5.5,0.5,3.0,2.0,2.0,18.0,18.0,19.0
75,64,386,0,12.87953333333323,5.0990195135927845,36.124783736376884,2.23606797749979,7.0710678118654755,9.055385138137417,10.04987562112089,9.219544457292887,23.53720459187964,16.492422502470642,13.5,12.0,9.0,1.5,12.5,5.5,0.5,3.1622776601683795,3.1622776601683795,3.0,18.0,17.0,19.026297590440446
76,64,387,0,12.912899999999896,2.23606797749979,36.124783736376884,3.0,7.0,10.04987562112089,10.198039027185569,9.486832980505138,21.37755832643195,14.560219778561036,13.0,12.0,9.0,1.5,10.5,3.5,0.5,3.0,3.0,3.0,19.0,18.0,19.026297590440446
77,64,388,0,12.946266666666562,3.1622776601683795,37.12142238654117,3.0,7.0710678118654755,10.04987562112089,10.198039027185569,9.486832980505138,22.561028345356956,15.524174696260024,13.5,11.0,8.0,0.5,12.5,5.5,1.5,4.123105625617661,3.1622776601683795,3.5,19.0,18.0,20.024984394500787
78,64,389,0,12.979633333333227,3.1622776601683795,36.05551275463989,2.0,7.0710678118654755,10.04987562112089,11.180339887498949,10.44030650891055,22.561028345356956,15.524174696260024,13.5,11.0,9.0,0.0,12.0,5.0,1.0,4.123105625617661,3.1622776601683795,3.5,19.0,17.0,19.026297590440446
79,64,390,0,13.012999999999892,3.1622776601683795,37.12142238654117,3.1622776601683795,8.06225774829855,9.055385138137417,11.180339887498949,9.486832980505138,23.769728648009426,15.811388300841896,13.5,11.0,8.0,0.5,13.5,5.5,1.5,5.0990195135927845,3.0,3.5,19.0,17.0,20.024984394500787
80,64,391,0,13.04636666666656,3.1622776601683795,35.05709628591621,3.0,7.0710678118654755,9.0,10.198039027185569,9.848857801796104,22.80350850198276,15.811388300841896,13.5,12.0,10.0,2.0,11.0,4.0,0.0,5.0990195135927845,3.0,3.5,18.0,17.0,19.1049731745428
81,64,392,0,13.079733333333223,4.123105625617661,36.124783736376884,3.1622776601683795,8.0,9.055385138137417,10.198039027185569,9.486832980505138,24.515301344262525,16.76305461424021,14.0,12.0,9.0,1.5,13.5,5.5,0.5,4.123105625617661,4.0,4.5,20.0,18.0,18.027756377319946
82,64,393,0,13.113099999999893,5.0990195135927845,37.05401462729781,3.0,7.0710678118654755,8.06225774829855,10.198039027185569,9.486832980505138,24.515301344262525,17.46424919657298,14.5,11.0,9.0,1.0,14.0,7.0,1.0,4.0,3.0,3.5,19.0,17.0,19.026297590440446
83,64,394,0,13.146466666666557,5.0990195135927845,36.05551275463989,2.23606797749979,7.0710678118654755,9.0,10.04987562112089,10.44030650891055,24.73863375370596,17.72004514666935,14.5,11.0,9.0,0.0,14.0,7.0,2.0,4.123105625617661,3.1622776601683795,3.5,19.0,18.0,19.1049731745428
84,64,395,0,13.179833333333224,1.0,36.124783736376884,3.1622776601683795,8.06225774829855,9.055385138137417,10.198039027185569,10.198039027185569,22.360679774997898,14.317821063276353,13.5,12.0,9.0,0.5,11.5,3.5,1.5,4.123105625617661,4.0,4.0,19.0,18.0,20.024984394500787
85,64,396,0,13.213199999999889,3.1622776601683795,37.05401462729781,3.1622776601683795,7.0,9.055385138137417,10.198039027185569,10.198039027185569,23.345235059857504,16.492422502470642,14.5,12.0,10.0,1.0,12.0,5.0,1.0,4.0,4.0,4.5,20.0,18.0,20.09975124224178
86,64,397,0,13.246566666666554,2.0,36.05551275463989,3.0,6.082762530298219,9.055385138137417,10.04987562112089,10.44030650891055,21.37755832643195,15.297058540778355,14.0,12.0,10.0,1.0,10.0,3.0,1.0,5.0990195135927845,4.0,4.5,18.0,16.0,20.024984394500787
87,64,398,0,13.27993333333322,0.0,35.014282800023196,4.123105625617661,8.06225774829855,9.055385138137417,11.045361017187261,11.180339887498949,23.345235059857504,15.297058540778355,15.0,14.0,13.0,2.5,9.5,1.5,0.5,4.123105625617661,4.123105625617661,4.5,18.0,16.0,20.024984394500787
88,64,399,0,13.313299999999886,0.0,35.014282800023196,4.123105625617661,8.06225774829855,9.055385138137417,11.045361017187261,11.180339887498949,23.345235059857504,15.297058540778355,15.0,14.0,13.0,2.5,9.5,1.5,0.5,4.123105625617661,4.123105625617661,4.5,18.0,16.0,20.024984394500787
89,64,400,0,13.346666666666552,1.0,33.015148038438355,3.1622776601683795,7.0710678118654755,9.055385138137417,10.04987562112089,12.041594578792296,23.194827009486403,16.1245154965971,15.5,14.0,13.0,1.5,9.5,2.5,0.5,4.123105625617661,4.0,4.5,19.0,16.0,20.024984394500787
90,64,401,0,13.380033333333218,2.23606797749979,32.0624390837628,3.0,7.0,8.0,9.055385138137417,12.165525060596439,24.186773244895647,17.26267650163207,16.0,15.0,13.0,2.0,10.0,2.0,1.0,4.123105625617661,4.0,4.0,18.0,16.0,19.026297590440446
91,64,402,0,13.413399999999884,1.0,34.0147027033899,3.1622776601683795,7.0710678118654755,9.0,10.04987562112089,13.038404810405298,24.186773244895647,17.11724276862369,16.5,14.0,13.0,0.5,10.5,3.5,1.5,4.0,4.123105625617661,4.5,17.0,15.0,19.1049731745428
92,64,403,0,13.44676666666655,3.1622776601683795,34.0147027033899,4.0,8.0,8.0,10.0,10.44030650891055,25.317977802344327,17.46424919657298,15.5,14.0,13.0,3.5,11.5,3.5,0.5,4.0,4.0,4.0,19.0,17.0,20.09975124224178
93,64,404,0,13.480133333333216,3.1622776601683795,34.0147027033899,4.0,8.0,8.0,10.0,10.44030650891055,25.317977802344327,17.46424919657298,15.5,14.0,13.0,3.5,11.5,3.5,0.5,4.0,4.0,4.0,19.0,17.0,20.09975124224178
94,64,405,0,13.51349999999988,2.23606797749979,35.014282800023196,3.1622776601683795,7.0710678118654755,9.0,10.04987562112089,12.165525060596439,24.515301344262525,17.46424919657298,16.0,14.0,13.0,1.5,10.5,3.5,1.5,4.123105625617661,5.0,5.0,18.0,16.0,20.09975124224178
95,64,406,0,13.546866666666547,1.4142135623730951,34.0,2.23606797749979,7.0,10.0,11.045361017187261,13.341664064126334,23.53720459187964,16.76305461424021,15.5,14.0,14.0,1.0,9.0,2.0,0.0,3.1622776601683795,3.0,4.0,18.0,16.0,19.026297590440446
96,64,407,0,13.580233333333211,2.23606797749979,34.0,3.1622776601683795,6.082762530298219,9.0,9.0,11.40175425099138,22.80350850198276,16.76305461424021,15.0,13.0,13.0,2.0,9.0,3.0,1.0,4.123105625617661,3.0,4.0,19.0,17.0,20.09975124224178
97,64,408,0,13.61359999999988,2.8284271247461903,34.0,2.0,7.0710678118654755,9.0,10.0,12.36931687685298,23.769728648009426,16.76305461424021,15.0,13.0,13.0,1.0,10.0,3.0,1.0,3.1622776601683795,4.0,4.0,18.0,15.0,18.110770276274835
98,64,409,0,13.646966666666543,2.23606797749979,34.0,2.23606797749979,7.0710678118654755,9.0,10.0,12.36931687685298,23.769728648009426,16.76305461424021,15.0,13.0,13.0,1.0,10.0,3.0,1.0,3.1622776601683795,4.0,4.0,18.0,15.0,18.110770276274835
99,64,410,0,13.68033333333321,2.23606797749979,33.0,3.1622776601683795,8.246211251235321,9.0,10.0,10.198039027185569,23.769728648009426,15.524174696260024,14.0,12.0,12.0,2.0,11.0,3.0,0.0,4.123105625617661,3.0,3.5,18.0,16.0,19.1049731745428
100,64,411,0,13.713699999999877,5.385164807134504,36.0,2.23606797749979,8.06225774829855,10.0,10.04987562112089,9.486832980505138,25.0,17.08800749063506,13.5,11.0,11.0,2.0,13.0,5.0,0.0,4.0,4.0,4.5,19.0,17.0,19.026297590440446
101,64,412,0,13.747066666666544,7.280109889280518,35.05709628591621,2.0,7.0710678118654755,10.04987562112089,10.04987562112089,8.94427190999916,25.0,18.027756377319946,13.5,8.0,10.0,1.0,15.0,7.0,1.0,4.123105625617661,4.0,4.5,20.0,17.0,19.1049731745428
102,64,413,0,13.780433333333209,4.47213595499958,37.0,3.0,9.055385138137417,8.0,10.0,8.94427190999916,25.0,16.15549442140351,13.0,8.0,8.0,0.0,16.0,7.0,2.0,4.123105625617661,3.0,3.5,19.0,17.0,20.024984394500787
103,64,414,0,13.813799999999874,4.47213595499958,37.0,3.0,9.055385138137417,8.0,10.0,8.94427190999916,25.0,16.15549442140351,13.0,8.0,8.0,0.0,16.0,7.0,2.0,4.123105625617661,3.0,3.5,19.0,17.0,20.024984394500787
104,64,415,0,13.84716666666654,3.1622776601683795,35.0,3.1622776601683795,7.0710678118654755,9.0,9.055385138137417,9.486832980505138,22.80350850198276,15.811388300841896,13.5,9.0,9.0,0.0,13.0,6.0,2.0,4.0,4.0,4.5,18.0,16.0,20.024984394500787
105,64,416,0,13.880533333333206,2.8284271247461903,33.015148038438355,2.23606797749979,7.0710678118654755,8.0,9.055385138137417,11.180339887498949,22.80350850198276,15.811388300841896,14.0,10.0,11.0,0.5,11.5,3.5,2.5,4.0,3.0,3.5,19.0,16.0,20.09975124224178
106,64,417,0,13.913899999999872,2.23606797749979,33.015148038438355,3.1622776601683795,7.0710678118654755,9.055385138137417,9.055385138137417,11.180339887498949,22.80350850198276,15.811388300841896,14.5,12.0,13.0,1.5,9.5,2.5,0.5,4.123105625617661,4.0,4.0,19.0,17.0,19.1049731745428
107,64,418,0,13.947266666666538,1.4142135623730951,32.0,3.1622776601683795,7.0710678118654755,8.0,9.055385138137417,12.36931687685298,23.769728648009426,16.76305461424021,15.5,13.0,13.0,1.0,10.0,2.0,1.0,4.123105625617661,4.0,4.0,20.0,17.0,19.1049731745428
108,64,419,0,13.980633333333204,1.4142135623730951,32.0,3.1622776601683795,7.0710678118654755,8.0,9.055385138137417,12.36931687685298,23.769728648009426,16.76305461424021,15.5,13.0,13.0,1.0,10.0,2.0,1.0,4.123105625617661,4.0,4.0,20.0,17.0,19.1049731745428
109,64,420,0,14.01399999999987,1.4142135623730951,32.01562118716424,3.0,6.324555320336759,9.0,10.0,12.36931687685298,22.80350850198276,16.492422502470642,15.5,12.0,13.0,0.5,9.5,2.5,1.5,4.123105625617661,3.0,4.0,19.0,16.0,19.1049731745428
110,64,421,0,14.047366666666536,1.0,31.016124838541646,3.1622776601683795,7.0710678118654755,9.0,10.04987562112089,12.36931687685298,22.80350850198276,15.811388300841896,15.0,12.0,13.0,0.5,9.5,1.5,1.5,4.123105625617661,3.1622776601683795,3.5,19.0,15.0,18.110770276274835
111,64,422,0,14.0807333333332,1.4142135623730951,32.0,3.0,7.0710678118654755,9.0,9.055385138137417,11.40175425099138,22.561028345356956,15.524174696260024,14.5,12.0,12.0,1.0,10.0,2.0,1.0,4.123105625617661,4.0,4.0,19.0,16.0,21.095023109728988
112,64,423,0,14.114099999999867,1.0,32.0,3.1622776601683795,8.06225774829855,9.0,9.055385138137417,11.180339887498949,22.561028345356956,14.560219778561036,14.0,12.0,12.0,1.0,10.0,2.0,1.0,3.1622776601683795,4.0,4.0,18.0,15.0,17.029386365926403
113,64,424,0,14.147466666666531,1.4142135623730951,33.0,3.1622776601683795,7.0710678118654755,9.0,10.04987562112089,11.180339887498949,22.561028345356956,15.524174696260024,14.5,12.0,12.0,1.0,10.0,2.0,1.0,4.123105625617661,4.0,4.0,19.0,15.0,16.278820596099706
114,64,425,0,14.1808333333332,1.4142135623730951,33.0,3.1622776601683795,8.06225774829855,9.0,10.04987562112089,11.180339887498949,23.53720459187964,15.524174696260024,14.5,13.0,13.0,2.0,10.0,2.0,1.0,4.0,4.0,4.0,18.0,15.0,17.11724276862369
115,64,426,0,14.214199999999863,1.0,34.0,4.123105625617661,8.06225774829855,9.0,10.0,11.180339887498949,23.53720459187964,15.524174696260024,15.0,12.0,12.0,1.0,11.0,3.0,2.0,3.1622776601683795,4.0,4.0,19.0,15.0,19.235384061671343
116,64,427,0,14.24756666666653,1.0,34.0,4.123105625617661,8.06225774829855,9.0,10.04987562112089,11.180339887498949,24.331050121192877,16.278820596099706,15.5,12.0,12.0,1.0,12.0,3.0,3.0,4.123105625617661,4.123105625617661,4.0,18.0,14.0,20.223748416156685
117,64,428,0,14.280933333333197,4.0,35.0,3.1622776601683795,8.06225774829855,9.0,11.0,10.198039027185569,25.317977802344327,17.26267650163207,15.0,12.0,12.0,2.0,13.0,5.0,1.0,4.123105625617661,4.0,4.0,19.0,15.0,19.1049731745428
118,64,429,0,14.314299999999864,5.0990195135927845,35.0,3.1622776601683795,8.0,9.0,10.0,10.198039027185569,26.30589287593181,18.439088914585774,15.5,12.0,12.0,2.0,14.0,6.0,1.0,4.123105625617661,4.0,4.0,19.0,15.0,21.095023109728988
119,64,430,0,14.347666666666528,4.123105625617661,35.014282800023196,3.0,8.0,9.055385138137417,11.045361017187261,10.44030650891055,25.317977802344327,17.46424919657298,15.0,12.0,11.0,1.5,13.5,5.5,0.5,5.0990195135927845,4.0,4.0,19.0,15.0,19.1049731745428
120,64,431,0,14.381033333333194,1.0,35.014282800023196,4.123105625617661,8.06225774829855,9.0,10.04987562112089,10.198039027185569,23.345235059857504,15.297058540778355,14.5,13.0,12.0,2.5,10.5,2.5,1.5,4.123105625617661,4.0,4.5,18.0,15.0,19.1049731745428
121,64,432,0,14.41439999999986,1.4142135623730951,35.014282800023196,4.0,8.0,10.0,10.04987562112089,10.198039027185569,23.194827009486403,15.297058540778355,14.5,12.0,11.0,1.5,11.5,2.5,2.5,4.123105625617661,4.0,4.0,19.0,16.0,19.1049731745428
122,64,433,0,14.447766666666526,1.4142135623730951,36.013886210738214,4.0,7.0710678118654755,10.04987562112089,11.045361017187261,10.198039027185569,22.360679774997898,15.297058540778355,14.5,13.0,12.0,2.5,9.5,2.5,0.5,4.123105625617661,4.0,4.0,19.0,15.0,20.09975124224178
123,64,434,0,14.481133333333192,1.4142135623730951,36.013886210738214,4.0,7.0710678118654755,10.04987562112089,11.045361017187261,10.198039027185569,22.360679774997898,15.297058540778355,14.5,13.0,12.0,2.5,9.5,2.5,0.5,4.123105625617661,4.0,4.0,19.0,15.0,20.09975124224178
124,64,435,0,14.514499999999858,4.0,36.05551275463989,3.1622776601683795,8.06225774829855,10.0,11.045361017187261,10.44030650891055,25.495097567963924,17.46424919657298,15.0,13.0,11.0,2.0,13.0,5.0,0.0,4.0,4.0,4.0,18.0,15.0,20.09975124224178
125,64,436,0,14.547866666666524,3.1622776601683795,36.013886210738214,3.0,7.0710678118654755,10.0,11.045361017187261,9.486832980505138,22.561028345356956,15.524174696260024,13.5,12.0,11.0,2.5,10.5,3.5,0.5,4.0,4.0,4.0,18.0,15.0,18.110770276274835
126,64,437,0,14.58123333333319,4.123105625617661,37.0,3.1622776601683795,8.06225774829855,9.0,11.045361017187261,9.219544457292887,24.515301344262525,16.492422502470642,14.0,11.0,11.0,2.0,13.0,5.0,1.0,4.123105625617661,3.0,3.5,18.0,14.0,16.1245154965971
127,64,438,0,14.614599999999855,5.0990195135927845,37.0,3.0,7.0710678118654755,10.04987562112089,10.04987562112089,9.848857801796104,24.73863375370596,17.72004514666935,14.5,11.0,11.0,2.0,13.0,6.0,0.0,3.1622776601683795,3.0,3.5,18.0,15.0,18.110770276274835
128,64,439,0,14.64796666666652,5.0990195135927845,37.0,3.0,7.0710678118654755,10.04987562112089,10.04987562112089,9.848857801796104,24.73863375370596,17.72004514666935,14.5,11.0,11.0,2.0,13.0,6.0,0.0,3.1622776601683795,3.0,3.5,18.0,15.0,18.110770276274835
129,64,440,0,14.681333333333187,5.0990195135927845,38.0,3.1622776601683795,7.0710678118654755,9.0,10.04987562112089,8.54400374531753,23.769728648009426,16.76305461424021,13.5,9.0,9.0,1.0,14.0,6.0,2.0,4.123105625617661,4.0,4.0,19.0,15.0,19.1049731745428
130,64,441,0,14.714699999999851,2.23606797749979,37.0,4.123105625617661,8.06225774829855,10.04987562112089,11.045361017187261,9.486832980505138,23.769728648009426,15.811388300841896,14.0,10.0,10.0,1.0,13.0,5.0,2.0,3.1622776601683795,3.0,3.5,19.0,15.0,19.1049731745428
131,64,442,0,14.74806666666652,2.8284271247461903,38.0,4.0,8.0,9.0,10.04987562112089,8.54400374531753,22.561028345356956,14.866068747318506,13.0,9.0,9.0,1.0,13.0,5.0,2.0,4.123105625617661,4.0,4.0,18.0,14.0,19.1049731745428
132,64,443,0,14.781433333333185,3.1622776601683795,37.0,4.123105625617661,7.0710678118654755,10.0,11.045361017187261,8.54400374531753,22.80350850198276,15.811388300841896,13.5,9.0,9.0,1.0,13.0,5.0,2.0,4.123105625617661,3.0,4.0,19.0,14.0,18.24828759089466
133,64,444,0,14.81479999999985,3.1622776601683795,37.0,4.123105625617661,7.0710678118654755,10.0,11.045361017187261,8.54400374531753,22.80350850198276,15.811388300841896,13.5,9.0,9.0,1.0,13.0,5.0,2.0,4.123105625617661,3.0,4.0,19.0,14.0,18.24828759089466
134,64,445,0,14.848166666666517,2.23606797749979,36.0,3.0,8.06225774829855,10.04987562112089,11.045361017187261,9.848857801796104,22.80350850198276,14.866068747318506,13.0,9.0,9.0,0.0,13.0,5.0,2.0,4.123105625617661,4.0,4.5,20.0,15.0,20.223748416156685
135,64,446,0,14.881533333333184,2.23606797749979,37.013511046643494,4.0,8.06225774829855,10.0,11.045361017187261,9.486832980505138,23.53720459187964,15.524174696260024,14.0,11.0,10.0,1.5,12.5,4.5,1.5,4.123105625617661,3.1622776601683795,4.0,19.0,15.0,18.110770276274835
136,64,447,0,14.914899999999848,2.23606797749979,37.013511046643494,4.123105625617661,7.0,10.0,11.045361017187261,9.219544457292887,22.360679774997898,15.524174696260024,14.0,11.0,10.0,1.5,11.5,3.5,1.5,5.0990195135927845,3.0,3.5,19.0,14.0,19.1049731745428
137,64,448,0,14.948266666666514,2.23606797749979,37.0,4.0,8.06225774829855,10.04987562112089,11.045361017187261,9.486832980505138,23.53720459187964,15.524174696260024,14.0,12.0,12.0,3.0,11.0,3.0,0.0,3.0,3.0,3.0,18.0,13.0,17.11724276862369
138,64,449,0,14.98163333333318,3.1622776601683795,35.014282800023196,3.0,7.0710678118654755,10.04987562112089,10.04987562112089,10.198039027185569,23.345235059857504,16.278820596099706,14.5,12.0,11.0,1.5,11.5,3.5,0.5,4.0,3.1622776601683795,3.5,19.0,15.0,19.1049731745428
139,64,450,0,15.014999999999846,3.1622776601683795,38.01315561749642,3.0,8.06225774829855,10.04987562112089,11.045361017187261,9.486832980505138,23.53720459187964,15.524174696260024,13.5,12.0,11.0,2.5,11.5,3.5,0.5,4.123105625617661,4.0,4.0,18.0,14.0,19.235384061671343
140,64,451,0,15.048366666666512,4.123105625617661,37.05401462729781,3.1622776601683795,9.0,10.0,12.041594578792296,8.246211251235321,24.331050121192877,15.524174696260024,13.0,13.0,11.0,4.0,12.0,3.0,1.0,4.0,5.0,4.5,19.0,15.0,19.235384061671343
141,64,452,0,15.081733333333178,6.082762530298219,36.05551275463989,3.0,8.06225774829855,10.0,11.180339887498949,9.486832980505138,26.476404589747453,18.439088914585774,15.0,14.0,12.0,4.0,13.0,5.0,1.0,4.123105625617661,4.0,4.5,19.0,15.0,18.24828759089466
142,64,453,0,15.115099999999844,5.0990195135927845,37.0,3.1622776601683795,9.055385138137417,10.0,11.045361017187261,9.219544457292887,26.476404589747453,17.46424919657298,14.5,12.0,12.0,3.0,14.0,5.0,0.0,5.0,4.0,4.5,19.0,15.0,19.235384061671343
143,64,454,0,15.14846666666651,5.0990195135927845,37.0,3.1622776601683795,9.055385138137417,10.0,11.045361017187261,9.219544457292887,26.476404589747453,17.46424919657298,14.5,12.0,12.0,3.0,14.0,5.0,0.0,5.0,4.0,4.5,19.0,15.0,19.235384061671343
144,64,455,0,15.181833333333175,6.082762530298219,37.0,3.0,8.06225774829855,10.0,11.045361017187261,9.219544457292887,26.30589287593181,18.24828759089466,15.0,13.0,13.0,4.0,13.0,5.0,1.0,4.123105625617661,4.0,4.5,19.0,15.0,19.1049731745428
145,64,456,0,15.21519999999984,5.0990195135927845,36.0,4.0,8.06225774829855,9.0,10.0,8.246211251235321,25.317977802344327,17.26267650163207,14.5,12.0,12.0,4.0,13.0,4.0,0.0,5.0,4.0,4.5,19.0,15.0,19.235384061671343
146,64,457,0,15.248566666666507,2.0,35.0,5.0990195135927845,8.06225774829855,9.0,10.0,9.055385138137417,24.186773244895647,16.1245154965971,15.0,13.0,13.0,4.0,11.0,2.0,0.0,5.0,4.0,4.0,19.0,14.0,19.1049731745428
147,64,458,0,15.281933333333171,1.0,35.014282800023196,4.123105625617661,8.06225774829855,9.0,10.0,10.04987562112089,23.194827009486403,15.132745950421556,14.5,13.0,14.0,3.5,9.5,0.5,0.5,4.123105625617661,4.0,4.0,18.0,14.0,19.235384061671343
148,64,459,0,15.31529999999984,1.0,35.014282800023196,4.123105625617661,8.06225774829855,9.0,10.0,10.04987562112089,23.194827009486403,15.132745950421556,14.5,13.0,14.0,3.5,9.5,0.5,0.5,4.123105625617661,4.0,4.0,18.0,14.0,19.235384061671343
149,64,460,0,15.348666666666505,1.0,34.0,4.0,8.0,9.0,10.04987562112089,10.198039027185569,23.08679276123039,15.132745950421556,14.5,14.0,14.0,4.0,9.0,1.0,0.0,3.0,4.0,4.0,18.0,14.0,17.26267650163207
150,64,461,0,15.38203333333317,1.0,36.0,5.0990195135927845,8.0,10.0,11.045361017187261,10.0,24.020824298928627,16.0312195418814,15.5,15.0,15.0,5.0,9.0,0.0,0.0,4.0,4.123105625617661,4.0,17.0,13.0,18.110770276274835
151,64,462,0,15.415399999999837,2.23606797749979,35.014282800023196,5.0,7.0,9.055385138137417,11.0,10.04987562112089,24.08318915758459,17.11724276862369,16.0,15.0,16.0,5.5,8.5,0.5,0.5,4.0,3.0,3.5,19.0,14.0,18.24828759089466
152,64,463,0,15.448766666666502,8.0,36.0,4.123105625617661,8.06225774829855,9.0,11.0,9.055385138137417,29.154759474226502,21.095023109728988,17.0,15.0,15.0,6.0,14.0,6.0,2.0,5.0990195135927845,4.0,4.0,19.0,14.0,19.235384061671343
153,64,464,0,15.482133333333168,8.0,36.0,4.123105625617661,8.06225774829855,9.0,11.0,9.055385138137417,29.154759474226502,21.095023109728988,17.0,15.0,15.0,6.0,14.0,6.0,2.0,5.0990195135927845,4.0,4.0,19.0,14.0,19.235384061671343
154,64,465,0,15.515499999999834,7.0710678118654755,37.0,5.0,8.0,10.0,12.0,8.06225774829855,28.071337695236398,20.09975124224178,16.5,15.0,15.0,7.0,13.0,5.0,2.0,4.0,4.0,4.0,19.0,14.0,17.26267650163207
155,64,466,0,15.5488666666665,6.0,37.0,5.0990195135927845,8.06225774829855,10.04987562112089,12.0,9.055385138137417,28.160255680657446,20.09975124224178,17.0,15.0,15.0,6.0,13.0,5.0,1.0,4.123105625617661,4.0,4.5,18.0,14.0,17.26267650163207
156,64,467,0,15.582233333333166,6.082762530298219,37.013511046643494,5.0990195135927845,8.0,10.0,11.0,9.0,28.071337695236398,20.09975124224178,17.0,15.0,16.0,6.5,12.5,4.5,1.5,4.0,3.0,3.5,18.0,14.0,19.235384061671343
157,64,468,0,15.615599999999832,7.0710678118654755,38.01315561749642,5.0,7.0,9.0,11.045361017187261,9.055385138137417,28.071337695236398,21.095023109728988,17.5,15.0,16.0,6.5,12.5,4.5,1.5,4.0,4.0,4.0,19.0,15.0,19.235384061671343
158,64,469,0,15.648966666666498,6.082762530298219,38.0,5.0,8.0,10.0,12.0,9.055385138137417,28.071337695236398,20.09975124224178,17.0,15.0,15.0,6.0,13.0,4.0,1.0,4.0,4.0,4.0,19.0,14.0,17.26267650163207
159,64,470,0,15.682333333333164,6.0,37.013511046643494,5.0990195135927845,9.055385138137417,10.0,12.041594578792296,9.0,29.068883707497267,20.024984394500787,17.0,15.0,16.0,6.5,13.5,4.5,1.5,3.0,3.0,3.0,17.0,13.0,17.11724276862369
160,64,471,0,15.71569999999983,7.0710678118654755,37.013511046643494,5.0,8.0,10.0,11.0,9.055385138137417,29.068883707497267,21.095023109728988,17.5,16.0,17.0,7.5,12.5,3.5,2.5,4.0,4.0,4.0,18.0,14.0,18.110770276274835
161,64,472,0,15.749066666666495,7.0710678118654755,38.0,5.0,8.0,10.0,11.0,9.055385138137417,29.068883707497267,21.095023109728988,17.5,16.0,16.0,7.0,13.0,5.0,2.0,4.123105625617661,3.0,3.0,18.0,14.0,19.1049731745428
162,64,473,0,15.78243333333316,4.0,36.013886210738214,5.0990195135927845,9.055385138137417,10.0,11.0,10.0,28.071337695236398,19.026297590440446,17.0,16.0,17.0,6.5,11.5,2.5,1.5,4.0,4.0,4.0,17.0,13.0,18.110770276274835
163,64,474,0,15.815799999999829,4.0,36.013886210738214,5.0990195135927845,9.055385138137417,10.0,11.0,10.0,28.071337695236398,19.026297590440446,17.0,16.0,17.0,6.5,11.5,2.5,1.5,4.0,4.0,4.0,17.0,13.0,18.110770276274835
164,64,475,0,15.849166666666491,7.0710678118654755,37.0,5.0,8.0,10.04987562112089,11.0,9.055385138137417,29.068883707497267,21.095023109728988,17.5,15.0,15.0,6.0,14.0,6.0,1.0,4.0,4.0,4.0,18.0,14.0,18.110770276274835
165,64,476,0,15.88253333333316,6.082762530298219,37.013511046643494,5.0990195135927845,8.0,11.045361017187261,11.0,9.0,28.071337695236398,20.09975124224178,17.0,15.0,16.0,6.5,12.5,3.5,1.5,4.0,4.0,4.0,18.0,15.0,17.26267650163207
166,64,477,0,15.915899999999825,5.0990195135927845,36.013886210738214,5.0,8.0,11.0,11.0,9.055385138137417,27.073972741361768,19.1049731745428,16.5,14.0,15.0,5.5,12.5,3.5,1.5,4.0,4.0,3.5,18.0,14.0,17.26267650163207
167,64,478,0,15.94926666666649,5.0990195135927845,36.0,5.0,7.0,10.0,11.0,9.0,26.019223662515376,19.026297590440446,16.5,15.0,15.0,6.0,11.0,3.0,2.0,4.0,4.0,4.0,17.0,14.0,19.235384061671343
168,64,479,0,15.982633333333157,5.0990195135927845,36.0,4.0,8.0,10.0,12.0,9.055385138137417,26.076809620810597,18.110770276274835,15.5,15.0,15.0,6.0,11.0,3.0,2.0,4.0,3.0,3.5,17.0,13.0,18.110770276274835
169,64,480,0,16.015999999999824,4.0,36.0,4.123105625617661,8.0,10.0,11.0,10.0,26.019223662515376,18.027756377319946,16.0,16.0,16.0,6.0,10.0,1.0,2.0,3.0,4.0,3.5,17.0,13.0,18.110770276274835
170,64,481,0,16.04936666666649,2.0,35.0,4.0,7.0,9.0,11.0,11.0,24.0,17.0,16.0,16.0,16.0,5.0,8.0,0.0,2.0,3.0,2.23606797749979,2.5,17.0,13.0,17.26267650163207
171,64,482,0,16.082733333333156,2.0,36.0,4.123105625617661,7.0,10.0,11.0,12.0,25.019992006393608,18.027756377319946,17.0,17.0,17.0,5.0,8.0,0.0,2.0,3.0,3.0,3.0,17.0,13.0,18.110770276274835
172,64,483,0,16.116099999999822,1.0,35.014282800023196,4.123105625617661,7.0,10.0,10.0,12.0,24.020824298928627,17.029386365926403,16.5,17.0,16.0,4.5,7.5,0.5,1.5,4.0,3.0,3.5,17.0,13.0,18.24828759089466
173,64,484,0,16.149466666666488,1.0,35.014282800023196,4.123105625617661,7.0,10.0,10.0,12.0,24.020824298928627,17.029386365926403,16.5,17.0,16.0,4.5,7.5,0.5,1.5,4.0,3.0,3.5,17.0,13.0,18.24828759089466
174,64,485,0,16.182833333333154,3.1622776601683795,36.013886210738214,4.0,7.0,10.0,11.045361017187261,12.0,26.019223662515376,19.026297590440446,17.5,18.0,17.0,5.5,8.5,0.5,1.5,4.0,3.0,3.5,17.0,14.0,18.24828759089466
175,64,486,0,16.21619999999982,3.0,37.013511046643494,5.0990195135927845,8.0,10.0,11.0,11.045361017187261,27.0,19.0,17.5,18.0,17.0,6.5,9.5,0.5,2.5,3.0,2.23606797749979,2.5,18.0,13.0,17.26267650163207
176,64,487,0,16.249566666666485,3.0,36.013886210738214,4.123105625617661,8.0,9.0,10.0,12.041594578792296,27.0,19.0,17.5,18.0,17.0,5.5,9.5,0.5,2.5,3.0,3.0,3.5,18.0,14.0,18.24828759089466
177,64,488,0,16.28293333333315,5.0990195135927845,36.0,4.0,8.0,9.0,10.04987562112089,11.0,28.0178514522438,20.024984394500787,17.5,19.0,19.0,8.0,9.0,0.0,4.0,3.0,3.0,3.5,18.0,13.0,18.24828759089466
178,64,489,0,16.316299999999817,6.082762530298219,36.013886210738214,4.0,8.0,10.0,11.045361017187261,11.0,29.017236257093817,21.02379604162864,18.0,19.0,18.0,7.5,10.5,2.5,3.5,3.0,3.0,3.5,17.0,13.0,17.26267650163207
179,64,490,0,16.349666666666483,5.0,35.014282800023196,4.123105625617661,7.0,9.0,11.0,11.045361017187261,27.0,20.0,17.5,18.0,19.0,7.5,8.5,0.5,3.5,3.0,3.0,3.0,18.0,14.0,18.24828759089466
180,64,491,0,16.38303333333315,7.0,36.013886210738214,5.0990195135927845,6.0,10.04987562112089,10.0,10.0,28.0178514522438,22.02271554554524,18.5,18.0,19.0,8.5,9.5,2.5,3.5,4.0,4.123105625617661,4.0,18.0,14.0,16.278820596099706
181,64,492,0,16.416399999999815,6.0,35.014282800023196,5.0,7.0,9.055385138137417,10.0,10.0,28.0,21.0,18.0,18.0,19.0,8.5,9.5,1.5,3.5,3.0,3.0,3.5,18.0,14.0,17.11724276862369
182,64,493,0,16.44976666666648,5.0,36.05551275463989,4.0,7.0710678118654755,10.04987562112089,12.041594578792296,10.0,26.019223662515376,19.0,16.5,17.0,19.0,8.0,8.0,0.0,3.0,3.0,2.0,2.5,18.0,13.0,15.132745950421556
183,64,494,0,16.483133333333146,5.0,36.05551275463989,4.0,7.0710678118654755,10.04987562112089,12.041594578792296,10.0,26.019223662515376,19.0,16.5,17.0,19.0,8.0,8.0,0.0,3.0,3.0,2.0,2.5,18.0,13.0,15.132745950421556
184,64,495,0,16.516499999999812,3.0,36.05551275463989,5.0,8.0,10.04987562112089,11.045361017187261,10.04987562112089,26.019223662515376,18.027756377319946,16.5,17.0,19.0,8.0,8.0,1.0,3.0,4.0,3.0,3.0,18.0,13.0,17.26267650163207
185,64,496,0,16.549866666666478,1.0,37.05401462729781,5.0,8.0,11.0,11.0,10.0,24.0,16.0,15.5,16.0,18.0,7.0,7.0,1.0,2.0,3.0,3.1622776601683795,3.0,18.0,12.0,16.278820596099706
186,64,497,0,16.583233333333144,2.0,36.013886210738214,5.0,8.0,10.0,11.0,10.04987562112089,25.019992006393608,17.029386365926403,16.0,16.0,17.0,6.5,8.5,0.5,1.5,3.0,3.0,3.0,18.0,11.0,17.26267650163207
187,64,498,0,16.61659999999981,3.0,35.05709628591621,4.0,7.0710678118654755,10.0,10.0,11.045361017187261,25.0,18.027756377319946,16.5,17.0,19.0,7.0,7.0,1.0,3.0,3.1622776601683795,4.123105625617661,4.0,19.0,11.0,17.46424919657298
188,64,499,0,16.649966666666476,1.0,33.015148038438355,5.0,8.06225774829855,10.0,11.0,11.045361017187261,25.0,17.029386365926403,16.5,17.0,18.0,6.5,7.5,1.5,2.5,4.123105625617661,3.1622776601683795,3.0,19.0,11.0,18.681541692269406
189,64,500,0,16.68333333333314,1.0,35.05709628591621,6.0,8.06225774829855,10.04987562112089,11.0,10.0,25.019992006393608,17.0,16.5,17.0,19.0,8.0,7.0,2.0,2.0,3.1622776601683795,2.0,2.5,19.0,11.0,16.492422502470642
190,64,501,0,16.716699999999808,1.0,34.058772731852805,5.0990195135927845,8.0,10.0,11.0,10.04987562112089,24.0,16.0,15.5,16.0,18.0,7.0,7.0,2.0,2.0,3.1622776601683795,3.0,3.0,20.0,12.0,17.46424919657298
191,64,502,0,16.750066666666473,1.0,35.05709628591621,5.0990195135927845,8.0,10.04987562112089,11.045361017187261,11.0,25.019992006393608,17.029386365926403,16.5,17.0,19.0,7.0,7.0,2.0,2.0,3.1622776601683795,2.23606797749979,2.0,19.0,10.0,16.76305461424021
192,64,503,0,16.78343333333314,1.0,33.13608305156178,5.0,7.0710678118654755,9.0,10.04987562112089,10.04987562112089,23.0,16.0312195418814,15.5,16.0,19.0,7.5,5.5,2.5,2.5,3.1622776601683795,3.0,3.0,19.0,10.0,16.76305461424021
193,64,504,0,16.816799999999805,0.0,35.12833614050059,5.0,8.06225774829855,11.0,11.045361017187261,10.0,23.021728866442675,15.0,15.0,16.0,19.0,7.5,5.5,2.5,2.5,4.123105625617661,3.0,3.0,19.0,10.0,16.492422502470642
194,64,505,0,16.85016666666647,1.0,32.38826948140329,5.0990195135927845,8.06225774829855,10.198039027185569,10.04987562112089,9.0,23.08679276123039,15.033296378372908,14.5,15.0,20.0,8.5,5.5,3.5,2.5,4.123105625617661,3.1622776601683795,3.0,19.0,10.0,16.492422502470642
195,64,506,0,16.883533333333137,6.0,35.22782990761707,5.0990195135927845,7.0710678118654755,10.198039027185569,11.180339887498949,8.06225774829855,26.1725046566048,19.1049731745428,16.0,15.0,19.0,9.0,9.0,0.0,3.0,3.1622776601683795,3.0,3.0,21.0,11.0,16.492422502470642
196,64,507,0,16.916899999999803,9.0,35.35533905932738,4.123105625617661,7.0710678118654755,10.198039027185569,12.165525060596439,8.06225774829855,28.160255680657446,21.095023109728988,16.5,14.0,19.0,8.5,11.5,2.5,3.5,3.1622776601683795,3.1622776601683795,3.0,20.0,10.0,17.26267650163207
197,64,508,0,16.95026666666647,11.0,34.23448553724738,4.123105625617661,7.0710678118654755,11.180339887498949,12.165525060596439,8.0,30.066592756745816,23.021728866442675,17.5,15.0,19.0,9.0,13.0,4.0,4.0,3.0,3.1622776601683795,3.0,19.0,9.0,16.76305461424021
198,64,509,0,16.983633333333135,8.0,36.49657518178932,5.0990195135927845,7.0710678118654755,10.198039027185569,11.045361017187261,8.06225774829855,28.160255680657446,21.095023109728988,17.0,14.0,20.0,9.0,11.0,3.0,3.0,3.1622776601683795,3.1622776601683795,2.5,20.0,10.0,15.297058540778355
199,64,510,0,17.0169999999998,9.055385138137417,35.510561809129406,5.0990195135927845,7.0,10.04987562112089,12.041594578792296,8.06225774829855,29.154759474226502,22.20360331117452,17.5,14.0,20.0,9.0,12.0,3.0,4.0,4.123105625617661,4.0,4.0,21.0,11.0,16.492422502470642
200,64,511,0,17.050366666666466,9.055385138137417,34.36568055487916,4.0,7.280109889280518,10.198039027185569,12.165525060596439,9.219544457292887,29.427877939124322,22.20360331117452,17.5,14.0,19.0,7.5,12.5,3.5,2.5,3.1622776601683795,3.1622776601683795,3.0,21.0,11.0,16.76305461424021
201,64,512,0,17.083733333333132,9.219544457292887,35.35533905932738,5.0,7.0710678118654755,10.04987562112089,11.045361017187261,8.246211251235321,29.427877939124322,22.360679774997898,17.5,14.0,19.0,8.5,12.5,4.5,3.5,3.1622776601683795,4.123105625617661,4.0,21.0,11.0,18.027756377319946
202,64,513,0,17.117099999999798,8.246211251235321,35.35533905932738,4.0,8.06225774829855,10.198039027185569,11.045361017187261,9.219544457292887,29.427877939124322,21.37755832643195,17.0,14.0,19.0,7.5,12.5,3.5,2.5,3.1622776601683795,3.1622776601683795,3.0,21.0,10.0,15.811388300841896
203,64,514,0,17.150466666666464,8.246211251235321,35.35533905932738,4.0,8.06225774829855,10.198039027185569,11.045361017187261,9.219544457292887,29.427877939124322,21.37755832643195,17.0,14.0,19.0,7.5,12.5,3.5,2.5,3.1622776601683795,3.1622776601683795,3.0,21.0,10.0,15.811388300841896
204,64,515,0,17.18383333333313,8.06225774829855,35.510561809129406,5.0990195135927845,8.06225774829855,10.198039027185569,11.045361017187261,8.246211251235321,29.427877939124322,21.37755832643195,17.0,13.0,19.0,8.0,13.0,4.0,2.0,4.123105625617661,4.123105625617661,3.5,21.0,11.0,13.601470508735444
205,64,516,0,17.217199999999796,7.0710678118654755,35.510561809129406,5.0990195135927845,8.246211251235321,11.180339887498949,12.041594578792296,8.246211251235321,28.635642126552707,20.396078054371138,16.5,12.0,18.0,7.0,13.0,4.0,2.0,4.123105625617661,3.1622776601683795,3.0,21.0,10.0,15.811388300841896
206,64,517,0,17.25056666666646,3.1622776601683795,36.345563690772494,4.123105625617661,8.06225774829855,11.180339887498949,12.041594578792296,8.06225774829855,23.345235059857504,15.297058540778355,13.5,12.0,17.0,6.5,8.5,0.5,1.5,4.0,4.0,4.0,21.0,11.0,15.811388300841896
207,64,518,0,17.283933333333128,2.23606797749979,34.23448553724738,5.0990195135927845,7.0710678118654755,10.04987562112089,11.045361017187261,8.06225774829855,22.360679774997898,15.297058540778355,14.0,13.0,17.0,7.0,7.0,1.0,2.0,3.1622776601683795,3.0,3.0,20.0,10.0,15.811388300841896
208,64,519,0,17.317299999999793,2.0,35.22782990761707,4.123105625617661,7.0710678118654755,10.04987562112089,10.04987562112089,9.055385138137417,22.20360331117452,15.132745950421556,14.0,12.0,16.0,5.0,8.0,0.0,1.0,3.1622776601683795,3.1622776601683795,3.0,21.0,10.0,16.76305461424021
209,64,520,0,17.35066666666646,4.123105625617661,34.23448553724738,4.0,8.06225774829855,10.04987562112089,10.0,8.06225774829855,24.186773244895647,16.1245154965971,14.0,11.0,15.0,5.0,11.0,2.0,1.0,4.123105625617661,3.0,3.5,21.0,11.0,16.76305461424021
210,64,521,0,17.384033333333125,7.0710678118654755,36.22154055254967,5.0990195135927845,9.055385138137417,9.055385138137417,11.045361017187261,8.246211251235321,29.427877939124322,20.396078054371138,16.5,13.0,17.0,7.0,14.0,5.0,2.0,3.1622776601683795,3.1622776601683795,3.0,21.0,11.0,17.46424919657298
211,64,522,0,17.41739999999979,9.219544457292887,34.132096331752024,4.0,8.06225774829855,10.04987562112089,11.0,8.246211251235321,29.427877939124322,21.37755832643195,16.5,13.0,16.0,6.5,14.5,5.5,1.5,4.123105625617661,3.1622776601683795,3.5,21.0,12.0,16.492422502470642
212,64,523,0,17.450766666666457,6.082762530298219,36.22154055254967,4.123105625617661,8.06225774829855,10.04987562112089,11.045361017187261,9.219544457292887,27.459060435491963,19.4164878389476,16.0,13.0,17.0,6.0,12.0,3.0,1.0,4.123105625617661,4.123105625617661,4.0,20.0,11.0,16.76305461424021
213,64,524,0,17.484133333333123,6.082762530298219,36.22154055254967,4.123105625617661,8.06225774829855,10.04987562112089,11.045361017187261,9.219544457292887,27.459060435491963,19.4164878389476,16.0,13.0,17.0,6.0,12.0,3.0,1.0,4.123105625617661,4.123105625617661,4.0,20.0,11.0,16.76305461424021
214,64,525,0,17.51749999999979,7.0710678118654755,35.22782990761707,4.0,7.0710678118654755,11.045361017187261,11.0,8.246211251235321,26.30589287593181,19.235384061671343,15.5,12.0,16.0,6.0,12.0,5.0,2.0,5.0990195135927845,4.123105625617661,4.5,22.0,13.0,16.492422502470642
215,64,526,0,17.550866666666455,6.082762530298219,35.12833614050059,4.123105625617661,8.06225774829855,10.04987562112089,11.045361017187261,9.219544457292887,27.459060435491963,19.4164878389476,16.0,13.0,16.0,5.5,12.5,3.5,0.5,3.1622776601683795,3.0,3.0,21.0,12.0,18.439088914585774
216,64,527,0,17.58423333333312,4.123105625617661,35.22782990761707,5.0990195135927845,9.055385138137417,11.180339887498949,12.041594578792296,8.246211251235321,26.476404589747453,17.46424919657298,15.0,12.0,16.0,6.0,12.0,2.0,0.0,3.1622776601683795,4.123105625617661,4.0,21.0,12.0,16.492422502470642
217,64,528,0,17.617599999999786,5.0990195135927845,35.22782990761707,5.0990195135927845,9.055385138137417,10.04987562112089,11.0,9.219544457292887,28.442925306655784,19.4164878389476,16.5,13.0,17.0,6.0,13.0,3.0,1.0,4.123105625617661,4.0,4.0,22.0,13.0,16.76305461424021
218,64,529,0,17.650966666666452,5.0990195135927845,35.22782990761707,5.0990195135927845,9.055385138137417,10.04987562112089,11.0,9.219544457292887,28.442925306655784,19.4164878389476,16.5,13.0,17.0,6.0,13.0,3.0,1.0,4.123105625617661,4.0,4.0,22.0,13.0,16.76305461424021
219,64,530,0,17.684333333333118,3.1622776601683795,35.22782990761707,4.123105625617661,9.055385138137417,10.198039027185569,11.045361017187261,9.055385138137417,25.317977802344327,16.278820596099706,14.5,12.0,16.0,5.0,11.0,1.0,0.0,4.123105625617661,3.1622776601683795,3.5,21.0,11.0,18.439088914585774
220,64,531,0,17.717699999999784,1.4142135623730951,35.22782990761707,4.123105625617661,8.06225774829855,11.045361017187261,11.045361017187261,10.04987562112089,23.345235059857504,15.297058540778355,14.5,12.0,16.0,4.0,9.0,0.0,0.0,4.123105625617661,4.123105625617661,4.0,21.0,12.0,16.492422502470642
221,64,532,0,17.75106666666645,1.4142135623730951,34.058772731852805,4.0,8.06225774829855,10.04987562112089,11.0,10.198039027185569,23.345235059857504,15.297058540778355,14.5,14.0,16.0,5.0,8.0,1.0,1.0,3.1622776601683795,4.123105625617661,4.0,21.0,12.0,18.439088914585774
222,64,533,0,17.784433333333116,1.0,35.05709628591621,4.123105625617661,9.219544457292887,10.04987562112089,11.0,9.055385138137417,23.345235059857504,14.142135623730951,13.5,13.0,15.0,5.0,9.0,0.0,1.0,4.123105625617661,3.0,3.5,21.0,12.0,17.72004514666935
223,64,534,0,17.81779999999978,1.0,35.05709628591621,4.123105625617661,9.219544457292887,10.04987562112089,11.0,9.055385138137417,23.345235059857504,14.142135623730951,13.5,13.0,15.0,5.0,9.0,0.0,1.0,4.123105625617661,3.0,3.5,21.0,12.0,17.72004514666935
224,64,535,0,17.851166666666447,2.23606797749979,35.12833614050059,4.123105625617661,9.055385138137417,10.04987562112089,11.0,8.06225774829855,23.345235059857504,14.317821063276353,13.0,12.0,15.0,5.5,9.5,0.5,1.5,4.123105625617661,4.0,4.0,22.0,13.0,17.72004514666935
225,64,536,0,17.884533333333113,3.1622776601683795,34.058772731852805,4.123105625617661,8.06225774829855,10.0,11.0,9.055385138137417,24.331050121192877,16.278820596099706,14.5,12.0,14.0,4.0,11.0,2.0,0.0,4.123105625617661,3.1622776601683795,3.5,22.0,13.0,19.6468827043885
226,64,537,0,17.91789999999978,3.1622776601683795,34.132096331752024,4.123105625617661,7.0710678118654755,10.04987562112089,10.04987562112089,10.04987562112089,24.331050121192877,17.26267650163207,15.5,12.0,15.0,3.5,10.5,2.5,0.5,3.1622776601683795,4.123105625617661,4.0,21.0,12.0,18.439088914585774
227,64,538,0,17.951266666666445,1.4142135623730951,35.12833614050059,4.123105625617661,7.0710678118654755,10.0,10.0,12.041594578792296,24.331050121192877,17.26267650163207,16.5,13.0,16.0,2.5,9.5,1.5,0.5,5.0990195135927845,4.123105625617661,4.5,21.0,12.0,19.4164878389476
228,64,539,0,17.98463333333311,1.4142135623730951,35.12833614050059,4.123105625617661,7.0710678118654755,9.0,11.0,12.041594578792296,24.331050121192877,17.26267650163207,16.5,13.0,16.0,2.5,9.5,1.5,0.5,5.0990195135927845,4.123105625617661,4.5,21.0,12.0,17.46424919657298
229,64,540,0,18.017999999999777,1.4142135623730951,36.124783736376884,4.123105625617661,6.082762530298219,10.0,11.045361017187261,11.045361017187261,22.360679774997898,16.278820596099706,15.5,12.0,15.0,2.5,8.5,1.5,0.5,4.123105625617661,4.123105625617661,4.5,19.0,12.0,19.4164878389476
230,64,541,0,18.051366666666443,1.0,35.05709628591621,4.123105625617661,7.0710678118654755,10.0,11.045361017187261,11.045361017187261,23.194827009486403,16.1245154965971,15.5,12.0,14.0,2.0,10.0,2.0,1.0,4.123105625617661,4.123105625617661,4.0,20.0,12.0,18.439088914585774
231,64,542,0,18.08473333333311,1.4142135623730951,35.014282800023196,4.0,8.06225774829855,10.0,11.0,10.198039027185569,23.345235059857504,15.297058540778355,14.5,12.0,13.0,2.5,10.5,2.5,1.5,4.123105625617661,3.0,3.5,20.0,12.0,17.46424919657298
232,64,543,0,18.11809999999977,1.4142135623730951,36.05551275463989,4.0,8.06225774829855,10.0,11.0,10.198039027185569,23.345235059857504,15.297058540778355,14.5,12.0,14.0,3.0,10.0,2.0,1.0,4.123105625617661,4.123105625617661,4.5,20.0,13.0,18.24828759089466
233,64,544,0,18.15146666666644,1.4142135623730951,36.05551275463989,4.0,8.06225774829855,10.0,11.0,10.198039027185569,23.345235059857504,15.297058540778355,14.5,12.0,14.0,3.0,10.0,2.0,1.0,4.123105625617661,4.123105625617661,4.5,20.0,13.0,18.24828759089466
234,64,545,0,18.184833333333103,2.0,36.013886210738214,3.1622776601683795,8.06225774829855,11.0,11.0,10.198039027185569,23.345235059857504,15.297058540778355,14.0,12.0,13.0,2.5,10.5,1.5,0.5,4.123105625617661,4.123105625617661,4.5,19.0,12.0,18.439088914585774
235,64,546,0,18.21819999999977,2.0,36.013886210738214,4.123105625617661,8.06225774829855,10.0,11.045361017187261,9.219544457292887,23.345235059857504,15.297058540778355,14.0,12.0,13.0,3.5,10.5,2.5,0.5,5.385164807134504,4.0,4.5,19.0,12.0,19.4164878389476
236,64,547,0,18.25156666666644,3.0,36.013886210738214,3.1622776601683795,8.06225774829855,11.0,12.041594578792296,9.219544457292887,23.345235059857504,15.297058540778355,13.5,12.0,13.0,3.5,10.5,2.5,0.5,4.47213595499958,4.0,4.5,20.0,12.0,19.235384061671343
237,64,548,0,18.284933333333104,4.123105625617661,36.05551275463989,4.123105625617661,9.055385138137417,10.0,11.0,8.246211251235321,25.495097567963924,16.492422502470642,14.0,11.0,13.0,4.0,13.0,4.0,0.0,5.0990195135927845,3.0,3.5,21.0,13.0,17.46424919657298
238,64,549,0,18.31829999999977,4.123105625617661,36.05551275463989,4.123105625617661,9.055385138137417,10.0,11.0,8.246211251235321,25.495097567963924,16.492422502470642,14.0,11.0,13.0,4.0,13.0,4.0,0.0,5.0990195135927845,3.0,3.5,21.0,13.0,17.46424919657298
239,64,550,0,18.35166666666644,5.0990195135927845,36.013886210738214,3.1622776601683795,9.055385138137417,11.0,12.0,8.246211251235321,25.495097567963924,16.492422502470642,13.5,11.0,12.0,3.5,13.5,3.5,0.5,5.0990195135927845,3.0,3.5,20.0,12.0,17.46424919657298
240,64,551,0,18.3850333333331,4.123105625617661,35.014282800023196,3.1622776601683795,9.055385138137417,10.0,12.0,9.486832980505138,25.709920264364882,16.76305461424021,14.0,11.0,12.0,2.5,13.5,4.5,0.5,4.123105625617661,4.0,4.5,20.0,12.0,16.492422502470642
241,64,552,0,18.418399999999767,3.1622776601683795,35.014282800023196,4.123105625617661,9.055385138137417,10.0,11.0,9.219544457292887,25.495097567963924,16.492422502470642,14.5,11.0,12.0,2.5,13.5,4.5,0.5,4.47213595499958,3.0,3.0,21.0,13.0,16.492422502470642
242,64,553,0,18.45176666666644,2.23606797749979,35.014282800023196,4.0,8.246211251235321,10.0,10.0,9.486832980505138,23.769728648009426,15.524174696260024,14.0,10.0,11.0,1.5,12.5,4.5,1.5,4.123105625617661,3.1622776601683795,3.5,21.0,12.0,17.46424919657298
243,64,554,0,18.4851333333331,2.23606797749979,35.014282800023196,4.0,8.246211251235321,10.0,10.0,9.486832980505138,23.769728648009426,15.524174696260024,14.0,10.0,11.0,1.5,12.5,4.5,1.5,4.123105625617661,3.1622776601683795,3.5,21.0,12.0,17.46424919657298
244,64,555,0,18.518499999999765,1.4142135623730951,33.015148038438355,3.0,8.246211251235321,10.0,10.0,9.486832980505138,21.840329667841555,13.601470508735444,12.5,9.0,10.0,0.5,11.5,2.5,1.5,4.123105625617661,3.1622776601683795,3.5,21.0,13.0,17.26267650163207
245,64,556,0,18.55186666666643,1.4142135623730951,34.0147027033899,3.1622776601683795,8.06225774829855,10.04987562112089,10.0,10.44030650891055,22.80350850198276,14.866068747318506,13.5,10.0,11.0,0.5,11.5,2.5,1.5,4.47213595499958,3.1622776601683795,3.5,20.0,12.0,17.46424919657298
246,64,557,0,18.585233333333097,1.4142135623730951,36.013886210738214,3.0,7.280109889280518,10.0,10.04987562112089,10.44030650891055,21.840329667841555,14.560219778561036,13.5,9.0,10.0,0.5,11.5,3.5,2.5,4.47213595499958,4.0,4.5,20.0,12.0,16.492422502470642
247,64,558,0,18.618599999999763,3.0,34.0147027033899,2.23606797749979,7.280109889280518,9.0,10.0,10.44030650891055,22.80350850198276,15.524174696260024,13.5,10.0,11.0,0.5,11.5,3.5,1.5,4.123105625617661,4.0,4.0,20.0,13.0,16.278820596099706
248,64,559,0,18.65196666666643,3.0,34.0147027033899,2.23606797749979,7.280109889280518,9.0,10.0,10.44030650891055,22.80350850198276,15.524174696260024,13.5,10.0,11.0,0.5,11.5,3.5,1.5,4.123105625617661,4.0,4.0,20.0,13.0,16.278820596099706
249,64,560,0,18.68533333333309,2.8284271247461903,36.0,2.23606797749979,7.0710678118654755,10.0,11.045361017187261,10.198039027185569,21.840329667841555,14.866068747318506,13.0,9.0,9.0,1.0,12.0,4.0,3.0,4.123105625617661,4.123105625617661,4.0,20.0,13.0,18.24828759089466
250,64,561,0,18.71869999999976,2.23606797749979,37.013511046643494,3.0,7.280109889280518,10.0,11.045361017187261,9.848857801796104,22.135943621178654,14.866068747318506,13.0,9.0,10.0,0.5,11.5,4.5,2.5,5.0990195135927845,4.0,4.5,20.0,12.0,19.235384061671343
251,64,562,0,18.752066666666423,2.23606797749979,36.013886210738214,3.1622776601683795,7.280109889280518,10.0,10.0,9.486832980505138,22.135943621178654,14.866068747318506,13.0,9.0,10.0,0.5,11.5,4.5,2.5,5.0990195135927845,4.0,4.0,20.0,13.0,17.26267650163207
252,64,563,0,18.78543333333309,2.23606797749979,37.013511046643494,3.1622776601683795,7.0710678118654755,10.04987562112089,11.045361017187261,9.486832980505138,21.840329667841555,14.866068747318506,13.0,8.0,9.0,0.5,12.5,4.5,2.5,4.123105625617661,4.0,4.0,20.0,13.0,17.26267650163207
253,64,564,0,18.81879999999976,2.23606797749979,30.0,3.0,6.0,8.0,9.0,7.280109889280518,18.24828759089466,12.36931687685298,11.0,10.0,10.0,3.0,8.0,2.0,0.0,2.0,2.0,2.5,15.0,11.0,14.142135623730951
254,64,565,0,18.852166666666424,2.23606797749979,31.0,3.0,7.0,8.0,9.0,8.246211251235321,20.223748416156685,13.341664064126334,12.0,10.0,10.0,2.0,10.0,3.0,1.0,2.23606797749979,3.0,3.0,15.0,12.0,15.132745950421556
255,64,566,0,18.88553333333309,2.23606797749979,30.0,3.0,7.0710678118654755,8.06225774829855,9.0,8.246211251235321,20.396078054371138,13.341664064126334,12.0,10.0,10.0,2.0,10.0,3.0,1.0,2.23606797749979,2.0,2.5,14.0,11.0,15.033296378372908
256,64,567,0,18.91889999999976,2.0,30.0,3.1622776601683795,7.0710678118654755,8.0,9.055385138137417,7.280109889280518,19.4164878389476,12.36931687685298,11.0,9.0,9.0,2.0,10.0,3.0,1.0,2.23606797749979,2.0,2.5,14.0,11.0,14.142135623730951
257,64,568,0,18.95226666666642,2.23606797749979,30.0,3.1622776601683795,7.0,8.06225774829855,9.0,8.246211251235321,20.396078054371138,13.601470508735444,12.0,10.0,10.0,2.0,10.0,3.0,1.0,2.23606797749979,2.23606797749979,2.5,14.0,11.0,13.152946437965905
258,64,569,0,18.985633333333087,2.23606797749979,30.0,3.1622776601683795,7.0,8.06225774829855,9.0,8.246211251235321,20.396078054371138,13.601470508735444,12.0,10.0,10.0,2.0,10.0,3.0,1.0,2.23606797749979,2.23606797749979,2.5,14.0,11.0,13.152946437965905
259,64,570,0,19.01899999999976,2.23606797749979,30.0,3.1622776601683795,7.0,8.06225774829855,9.0,8.246211251235321,20.396078054371138,13.601470508735444,12.0,10.0,10.0,2.0,10.0,3.0,1.0,2.23606797749979,2.23606797749979,2.5,14.0,11.0,13.152946437965905
260,64,571,0,19.05236666666642,2.23606797749979,30.0,3.1622776601683795,7.0,8.06225774829855,9.0,8.246211251235321,20.396078054371138,13.601470508735444,12.0,10.0,10.0,2.0,10.0,3.0,1.0,2.23606797749979,2.23606797749979,2.5,14.0,11.0,13.152946437965905
261,64,572,0,19.085733333333085,2.23606797749979,30.0,3.0,6.082762530298219,8.0,8.06225774829855,7.280109889280518,18.439088914585774,12.36931687685298,11.0,9.0,9.0,2.0,9.0,2.0,1.0,2.0,2.0,2.5,14.0,11.0,14.142135623730951
262,64,573,0,19.11909999999975,2.23606797749979,31.0,3.0,7.0,8.0,9.055385138137417,7.615773105863909,19.4164878389476,12.649110640673518,11.0,9.0,9.0,2.0,10.0,3.0,1.0,2.0,2.0,2.5,14.0,11.0,14.142135623730951
263,64,574,0,19.152466666666417,2.0,31.0,3.1622776601683795,7.0710678118654755,8.0,9.0,7.280109889280518,19.4164878389476,12.36931687685298,11.0,9.0,9.0,2.0,10.0,3.0,1.0,2.0,2.0,2.5,14.0,11.0,14.142135623730951
264,64,575,0,19.185833333333083,2.0,31.0,3.1622776601683795,6.082762530298219,8.0,9.0,7.280109889280518,18.439088914585774,12.36931687685298,11.0,9.0,9.0,2.0,9.0,3.0,1.0,2.0,2.23606797749979,2.5,14.0,11.0,14.142135623730951
265,64,576,0,19.21919999999975,2.0,31.0,3.1622776601683795,6.082762530298219,8.0,9.055385138137417,7.280109889280518,18.439088914585774,12.36931687685298,11.0,9.0,9.0,2.0,9.0,3.0,1.0,2.0,2.23606797749979,2.0,14.0,11.0,14.142135623730951
266,64,577,0,19.25256666666641,3.0,31.0,3.1622776601683795,7.0710678118654755,8.0,9.0,7.280109889280518,20.396078054371138,13.341664064126334,11.5,9.0,9.0,2.0,11.0,4.0,1.0,2.0,2.23606797749979,2.0,14.0,11.0,14.035668847618199
267,64,578,0,19.28593333333308,3.1622776601683795,31.0,3.0,6.0,8.0,9.0,7.280109889280518,19.235384061671343,13.341664064126334,11.5,9.0,9.0,2.0,10.0,3.0,1.0,2.0,2.0,2.0,14.0,11.0,14.142135623730951
268,64,579,0,19.319299999999743,2.0,31.0,3.1622776601683795,6.082762530298219,9.0,9.055385138137417,7.280109889280518,18.439088914585774,12.36931687685298,11.0,9.0,9.0,2.0,9.0,3.0,1.0,2.0,2.23606797749979,2.5,14.0,11.0,14.142135623730951
269,64,580,0,19.35266666666641,2.23606797749979,30.01666203960727,3.1622776601683795,7.0,9.0,9.0,7.280109889280518,19.4164878389476,12.649110640673518,11.0,9.0,10.0,2.5,9.5,2.5,0.5,2.23606797749979,2.0,2.0,14.0,11.0,14.035668847618199
270,64,581,0,19.38603333333308,2.23606797749979,30.0,3.0,6.0,8.0,9.0,7.280109889280518,18.24828759089466,12.36931687685298,11.0,9.0,9.0,2.0,9.0,3.0,1.0,2.0,2.23606797749979,2.5,13.0,11.0,14.142135623730951
271,64,582,0,19.419399999999744,2.0,30.0,3.1622776601683795,7.0710678118654755,8.0,9.0,7.0710678118654755,19.235384061671343,12.165525060596439,11.0,9.0,9.0,2.0,10.0,3.0,1.0,2.0,2.0,2.5,14.0,11.0,13.038404810405298
272,64,583,0,19.45276666666641,2.0,31.0,3.1622776601683795,7.0710678118654755,8.0,9.055385138137417,7.280109889280518,19.4164878389476,12.36931687685298,11.0,9.0,9.0,2.0,10.0,3.0,1.0,2.0,2.23606797749979,2.5,14.0,11.0,14.142135623730951
273,64,584,0,19.48613333333308,2.0,31.0,3.1622776601683795,7.0710678118654755,8.0,9.055385138137417,7.280109889280518,19.4164878389476,12.36931687685298,11.0,9.0,9.0,2.0,10.0,3.0,1.0,2.0,2.23606797749979,2.5,14.0,11.0,14.142135623730951
274,64,585,0,19.51949999999974,3.0,31.0,3.1622776601683795,7.0710678118654755,8.0,9.055385138137417,7.280109889280518,20.396078054371138,13.341664064126334,11.5,10.0,10.0,3.0,10.0,3.0,0.0,2.0,2.23606797749979,2.0,14.0,11.0,14.142135623730951
275,64,586,0,19.552866666666407,4.0,31.016124838541646,3.1622776601683795,5.0990195135927845,8.0,10.0,8.246211251235321,20.396078054371138,15.297058540778355,13.0,11.0,12.0,3.5,8.5,2.5,0.5,2.0,2.23606797749979,2.0,15.0,12.0,15.033296378372908
276,64,587,0,19.58623333333308,4.123105625617661,31.016124838541646,3.0,7.0710678118654755,9.0,10.0,8.246211251235321,22.360679774997898,15.297058540778355,13.0,11.0,12.0,3.5,10.5,3.5,0.5,2.0,2.0,2.0,15.0,12.0,15.132745950421556
277,64,588,0,19.61959999999974,3.1622776601683795,32.0624390837628,4.0,7.0,9.055385138137417,10.0,7.280109889280518,21.213203435596427,14.317821063276353,12.5,10.0,12.0,4.0,10.0,3.0,0.0,1.4142135623730951,2.0,2.0,16.0,12.0,17.11724276862369
278,64,589,0,19.652966666666405,3.1622776601683795,32.0624390837628,4.0,7.0,9.055385138137417,10.0,7.280109889280518,21.213203435596427,14.317821063276353,12.5,10.0,12.0,4.0,10.0,3.0,0.0,1.4142135623730951,2.0,2.0,16.0,12.0,17.11724276862369
279,64,590,0,19.68633333333307,4.0,33.06055050963308,3.1622776601683795,6.082762530298219,10.0,10.0,7.0710678118654755,20.223748416156685,14.142135623730951,12.0,10.0,12.0,4.0,9.0,3.0,1.0,1.0,1.0,1.0,16.0,11.0,15.132745950421556
280,64,591,0,19.719699999999737,3.0,32.14031735997639,3.1622776601683795,6.082762530298219,10.04987562112089,10.0,9.055385138137417,21.213203435596427,15.132745950421556,13.5,11.0,14.0,3.5,8.5,1.5,0.5,2.23606797749979,2.0,2.0,16.0,11.0,15.297058540778355
281,64,592,0,19.753066666666403,2.0,30.14962686336267,4.123105625617661,6.082762530298219,9.0,10.0,8.06225774829855,20.223748416156685,14.142135623730951,13.0,11.0,14.0,4.5,7.5,0.5,1.5,2.23606797749979,2.0,2.0,17.0,10.0,15.297058540778355
282,64,593,0,19.78643333333307,2.0,29.154759474226502,4.123105625617661,6.082762530298219,8.06225774829855,9.0,9.055385138137417,21.213203435596427,15.132745950421556,14.0,12.0,15.0,4.5,7.5,0.5,0.5,3.1622776601683795,3.0,3.0,18.0,10.0,17.26267650163207
283,64,594,0,19.81979999999973,2.0,29.154759474226502,4.123105625617661,7.0710678118654755,8.06225774829855,9.055385138137417,9.055385138137417,22.20360331117452,15.132745950421556,14.0,12.0,15.0,4.5,8.5,0.5,0.5,3.0,3.0,3.5,18.0,9.0,16.492422502470642
284,64,595,0,19.8531666666664,3.1622776601683795,29.274562336608895,3.1622776601683795,6.082762530298219,8.06225774829855,10.0,9.055385138137417,21.37755832643195,15.297058540778355,13.5,11.0,15.0,4.0,8.0,1.0,1.0,3.1622776601683795,3.1622776601683795,3.0,18.0,9.0,16.492422502470642
285,64,596,0,19.886533333333063,1.0,28.160255680657446,4.123105625617661,7.0710678118654755,8.06225774829855,9.055385138137417,10.04987562112089,22.20360331117452,15.132745950421556,14.5,12.0,15.0,3.5,8.5,0.5,0.5,3.1622776601683795,3.1622776601683795,3.0,18.0,9.0,15.524174696260024
286,64,597,0,19.91989999999973,3.0,27.16615541441225,3.1622776601683795,7.0710678118654755,8.06225774829855,9.055385138137417,10.04987562112089,23.194827009486403,16.1245154965971,14.5,12.0,15.0,3.5,9.5,1.5,0.5,2.0,3.1622776601683795,3.0,18.0,9.0,14.560219778561036
287,64,598,0,19.9532666666664,3.0,27.294688127912362,3.1622776601683795,6.082762530298219,7.0710678118654755,8.06225774829855,10.04987562112089,22.20360331117452,16.1245154965971,14.5,12.0,16.0,4.0,8.0,1.0,0.0,3.1622776601683795,3.1622776601683795,3.0,19.0,10.0,16.492422502470642
288,64,599,0,19.986633333333064,4.123105625617661,27.16615541441225,3.1622776601683795,5.0990195135927845,7.0,8.0,10.04987562112089,22.360679774997898,17.26267650163207,15.0,12.0,15.0,3.5,8.5,2.5,0.5,3.1622776601683795,3.1622776601683795,3.0,19.0,10.0,14.560219778561036
289,64,600,0,20.01999999999973,4.123105625617661,29.154759474226502,4.0,7.0710678118654755,7.0710678118654755,8.06225774829855,9.219544457292887,24.331050121192877,17.26267650163207,15.0,12.0,15.0,4.5,10.5,2.5,0.5,3.1622776601683795,2.0,3.0,17.0,9.0,14.560219778561036
290,64,601,0,20.053366666666395,5.0990195135927845,30.265491900843113,4.123105625617661,7.0710678118654755,8.06225774829855,9.055385138137417,9.055385138137417,25.317977802344327,18.24828759089466,15.5,12.0,16.0,5.0,11.0,3.0,0.0,3.1622776601683795,3.1622776601683795,3.5,17.0,9.0,15.524174696260024
291,64,602,0,20.08673333333306,4.0,31.144823004794873,4.123105625617661,7.0710678118654755,8.0,9.055385138137417,8.06225774829855,23.194827009486403,16.1245154965971,14.0,11.0,14.0,4.5,10.5,3.5,0.5,3.1622776601683795,3.1622776601683795,3.0,18.0,9.0,15.297058540778355
292,64,603,0,20.120099999999727,5.0990195135927845,31.144823004794873,3.0,7.0710678118654755,9.055385138137417,9.0,8.246211251235321,23.345235059857504,16.278820596099706,13.5,10.0,13.0,3.5,11.5,3.5,0.5,3.1622776601683795,2.23606797749979,2.5,17.0,9.0,15.524174696260024
293,64,604,0,20.1534666666664,5.0990195135927845,31.144823004794873,3.0,7.0710678118654755,9.055385138137417,9.0,8.246211251235321,23.345235059857504,16.278820596099706,13.5,10.0,13.0,3.5,11.5,3.5,0.5,3.1622776601683795,2.23606797749979,2.5,17.0,9.0,15.524174696260024
294,64,605,0,20.18683333333306,3.1622776601683795,29.154759474226502,4.123105625617661,7.0710678118654755,8.06225774829855,9.0,8.246211251235321,22.561028345356956,15.524174696260024,13.5,10.0,13.0,3.5,10.5,2.5,0.5,3.0,3.0,3.0,18.0,10.0,15.524174696260024
295,64,606,0,20.220199999999725,3.1622776601683795,30.14962686336267,4.123105625617661,7.0710678118654755,8.06225774829855,9.055385138137417,8.06225774829855,22.360679774997898,15.297058540778355,13.5,10.0,13.0,3.5,10.5,2.5,0.5,3.1622776601683795,3.1622776601683795,2.5,18.0,10.0,14.560219778561036
296,64,607,0,20.25356666666639,3.1622776601683795,30.14962686336267,4.123105625617661,6.082762530298219,8.06225774829855,9.055385138137417,8.06225774829855,21.37755832643195,15.297058540778355,13.5,10.0,13.0,3.5,9.5,2.5,0.5,3.0,2.23606797749979,2.0,18.0,9.0,15.524174696260024
297,64,608,0,20.286933333333057,2.23606797749979,30.14962686336267,3.1622776601683795,7.0710678118654755,8.06225774829855,9.055385138137417,9.055385138137417,21.37755832643195,14.317821063276353,13.0,10.0,13.0,2.5,9.5,1.5,0.5,3.1622776601683795,3.1622776601683795,3.0,17.0,8.0,13.601470508735444
298,64,609,0,20.32029999999972,2.0,29.154759474226502,3.1622776601683795,7.0710678118654755,8.06225774829855,8.06225774829855,9.219544457292887,21.37755832643195,14.317821063276353,13.0,10.0,13.0,2.5,9.5,1.5,0.5,4.123105625617661,3.0,3.0,17.0,8.0,14.866068747318506
299,64,610,0,20.35366666666639,2.23606797749979,29.154759474226502,2.23606797749979,7.0710678118654755,8.06225774829855,9.055385138137417,10.198039027185569,21.587033144922902,14.560219778561036,13.0,10.0,13.0,1.5,9.5,1.5,0.5,3.1622776601683795,2.23606797749979,2.5,16.0,9.0,14.560219778561036
300,64,611,0,20.38703333333305,1.4142135623730951,31.144823004794873,3.1622776601683795,6.082762530298219,7.0710678118654755,8.06225774829855,10.04987562112089,20.396078054371138,14.317821063276353,13.5,10.0,13.0,1.5,8.5,1.5,1.5,3.1622776601683795,2.0,2.5,17.0,9.0,15.811388300841896
301,64,612,0,20.42039999999972,1.4142135623730951,30.265491900843113,3.0,5.0990195135927845,8.06225774829855,9.0,10.04987562112089,19.235384061671343,14.142135623730951,13.5,10.0,14.0,2.0,7.0,1.0,1.0,3.1622776601683795,3.0,3.0,17.0,9.0,15.524174696260024
302,64,613,0,20.453766666666382,1.4142135623730951,30.265491900843113,3.0,6.082762530298219,7.0710678118654755,9.0,10.198039027185569,20.396078054371138,14.317821063276353,13.5,10.0,14.0,2.0,8.0,1.0,1.0,3.1622776601683795,3.1622776601683795,3.0,17.0,9.0,15.524174696260024
303,64,614,0,20.48713333333305,1.4142135623730951,30.265491900843113,3.0,6.082762530298219,7.0710678118654755,9.0,10.198039027185569,20.396078054371138,14.317821063276353,13.5,10.0,14.0,2.0,8.0,1.0,1.0,3.1622776601683795,3.1622776601683795,3.0,17.0,9.0,15.524174696260024
304,64,615,0,20.52049999999972,1.4142135623730951,30.265491900843113,3.0,6.082762530298219,7.0710678118654755,8.06225774829855,10.04987562112089,20.223748416156685,14.142135623730951,13.5,10.0,14.0,2.0,8.0,1.0,1.0,3.0,3.1622776601683795,3.0,17.0,9.0,16.278820596099706
305,64,616,0,20.553866666666384,2.0,29.154759474226502,3.1622776601683795,6.082762530298219,8.06225774829855,9.055385138137417,9.055385138137417,20.223748416156685,14.142135623730951,13.0,10.0,13.0,2.5,8.5,1.5,0.5,2.0,3.1622776601683795,2.5,18.0,10.0,16.492422502470642
306,64,617,0,20.58723333333305,2.0,32.14031735997639,2.23606797749979,6.082762530298219,8.0,9.0,10.04987562112089,20.223748416156685,14.142135623730951,13.0,11.0,14.0,2.5,7.5,0.5,0.5,3.1622776601683795,3.0,3.0,17.0,10.0,15.297058540778355
307,64,618,0,20.620599999999715,2.0,31.064449134018133,3.0,6.082762530298219,8.06225774829855,9.055385138137417,9.055385138137417,20.09975124224178,14.035668847618199,13.0,11.0,13.0,3.0,8.0,1.0,0.0,2.23606797749979,3.1622776601683795,3.0,17.0,10.0,15.297058540778355
308,64,619,0,20.65396666666638,2.0,31.064449134018133,3.0,6.082762530298219,8.0,9.055385138137417,9.055385138137417,20.09975124224178,14.035668847618199,13.0,11.0,13.0,3.0,8.0,1.0,0.0,3.0,3.1622776601683795,3.0,17.0,10.0,15.297058540778355
309,64,620,0,20.687333333333047,2.0,30.066592756745816,3.0,6.082762530298219,8.0,9.0,9.0,20.024984394500787,14.0,13.0,11.0,13.0,3.0,8.0,1.0,0.0,3.1622776601683795,3.1622776601683795,3.0,17.0,10.0,16.278820596099706
310,64,621,0,20.72069999999972,1.4142135623730951,30.01666203960727,3.0,7.0,8.06225774829855,9.0,10.04987562112089,21.095023109728988,14.142135623730951,13.5,12.0,13.0,2.5,8.5,1.5,0.5,3.0,3.0,3.0,16.0,11.0,16.492422502470642
311,64,622,0,20.75406666666638,1.0,30.01666203960727,4.123105625617661,7.0,9.0,9.055385138137417,9.055385138137417,20.024984394500787,13.038404810405298,13.0,12.0,13.0,3.5,7.5,0.5,0.5,4.0,2.0,2.5,17.0,11.0,18.24828759089466
312,64,623,0,20.787433333333045,1.0,28.0178514522438,3.1622776601683795,7.0,8.0,8.06225774829855,10.0,21.02379604162864,14.035668847618199,13.5,12.0,13.0,2.5,8.5,1.5,0.5,3.0,3.0,2.5,17.0,11.0,16.278820596099706
313,64,624,0,20.82079999999971,1.0,29.0,3.1622776601683795,7.0,8.0,8.06225774829855,10.0,21.02379604162864,14.035668847618199,13.5,13.0,13.0,3.0,8.0,1.0,0.0,3.1622776601683795,3.0,3.0,17.0,11.0,17.26267650163207
314,64,625,0,20.854166666666377,1.0,29.017236257093817,3.0,7.0710678118654755,7.0,8.0,10.04987562112089,21.095023109728988,14.035668847618199,13.5,12.0,13.0,2.5,8.5,1.5,0.5,3.1622776601683795,3.0,3.5,16.0,11.0,16.278820596099706
315,64,626,0,20.88753333333304,0.0,28.0178514522438,3.1622776601683795,7.0,7.0,8.06225774829855,11.0,21.02379604162864,14.035668847618199,14.0,13.0,14.0,2.5,7.5,0.5,0.5,3.0,3.0,3.0,15.0,11.0,16.278820596099706
316,64,627,0,20.92089999999971,1.0,30.0,3.0,7.0,8.0,9.055385138137417,11.045361017187261,22.02271554554524,15.033296378372908,14.5,14.0,14.0,3.0,8.0,1.0,0.0,3.0,2.0,2.5,15.0,11.0,16.278820596099706
317,64,628,0,20.95426666666637,1.0,29.017236257093817,3.0,7.0,7.0,8.0,11.045361017187261,22.02271554554524,15.033296378372908,14.5,14.0,13.0,2.5,8.5,1.5,0.5,3.0,3.0,2.5,14.0,11.0,17.11724276862369
318,64,629,0,20.98763333333304,1.0,29.017236257093817,3.0,7.0,7.0,8.0,11.045361017187261,22.02271554554524,15.033296378372908,14.5,14.0,13.0,2.5,8.5,1.5,0.5,3.0,3.0,2.5,14.0,11.0,17.11724276862369
319,64,630,0,21.020999999999702,1.0,30.01666203960727,4.123105625617661,6.0,7.0,8.0,9.0,20.024984394500787,14.035668847618199,13.5,13.0,12.0,3.5,7.5,1.5,0.5,3.0,2.0,2.0,15.0,12.0,16.1245154965971
320,64,631,0,21.05436666666637,1.0,30.0,4.123105625617661,6.0,8.0,9.0,9.0,20.024984394500787,14.035668847618199,13.5,13.0,13.0,4.0,7.0,1.0,1.0,2.0,3.0,3.0,14.0,12.0,17.11724276862369
321,64,632,0,21.08773333333304,2.23606797749979,30.066592756745816,3.0,5.0,7.0,8.0,10.0,20.024984394500787,15.033296378372908,14.0,14.0,12.0,3.0,7.0,2.0,1.0,3.0,2.0,2.0,14.0,12.0,15.132745950421556
322,64,633,0,21.121099999999704,5.0990195135927845,31.064449134018133,2.0,5.0,7.0,8.06225774829855,10.0,22.02271554554524,17.029386365926403,14.5,14.0,12.0,3.0,9.0,3.0,1.0,2.0,2.0,2.5,14.0,12.0,15.132745950421556
323,64,634,0,21.15446666666637,4.123105625617661,31.064449134018133,3.0,5.0,8.0,9.0,10.0,22.02271554554524,17.029386365926403,15.0,14.0,12.0,3.0,9.0,3.0,1.0,3.0,2.0,2.5,14.0,12.0,15.132745950421556
324,64,635,0,21.187833333333035,2.23606797749979,31.016124838541646,3.0,6.0,7.0710678118654755,8.06225774829855,10.0,21.02379604162864,15.033296378372908,14.0,14.0,13.0,3.5,7.5,1.5,1.5,3.0,2.0,2.5,13.0,11.0,14.142135623730951
325,64,636,0,21.2211999999997,2.23606797749979,30.066592756745816,3.0,5.0,8.0,8.06225774829855,10.0,20.024984394500787,15.033296378372908,14.0,14.0,12.0,3.0,7.0,2.0,1.0,2.23606797749979,2.0,2.5,13.0,12.0,15.033296378372908
326,64,637,0,21.254566666666367,2.0,30.066592756745816,3.0,6.0,7.0,9.055385138137417,9.0,20.0,14.0,13.0,13.0,11.0,3.0,8.0,2.0,0.0,2.0,2.0,2.0,13.0,12.0,16.1245154965971
327,64,638,0,21.28793333333304,2.23606797749979,29.068883707497267,3.0,6.0,8.06225774829855,8.06225774829855,10.0,21.02379604162864,15.033296378372908,14.0,14.0,12.0,3.0,8.0,2.0,1.0,2.0,2.0,2.0,13.0,12.0,16.1245154965971
328,64,639,0,21.3212999999997,2.23606797749979,29.068883707497267,3.0,6.0,8.06225774829855,8.06225774829855,10.0,21.02379604162864,15.033296378372908,14.0,14.0,12.0,3.0,8.0,2.0,1.0,2.0,2.0,2.0,13.0,12.0,16.1245154965971
329,64,640,0,21.354666666666365,1.0,30.14962686336267,3.0,6.0,8.06225774829855,9.055385138137417,10.0,20.0,14.0,13.5,14.0,11.0,2.5,7.5,1.5,0.5,3.0,2.0,2.5,13.0,12.0,15.033296378372908
330,64,641,0,21.38803333333303,1.0,29.068883707497267,4.0,6.0,8.06225774829855,8.06225774829855,9.0,20.0,14.0,13.5,14.0,12.0,4.0,7.0,1.0,1.0,3.0,3.0,3.0,13.0,12.0,15.033296378372908
331,64,642,0,21.421399999999696,1.4142135623730951,29.068883707497267,3.0,6.082762530298219,8.0,9.055385138137417,10.04987562112089,20.024984394500787,14.0,13.5,14.0,12.0,3.0,7.0,1.0,0.0,3.0,3.0,3.0,14.0,12.0,16.1245154965971
332,64,643,0,21.45476666666636,1.0,29.154759474226502,3.0,7.0,8.0,9.055385138137417,10.04987562112089,21.02379604162864,14.035668847618199,13.5,15.0,12.0,3.5,7.5,0.5,0.5,3.0,2.23606797749979,2.5,14.0,13.0,16.0312195418814
333,64,644,0,21.488133333333028,1.0,29.154759474226502,3.0,7.0,8.0,9.055385138137417,10.04987562112089,21.02379604162864,14.035668847618199,13.5,15.0,12.0,3.5,7.5,0.5,0.5,3.0,2.23606797749979,2.5,14.0,13.0,16.0312195418814
334,64,645,0,21.52149999999969,0.0,28.160255680657446,3.0,7.0,8.0,9.055385138137417,11.0,21.0,14.0,14.0,15.0,12.0,2.5,7.5,0.5,0.5,2.23606797749979,3.0,3.0,14.0,13.0,15.132745950421556
335,64,646,0,21.55486666666636,1.0,30.01666203960727,3.0,6.0,7.0710678118654755,9.055385138137417,10.0,20.0,14.0,13.5,13.0,12.0,2.5,7.5,1.5,0.5,2.0,3.0,3.0,13.0,12.0,15.132745950421556
336,64,647,0,21.588233333333022,1.0,30.066592756745816,3.0,6.0,7.0710678118654755,8.06225774829855,10.0,20.0,14.0,13.5,14.0,12.0,3.0,7.0,1.0,1.0,2.0,3.1622776601683795,3.0,14.0,13.0,15.033296378372908
337,64,648,0,21.62159999999969,0.0,30.01666203960727,4.0,7.0,8.0,9.055385138137417,10.04987562112089,21.02379604162864,14.035668847618199,14.0,14.0,13.0,3.5,7.5,0.5,0.5,2.0,2.0,2.5,13.0,12.0,16.0312195418814
338,64,649,0,21.65496666666636,0.0,30.01666203960727,4.0,7.0,8.0,9.055385138137417,10.04987562112089,21.02379604162864,14.035668847618199,14.0,14.0,13.0,3.5,7.5,0.5,0.5,2.0,2.0,2.5,13.0,12.0,16.0312195418814
339,64,650,0,21.688333333333023,1.0,30.01666203960727,3.0,7.0,8.0,9.0,10.0,21.0,14.0,13.5,13.0,12.0,2.5,8.5,1.5,0.5,3.0,2.0,2.0,14.0,13.0,15.033296378372908
340,64,651,0,21.72169999999969,5.0990195135927845,30.01666203960727,3.0,6.0,8.0,9.055385138137417,8.06225774829855,22.090722034374522,16.1245154965971,13.5,13.0,12.0,4.5,9.5,3.5,1.5,2.0,2.0,2.0,14.0,13.0,15.033296378372908
341,64,652,0,21.755066666666355,6.082762530298219,30.01666203960727,4.0,5.0,9.055385138137417,10.04987562112089,7.0,22.02271554554524,17.029386365926403,14.0,13.0,12.0,5.5,9.5,3.5,2.5,3.0,2.0,2.0,14.0,13.0,16.0312195418814
342,64,653,0,21.78843333333302,5.0990195135927845,31.064449134018133,4.0,6.0,8.06225774829855,10.04987562112089,7.0,22.02271554554524,16.0312195418814,13.5,13.0,11.0,5.0,10.0,4.0,2.0,3.0,3.0,3.0,14.0,13.0,15.033296378372908
343,64,654,0,21.821799999999687,6.0,31.064449134018133,4.123105625617661,5.0,8.06225774829855,9.055385138137417,7.0,22.02271554554524,17.029386365926403,14.0,13.0,11.0,5.0,10.0,5.0,2.0,3.1622776601683795,2.0,2.0,14.0,13.0,15.033296378372908
344,64,655,0,21.85516666666636,4.123105625617661,30.066592756745816,3.0,5.0,8.0,9.055385138137417,8.0,20.024984394500787,15.033296378372908,13.0,13.0,11.0,4.0,8.0,3.0,1.0,3.0,2.0,2.5,14.0,13.0,16.0312195418814
345,64,656,0,21.88853333333302,3.1622776601683795,31.016124838541646,4.0,6.0,9.0,10.04987562112089,7.0710678118654755,20.09975124224178,14.142135623730951,12.5,12.0,11.0,4.5,8.5,2.5,0.5,3.0,2.0,2.5,14.0,13.0,16.0312195418814
346,64,657,0,21.921899999999685,4.123105625617661,31.064449134018133,3.0,6.0,9.0,10.04987562112089,8.06225774829855,21.095023109728988,15.132745950421556,13.0,13.0,11.0,4.0,9.0,3.0,1.0,3.0,2.0,2.5,14.0,13.0,15.033296378372908
347,64,658,0,21.95526666666635,4.0,32.0624390837628,3.0,6.0,9.0,10.04987562112089,8.06225774829855,21.02379604162864,15.033296378372908,13.0,13.0,11.0,4.0,9.0,3.0,1.0,3.1622776601683795,2.0,2.5,14.0,13.0,15.033296378372908
348,64,659,0,21.988633333333016,4.0,31.064449134018133,3.0,5.0,9.0,10.04987562112089,8.06225774829855,20.024984394500787,15.033296378372908,13.0,13.0,11.0,4.0,8.0,3.0,1.0,3.0,3.0,3.0,13.0,13.0,15.033296378372908
349,64,660,0,22.02199999999968,3.0,31.064449134018133,3.0,6.0,9.0,10.0,8.06225774829855,20.024984394500787,14.035668847618199,12.5,13.0,11.0,4.0,8.0,2.0,1.0,3.0,3.0,3.0,13.0,12.0,14.035668847618199
350,64,661,0,22.055366666666348,3.1622776601683795,32.0624390837628,3.0,5.0,8.0,10.0,8.0,19.026297590440446,14.035668847618199,12.5,13.0,11.0,4.0,7.0,2.0,1.0,3.0,3.0,3.0,14.0,13.0,14.142135623730951
351,64,662,0,22.08873333333301,4.123105625617661,31.016124838541646,3.0,5.0,9.055385138137417,10.0,8.0,20.024984394500787,15.033296378372908,13.0,12.0,11.0,3.5,8.5,3.5,1.5,2.0,2.0,2.5,14.0,13.0,15.033296378372908
352,64,663,0,22.12209999999968,3.1622776601683795,32.0,4.0,6.0,8.0,9.0,7.0,20.024984394500787,14.035668847618199,12.5,11.0,11.0,4.0,9.0,2.0,1.0,2.0,2.0,2.0,13.0,12.0,17.029386365926403
353,64,664,0,22.155466666666342,3.1622776601683795,32.0,4.0,6.0,8.0,9.0,7.0,20.024984394500787,14.035668847618199,12.5,11.0,11.0,4.0,9.0,2.0,1.0,2.0,2.0,2.0,13.0,12.0,17.029386365926403
354,64,665,0,22.18883333333301,3.1622776601683795,32.01562118716424,4.0,6.0,9.0,10.04987562112089,8.06225774829855,21.095023109728988,15.132745950421556,13.5,13.0,12.0,4.5,8.5,2.5,1.5,2.0,2.0,2.0,13.0,12.0,16.0312195418814
355,64,666,0,22.22219999999968,3.0,31.016124838541646,3.1622776601683795,5.0,8.0,9.0,8.0,19.026297590440446,14.035668847618199,12.5,12.0,11.0,3.5,7.5,1.5,0.5,3.0,3.1622776601683795,3.0,15.0,13.0,15.132745950421556
356,64,667,0,22.255566666666343,3.1622776601683795,31.016124838541646,4.0,6.0,9.0,10.04987562112089,8.06225774829855,21.095023109728988,15.132745950421556,13.5,13.0,12.0,4.5,8.5,2.5,1.5,3.0,3.0,3.0,14.0,13.0,15.033296378372908
357,64,668,0,22.28893333333301,3.0,31.016124838541646,4.123105625617661,6.0,8.06225774829855,9.055385138137417,8.0,21.02379604162864,15.033296378372908,13.5,13.0,12.0,4.5,8.5,2.5,1.5,3.0,3.1622776601683795,3.0,15.0,14.0,16.0312195418814
358,64,669,0,22.322299999999675,4.0,30.01666203960727,4.123105625617661,6.0,8.0,9.055385138137417,8.0,22.02271554554524,16.0312195418814,14.0,13.0,12.0,4.5,9.5,3.5,1.5,3.0,3.1622776601683795,3.0,15.0,14.0,16.0312195418814
359,64,670,0,22.35566666666634,3.1622776601683795,30.01666203960727,3.0,6.0,9.0,10.0,8.06225774829855,20.09975124224178,14.142135623730951,12.5,13.0,12.0,4.5,7.5,1.5,1.5,3.0,3.1622776601683795,3.0,15.0,14.0,16.0312195418814
360,64,671,0,22.389033333333007,1.0,30.01666203960727,4.0,6.0,9.0,9.0,8.06225774829855,19.026297590440446,13.038404810405298,12.5,13.0,12.0,4.5,6.5,0.5,1.5,3.0,2.0,2.5,15.0,14.0,16.0312195418814
361,64,672,0,22.42239999999968,1.0,29.017236257093817,4.0,6.0,8.06225774829855,9.055385138137417,7.0710678118654755,18.027756377319946,12.041594578792296,11.5,12.0,11.0,4.5,6.5,0.5,1.5,2.0,2.0,2.5,15.0,14.0,18.110770276274835
362,64,673,0,22.45576666666634,4.0,30.01666203960727,3.1622776601683795,6.0,8.0,9.055385138137417,8.0,21.02379604162864,15.033296378372908,13.0,13.0,12.0,4.5,8.5,2.5,1.5,2.23606797749979,2.23606797749979,2.0,16.0,14.0,16.0312195418814
363,64,674,0,22.489133333333005,4.123105625617661,30.01666203960727,3.0,6.0,8.0,9.055385138137417,8.06225774829855,21.095023109728988,15.132745950421556,13.0,13.0,12.0,4.5,8.5,2.5,1.5,3.0,2.0,2.0,15.0,13.0,17.11724276862369
364,64,675,0,22.52249999999967,6.082762530298219,31.016124838541646,4.0,6.0,8.06225774829855,10.04987562112089,7.0710678118654755,23.08679276123039,17.11724276862369,14.0,13.0,12.0,5.5,10.5,4.5,2.5,2.0,2.23606797749979,2.0,16.0,14.0,16.1245154965971
365,64,676,0,22.555866666666336,7.0,31.064449134018133,3.0,6.0,8.0,9.055385138137417,8.06225774829855,24.020824298928627,18.027756377319946,14.5,14.0,12.0,5.0,11.0,5.0,2.0,2.0,3.0,3.0,16.0,14.0,16.1245154965971
366,64,677,0,22.589233333333,7.0710678118654755,30.01666203960727,4.0,7.0710678118654755,8.06225774829855,10.04987562112089,7.0710678118654755,25.019992006393608,18.110770276274835,14.5,13.0,12.0,5.5,12.5,5.5,2.5,3.0,2.0,2.0,15.0,13.0,16.0312195418814
367,64,678,0,22.622599999999668,6.082762530298219,30.01666203960727,4.0,6.0,9.0,10.04987562112089,8.06225774829855,24.08318915758459,18.110770276274835,15.0,14.0,13.0,5.5,10.5,4.5,1.5,2.0,2.0,2.0,16.0,14.0,16.1245154965971
368,64,679,0,22.65596666666633,7.0710678118654755,31.016124838541646,4.0,6.0,9.0,10.04987562112089,8.06225774829855,25.079872407968907,19.1049731745428,15.5,14.0,13.0,5.5,11.5,5.5,1.5,2.0,2.0,2.0,16.0,14.0,17.029386365926403
369,64,680,0,22.689333333333,6.082762530298219,31.016124838541646,4.0,6.0,8.0,9.055385138137417,7.0710678118654755,23.08679276123039,17.11724276862369,14.0,13.0,12.0,5.5,10.5,4.5,1.5,2.0,2.0,2.5,16.0,14.0,17.029386365926403
370,64,681,0,22.722699999999666,5.0,32.01562118716424,4.123105625617661,6.0,9.0,10.04987562112089,7.0710678118654755,22.090722034374522,16.1245154965971,13.5,12.0,11.0,4.5,10.5,4.5,1.5,2.23606797749979,2.0,2.0,16.0,14.0,17.11724276862369
371,64,682,0,22.75606666666633,3.1622776601683795,30.066592756745816,4.0,6.0,9.055385138137417,9.055385138137417,8.06225774829855,21.095023109728988,15.132745950421556,13.5,13.0,11.0,4.0,9.0,3.0,1.0,2.0,2.23606797749979,2.0,16.0,14.0,17.029386365926403
372,64,683,0,22.789433333333,2.0,31.016124838541646,4.123105625617661,6.0,8.06225774829855,9.055385138137417,8.0,20.024984394500787,14.035668847618199,13.0,12.0,11.0,3.5,8.5,2.5,0.5,3.0,2.0,2.5,15.0,14.0,16.0312195418814
373,64,684,0,22.822799999999663,2.23606797749979,31.016124838541646,4.0,6.0,8.06225774829855,9.055385138137417,8.06225774829855,20.09975124224178,14.142135623730951,13.0,12.0,11.0,3.5,8.5,2.5,0.5,3.1622776601683795,2.0,2.5,15.0,14.0,17.029386365926403
374,64,685,0,22.85616666666633,1.4142135623730951,30.01666203960727,4.0,6.0,8.0,9.055385138137417,8.06225774829855,19.1049731745428,13.152946437965905,12.5,11.0,10.0,2.5,8.5,2.5,0.5,2.0,2.0,2.0,15.0,14.0,18.110770276274835
375,64,686,0,22.889533333332995,2.0,31.064449134018133,3.1622776601683795,6.0,8.0,9.055385138137417,8.06225774829855,19.1049731745428,13.152946437965905,12.0,12.0,10.0,3.0,8.0,2.0,0.0,3.0,2.0,2.0,15.0,13.0,17.029386365926403
376,64,687,0,22.92289999999966,2.23606797749979,30.01666203960727,3.0,6.0,8.06225774829855,9.0,8.06225774829855,19.1049731745428,13.152946437965905,12.0,11.0,10.0,2.5,8.5,2.5,0.5,3.0,3.0,3.0,15.0,13.0,18.110770276274835
377,64,688,0,22.956266666666327,2.23606797749979,31.064449134018133,4.0,6.0,8.06225774829855,9.055385138137417,8.06225774829855,20.09975124224178,14.142135623730951,13.0,12.0,10.0,3.0,9.0,3.0,0.0,3.1622776601683795,3.0,2.5,15.0,14.0,16.0312195418814
378,64,689,0,22.989633333333,2.0,31.016124838541646,4.0,6.082762530298219,8.06225774829855,9.055385138137417,8.06225774829855,20.09975124224178,14.035668847618199,13.0,12.0,11.0,3.5,8.5,2.5,0.5,3.0,2.0,2.0,15.0,13.0,17.029386365926403
379,64,690,0,23.02299999999966,2.0,31.064449134018133,4.0,5.0990195135927845,8.06225774829855,8.0,8.06225774829855,19.1049731745428,14.035668847618199,13.0,12.0,10.0,3.0,8.0,3.0,0.0,3.0,2.0,2.0,15.0,13.0,16.0312195418814
380,64,691,0,23.056366666666325,1.0,30.01666203960727,3.0,7.0,8.0,8.0,9.055385138137417,20.024984394500787,13.038404810405298,12.5,11.0,10.0,1.5,9.5,2.5,0.5,2.0,2.0,2.0,15.0,14.0,17.11724276862369
381,64,692,0,23.08973333333299,1.4142135623730951,30.066592756745816,4.0,6.0,7.0710678118654755,7.0710678118654755,8.06225774829855,19.1049731745428,13.152946437965905,12.5,11.0,9.0,2.0,9.0,3.0,1.0,3.0,2.0,2.0,16.0,14.0,19.1049731745428
382,64,693,0,23.123099999999656,2.23606797749979,31.016124838541646,3.0,5.0,7.0,8.06225774829855,8.06225774829855,18.110770276274835,13.152946437965905,12.0,10.0,9.0,1.5,8.5,2.5,1.5,3.0,3.0,3.0,15.0,13.0,18.027756377319946
383,64,694,0,23.15646666666632,2.0,30.066592756745816,3.0,6.0,8.0,9.055385138137417,8.246211251235321,19.1049731745428,13.152946437965905,12.0,11.0,9.0,2.0,9.0,3.0,1.0,3.0,3.0,3.0,16.0,14.0,17.11724276862369
384,64,695,0,23.189833333332988,1.0,30.0,4.123105625617661,6.0,8.06225774829855,8.06225774829855,8.06225774829855,19.1049731745428,13.152946437965905,12.5,10.0,10.0,2.0,9.0,3.0,1.0,3.0,2.0,2.5,15.0,14.0,20.024984394500787
385,64,696,0,23.22319999999965,1.4142135623730951,32.01562118716424,3.0,7.0,7.0710678118654755,8.06225774829855,8.06225774829855,19.1049731745428,12.165525060596439,11.5,10.0,9.0,1.5,9.5,3.5,0.5,3.0,3.1622776601683795,3.0,15.0,14.0,19.026297590440446
386,64,697,0,23.25656666666632,1.4142135623730951,31.016124838541646,3.0,6.0,8.06225774829855,9.055385138137417,9.055385138137417,19.1049731745428,13.152946437965905,12.5,11.0,10.0,1.5,8.5,2.5,0.5,3.0,2.0,2.0,16.0,14.0,16.1245154965971
387,64,698,0,23.289933333332986,1.4142135623730951,31.016124838541646,3.0,6.0,8.0,9.055385138137417,9.055385138137417,19.1049731745428,13.152946437965905,12.5,10.0,9.0,0.5,9.5,3.5,1.5,2.0,3.0,3.0,16.0,14.0,16.1245154965971
388,64,699,0,23.32329999999965,1.0,30.01666203960727,3.0,6.0,8.0,9.055385138137417,9.055385138137417,18.110770276274835,12.165525060596439,12.0,10.0,9.0,0.5,8.5,2.5,1.5,3.0,3.0,3.0,16.0,14.0,18.110770276274835
389,64,700,0,23.35666666666632,0.0,32.01562118716424,3.0,6.0,8.0,9.055385138137417,9.055385138137417,18.027756377319946,12.041594578792296,12.0,10.0,9.0,0.5,8.5,2.5,1.5,2.0,3.0,3.0,16.0,13.0,15.132745950421556
390,64,701,0,23.390033333332983,0.0,31.016124838541646,3.0,6.0,9.0,8.06225774829855,8.06225774829855,17.029386365926403,11.045361017187261,11.0,10.0,9.0,1.5,7.5,1.5,1.5,3.1622776601683795,2.0,2.0,16.0,14.0,15.132745950421556
391,64,702,0,23.42339999999965,0.0,31.0,3.1622776601683795,5.0,8.0,9.0,8.06225774829855,16.1245154965971,11.180339887498949,11.0,9.0,9.0,1.0,7.0,2.0,1.0,3.0,2.0,2.0,15.0,13.0,16.1245154965971
392,64,703,0,23.456766666666315,0.0,31.016124838541646,3.1622776601683795,6.0,8.0,8.06225774829855,8.06225774829855,17.11724276862369,11.180339887498949,11.0,10.0,9.0,1.5,7.5,1.5,1.5,2.0,3.0,3.0,16.0,14.0,16.1245154965971
393,64,704,0,23.49013333333298,0.0,31.016124838541646,3.1622776601683795,6.0,8.0,8.06225774829855,8.06225774829855,17.11724276862369,11.180339887498949,11.0,10.0,9.0,1.5,7.5,1.5,1.5,3.0,3.0,3.0,16.0,14.0,16.1245154965971
394,64,705,0,23.523499999999647,0.0,31.016124838541646,3.1622776601683795,6.0,8.06225774829855,9.055385138137417,8.06225774829855,17.11724276862369,11.180339887498949,11.0,10.0,9.0,1.5,7.5,1.5,0.5,3.1622776601683795,3.0,3.0,16.0,14.0,15.132745950421556
395,64,706,0,23.55686666666632,1.0,31.016124838541646,4.0,6.0,8.0,9.0,8.06225774829855,18.110770276274835,12.165525060596439,12.0,10.0,9.0,1.5,8.5,2.5,1.5,2.0,2.0,2.0,15.0,13.0,16.1245154965971
396,64,707,0,23.59023333333298,1.0,31.0,3.1622776601683795,6.0,8.0,9.0,8.06225774829855,18.110770276274835,12.165525060596439,11.5,10.0,10.0,2.0,8.0,2.0,1.0,3.1622776601683795,3.0,3.0,16.0,13.0,16.1245154965971
397,64,708,0,23.623599999999644,1.0,30.0,2.0,6.082762530298219,8.0,8.06225774829855,9.055385138137417,18.110770276274835,12.041594578792296,11.5,10.0,10.0,1.0,8.0,2.0,1.0,3.0,3.0,3.0,16.0,13.0,16.1245154965971
398,64,709,0,23.65696666666631,1.4142135623730951,31.0,2.0,6.0,9.0,9.055385138137417,9.055385138137417,18.110770276274835,12.165525060596439,11.5,10.0,10.0,1.0,8.0,2.0,1.0,3.0,3.0,3.0,16.0,13.0,16.1245154965971
399,64,710,0,23.690333333332976,0.0,30.0,3.0,6.0,7.0710678118654755,8.06225774829855,8.246211251235321,17.11724276862369,11.180339887498949,11.0,9.0,9.0,1.0,8.0,2.0,1.0,2.0,3.0,3.0,16.0,13.0,15.132745950421556
400,64,711,0,23.72369999999964,1.0,31.0,4.0,6.0,8.0,9.055385138137417,7.0710678118654755,17.11724276862369,11.180339887498949,11.0,9.0,9.0,2.0,8.0,2.0,1.0,2.0,2.23606797749979,2.5,17.0,13.0,16.1245154965971
401,64,712,0,23.757066666666308,0.0,30.01666203960727,3.0,6.082762530298219,8.0,8.06225774829855,8.246211251235321,17.26267650163207,11.180339887498949,11.0,9.0,10.0,1.5,7.5,1.5,0.5,3.1622776601683795,3.0,3.0,16.0,13.0,15.132745950421556
402,64,713,0,23.79043333333297,1.0,30.066592756745816,3.1622776601683795,6.0,8.0,8.0,8.06225774829855,18.110770276274835,12.165525060596439,11.5,9.0,11.0,2.0,8.0,2.0,1.0,3.0,3.0,3.0,16.0,12.0,16.1245154965971
403,64,714,0,23.82379999999964,1.4142135623730951,29.068883707497267,2.0,6.0,7.0,8.0,9.219544457292887,18.24828759089466,12.36931687685298,11.5,9.0,11.0,1.0,8.0,1.0,1.0,2.0,2.0,2.5,16.0,12.0,15.132745950421556
404,64,715,0,23.857166666666306,1.0,29.068883707497267,3.0,5.0,7.0,8.0,9.055385138137417,17.11724276862369,12.165525060596439,12.0,9.0,11.0,1.0,7.0,2.0,1.0,3.1622776601683795,2.0,2.5,16.0,12.0,15.132745950421556
405,64,716,0,23.89053333333297,1.4142135623730951,29.068883707497267,2.0,5.0,7.0,7.0,10.198039027185569,18.24828759089466,13.341664064126334,12.5,10.0,12.0,1.0,7.0,1.0,1.0,3.1622776601683795,3.0,3.0,16.0,12.0,16.1245154965971
406,64,717,0,23.92389999999964,1.4142135623730951,28.071337695236398,3.0,5.0,7.0,7.0,9.219544457292887,18.24828759089466,13.341664064126334,12.5,10.0,12.0,2.0,7.0,1.0,1.0,3.0,3.1622776601683795,3.0,16.0,12.0,15.132745950421556
407,64,718,0,23.957266666666303,1.4142135623730951,28.071337695236398,2.0,5.0990195135927845,7.0710678118654755,7.0710678118654755,10.198039027185569,18.439088914585774,13.341664064126334,12.5,10.0,12.0,1.0,7.0,1.0,1.0,2.23606797749979,3.0,3.0,17.0,13.0,16.1245154965971
408,64,719,0,23.99063333333297,1.4142135623730951,28.071337695236398,3.0,5.0990195135927845,6.0,7.0,9.219544457292887,18.439088914585774,13.341664064126334,12.5,9.0,11.0,1.0,8.0,2.0,1.0,2.23606797749979,3.0,3.0,17.0,13.0,17.11724276862369
409,64,720,0,24.023999999999635,1.4142135623730951,29.154759474226502,2.0,6.0,7.0,8.0,9.219544457292887,18.24828759089466,12.36931687685298,11.5,9.0,12.0,1.5,7.5,0.5,0.5,3.1622776601683795,3.0,3.5,17.0,13.0,17.26267650163207
410,64,721,0,24.0573666666663,1.4142135623730951,29.068883707497267,4.0,6.0,7.0710678118654755,8.06225774829855,8.246211251235321,19.235384061671343,13.341664064126334,12.5,10.0,12.0,3.0,8.0,1.0,1.0,2.0,3.0,3.0,17.0,13.0,16.278820596099706
411,64,722,0,24.090733333332967,1.0,28.071337695236398,3.1622776601683795,6.082762530298219,7.0,8.0,9.219544457292887,19.4164878389476,13.341664064126334,12.5,10.0,12.0,2.0,8.0,2.0,0.0,3.0,3.0,3.0,17.0,12.0,16.1245154965971
412,64,723,0,24.12409999999964,3.0,28.071337695236398,3.1622776601683795,6.082762530298219,7.0710678118654755,8.0,8.246211251235321,20.396078054371138,14.317821063276353,12.5,9.0,11.0,2.0,10.0,4.0,1.0,2.23606797749979,3.0,3.0,17.0,12.0,17.26267650163207
413,64,724,0,24.1574666666663,3.0,28.071337695236398,3.1622776601683795,6.082762530298219,6.082762530298219,7.0710678118654755,8.06225774829855,20.223748416156685,14.142135623730951,12.5,9.0,11.0,2.0,10.0,3.0,1.0,3.1622776601683795,3.1622776601683795,3.0,17.0,11.0,16.278820596099706
414,64,725,0,24.190833333332964,5.0,30.066592756745816,3.1622776601683795,5.0990195135927845,8.06225774829855,9.0,7.280109889280518,20.396078054371138,15.297058540778355,12.5,8.0,10.0,2.0,11.0,5.0,1.0,3.1622776601683795,3.1622776601683795,3.0,18.0,13.0,17.11724276862369
415,64,726,0,24.22419999999963,5.0990195135927845,30.066592756745816,3.0,7.0710678118654755,8.0,9.0,7.280109889280518,22.360679774997898,15.297058540778355,12.5,9.0,11.0,3.0,12.0,4.0,0.0,3.1622776601683795,2.23606797749979,2.5,18.0,13.0,17.26267650163207
416,64,727,0,24.257566666666296,5.0990195135927845,29.068883707497267,4.123105625617661,6.082762530298219,7.0710678118654755,8.0,7.280109889280518,22.561028345356956,16.492422502470642,13.5,9.0,11.0,3.0,12.0,5.0,1.0,3.0,3.1622776601683795,3.0,18.0,12.0,17.26267650163207
417,64,728,0,24.29093333333296,5.385164807134504,30.066592756745816,3.0,6.0,7.0,8.0,7.280109889280518,21.37755832643195,15.524174696260024,12.5,9.0,11.0,3.0,11.0,4.0,0.0,3.1622776601683795,3.1622776601683795,3.0,18.0,12.0,16.278820596099706
418,64,729,0,24.324299999999628,5.385164807134504,30.066592756745816,3.0,6.0,7.0,8.0,7.280109889280518,21.37755832643195,15.524174696260024,12.5,9.0,11.0,3.0,11.0,4.0,0.0,3.1622776601683795,3.1622776601683795,3.0,18.0,12.0,16.278820596099706
419,64,730,0,24.357666666666294,5.0990195135927845,29.068883707497267,3.1622776601683795,6.082762530298219,7.0710678118654755,8.06225774829855,7.280109889280518,21.587033144922902,15.524174696260024,12.5,9.0,11.0,3.0,11.0,4.0,0.0,3.0,3.0,3.0,18.0,12.0,17.26267650163207
420,64,731,0,24.39103333333296,4.123105625617661,30.066592756745816,3.1622776601683795,7.0710678118654755,7.0,9.0,7.280109889280518,21.587033144922902,14.560219778561036,12.0,8.0,10.0,2.0,12.0,5.0,1.0,3.1622776601683795,3.1622776601683795,3.0,18.0,12.0,16.492422502470642
421,64,732,0,24.424399999999626,4.123105625617661,29.068883707497267,3.1622776601683795,6.082762530298219,8.06225774829855,8.0,7.280109889280518,20.615528128088304,14.560219778561036,12.0,8.0,10.0,2.0,11.0,5.0,1.0,3.1622776601683795,3.0,3.0,18.0,12.0,17.46424919657298
422,64,733,0,24.45776666666629,4.123105625617661,29.068883707497267,3.1622776601683795,7.0710678118654755,7.0,7.0,7.280109889280518,21.587033144922902,14.560219778561036,12.0,8.0,10.0,2.0,12.0,4.0,1.0,3.1622776601683795,3.0,3.0,18.0,12.0,16.492422502470642
423,64,734,0,24.49113333333296,4.123105625617661,29.068883707497267,3.1622776601683795,7.0710678118654755,7.0,7.0,7.280109889280518,21.587033144922902,14.560219778561036,12.0,8.0,10.0,2.0,12.0,4.0,1.0,3.1622776601683795,3.0,3.0,18.0,12.0,16.492422502470642
424,64,735,0,24.524499999999623,3.1622776601683795,29.068883707497267,4.123105625617661,7.0710678118654755,7.0710678118654755,8.06225774829855,7.280109889280518,21.587033144922902,14.560219778561036,12.5,9.0,11.0,3.0,11.0,4.0,1.0,2.0,3.1622776601683795,3.0,18.0,12.0,17.46424919657298
425,64,736,0,24.55786666666629,5.385164807134504,30.14962686336267,4.123105625617661,7.0710678118654755,8.06225774829855,9.055385138137417,7.0710678118654755,23.53720459187964,16.492422502470642,13.5,9.0,12.0,3.5,12.5,5.5,0.5,3.0,3.1622776601683795,3.0,17.0,11.0,18.24828759089466
426,64,737,0,24.591233333332955,5.0,29.154759474226502,2.23606797749979,6.082762530298219,8.06225774829855,8.0,8.246211251235321,21.37755832643195,15.297058540778355,12.5,9.0,12.0,2.5,10.5,3.5,0.5,3.1622776601683795,2.23606797749979,2.5,18.0,12.0,17.11724276862369
427,64,738,0,24.62459999999962,2.23606797749979,27.073972741361768,3.1622776601683795,6.0,7.0710678118654755,8.0,8.06225774829855,19.235384061671343,13.341664064126334,12.0,10.0,12.0,3.0,8.0,2.0,0.0,3.1622776601683795,3.1622776601683795,3.0,18.0,12.0,16.278820596099706
428,64,739,0,24.657966666666287,2.23606797749979,27.073972741361768,3.1622776601683795,6.0,7.0710678118654755,8.0,8.06225774829855,19.235384061671343,13.341664064126334,12.0,10.0,12.0,3.0,8.0,2.0,0.0,3.1622776601683795,3.1622776601683795,3.0,18.0,12.0,16.278820596099706
429,64,740,0,24.69133333333296,2.23606797749979,27.073972741361768,3.1622776601683795,6.082762530298219,7.0,8.0,10.04987562112089,21.37755832643195,15.297058540778355,14.0,11.0,13.0,2.0,9.0,2.0,0.0,2.23606797749979,3.0,3.0,19.0,12.0,16.278820596099706
430,64,741,0,24.72469999999962,2.23606797749979,29.068883707497267,3.1622776601683795,7.0710678118654755,7.0710678118654755,8.0,10.04987562112089,22.360679774997898,15.297058540778355,14.0,11.0,13.0,2.0,10.0,3.0,1.0,3.0,2.23606797749979,2.0,19.0,12.0,18.24828759089466
431,64,742,0,24.758066666666284,3.0,26.019223662515376,3.1622776601683795,5.0990195135927845,6.0,7.0,10.04987562112089,21.213203435596427,16.1245154965971,14.5,12.0,13.0,2.5,8.5,2.5,0.5,3.1622776601683795,2.23606797749979,2.5,19.0,12.0,18.24828759089466
432,64,743,0,24.79143333333295,5.0990195135927845,29.017236257093817,3.0,6.082762530298219,7.0,8.0,9.219544457292887,23.345235059857504,17.26267650163207,14.5,12.0,13.0,3.5,10.5,3.5,0.5,2.23606797749979,3.0,2.5,19.0,12.0,16.278820596099706
433,64,744,0,24.824799999999616,5.0990195135927845,29.017236257093817,3.0,6.082762530298219,7.0,8.0,9.219544457292887,23.345235059857504,17.26267650163207,14.5,12.0,13.0,3.5,10.5,3.5,0.5,2.23606797749979,3.0,2.5,19.0,12.0,16.278820596099706
434,64,745,0,24.85816666666628,3.1622776601683795,28.071337695236398,4.0,6.082762530298219,7.0710678118654755,8.0,9.219544457292887,22.360679774997898,16.278820596099706,14.5,12.0,14.0,4.0,9.0,2.0,0.0,2.23606797749979,2.0,2.5,19.0,12.0,16.492422502470642
435,64,746,0,24.891533333332948,3.1622776601683795,27.018512172212592,4.0,7.0710678118654755,7.0710678118654755,8.0,8.246211251235321,22.360679774997898,15.297058540778355,13.5,11.0,12.0,3.5,10.5,2.5,0.5,2.23606797749979,2.23606797749979,2.5,19.0,12.0,17.46424919657298
436,64,747,0,24.924899999999614,5.0990195135927845,28.160255680657446,3.1622776601683795,6.082762530298219,7.0,8.0,7.280109889280518,21.587033144922902,15.524174696260024,12.5,9.0,12.0,3.5,10.5,3.5,0.5,3.1622776601683795,3.1622776601683795,3.5,20.0,12.0,16.76305461424021
437,64,748,0,24.95826666666628,4.123105625617661,30.14962686336267,3.0,6.082762530298219,8.06225774829855,8.06225774829855,8.246211251235321,21.37755832643195,15.297058540778355,13.0,9.0,12.0,2.5,10.5,3.5,0.5,2.23606797749979,2.23606797749979,2.5,20.0,11.0,17.46424919657298
438,64,749,0,24.991633333332945,4.123105625617661,30.14962686336267,3.0,6.082762530298219,8.06225774829855,8.06225774829855,8.246211251235321,21.37755832643195,15.297058540778355,13.0,9.0,12.0,2.5,10.5,3.5,0.5,2.23606797749979,2.23606797749979,2.5,20.0,11.0,17.46424919657298
439,64,750,0,25.02499999999961,4.123105625617661,29.154759474226502,4.123105625617661,7.0710678118654755,7.0710678118654755,8.0,7.280109889280518,22.561028345356956,15.524174696260024,13.0,9.0,12.0,3.5,11.5,3.5,0.5,3.1622776601683795,3.1622776601683795,3.0,19.0,11.0,16.492422502470642
440,64,751,0,25.05836666666628,3.1622776601683795,28.160255680657446,3.0,6.082762530298219,7.0710678118654755,8.06225774829855,8.246211251235321,20.396078054371138,14.317821063276353,12.5,9.0,12.0,2.5,9.5,2.5,1.5,3.0,3.1622776601683795,3.0,19.0,11.0,19.235384061671343
441,64,752,0,25.091733333332943,2.23606797749979,29.274562336608895,4.123105625617661,7.0710678118654755,7.0710678118654755,9.0,7.0710678118654755,20.396078054371138,13.341664064126334,12.0,8.0,12.0,3.0,10.0,2.0,1.0,2.0,2.23606797749979,2.0,20.0,10.0,16.492422502470642
442,64,753,0,25.12509999999961,2.23606797749979,28.284271247461902,4.123105625617661,7.0710678118654755,7.0710678118654755,8.06225774829855,7.280109889280518,20.615528128088304,13.601470508735444,12.0,8.0,12.0,3.0,10.0,2.0,1.0,2.23606797749979,2.23606797749979,2.0,20.0,10.0,15.524174696260024
443,64,754,0,25.158466666666275,2.23606797749979,28.284271247461902,4.123105625617661,7.0710678118654755,7.0710678118654755,8.06225774829855,7.280109889280518,20.615528128088304,13.601470508735444,12.0,8.0,12.0,3.0,10.0,2.0,1.0,2.23606797749979,2.23606797749979,2.0,20.0,10.0,15.524174696260024
444,64,755,0,25.19183333333294,3.1622776601683795,28.284271247461902,3.1622776601683795,6.082762530298219,8.246211251235321,8.06225774829855,8.246211251235321,20.615528128088304,14.560219778561036,12.5,8.0,12.0,2.0,10.0,3.0,2.0,2.23606797749979,2.0,2.5,20.0,10.0,15.811388300841896
445,64,756,0,25.225199999999607,3.1622776601683795,29.427877939124322,4.123105625617661,6.082762530298219,7.0710678118654755,8.06225774829855,7.280109889280518,20.615528128088304,14.560219778561036,12.5,8.0,13.0,3.5,9.5,2.5,0.5,3.1622776601683795,3.0,3.0,19.0,9.0,16.492422502470642
446,64,757,0,25.258566666666272,3.1622776601683795,29.427877939124322,3.1622776601683795,6.082762530298219,7.280109889280518,8.06225774829855,8.06225774829855,20.396078054371138,14.317821063276353,12.5,8.0,13.0,2.5,9.5,2.5,1.5,3.1622776601683795,3.1622776601683795,3.0,20.0,10.0,15.524174696260024
447,64,758,0,25.29193333333294,3.1622776601683795,29.427877939124322,3.1622776601683795,6.082762530298219,7.280109889280518,8.06225774829855,8.246211251235321,20.615528128088304,14.560219778561036,12.5,8.0,13.0,2.5,9.5,2.5,1.5,3.0,3.0,3.0,20.0,10.0,16.76305461424021
448,64,759,0,25.325299999999604,3.1622776601683795,29.427877939124322,3.1622776601683795,6.082762530298219,7.280109889280518,9.055385138137417,8.246211251235321,20.615528128088304,14.560219778561036,12.5,8.0,13.0,2.5,9.5,2.5,1.5,3.1622776601683795,3.0,3.0,20.0,10.0,16.76305461424021
449,64,760,0,25.35866666666627,2.23606797749979,29.614185789921695,4.123105625617661,7.280109889280518,7.280109889280518,9.055385138137417,7.0710678118654755,20.615528128088304,13.341664064126334,12.0,7.0,13.0,3.0,10.0,2.0,2.0,3.1622776601683795,3.1622776601683795,3.0,21.0,10.0,16.15549442140351
450,64,761,0,25.392033333332936,2.23606797749979,28.635642126552707,4.123105625617661,6.082762530298219,7.0710678118654755,8.06225774829855,8.246211251235321,20.615528128088304,14.560219778561036,13.0,8.0,14.0,3.0,9.0,2.0,1.0,3.1622776601683795,2.23606797749979,2.5,21.0,11.0,16.76305461424021
451,64,762,0,25.4253999999996,2.23606797749979,28.635642126552707,5.0990195135927845,6.082762530298219,6.324555320336759,7.0710678118654755,7.0710678118654755,20.396078054371138,14.317821063276353,13.0,8.0,14.0,4.0,9.0,2.0,1.0,3.1622776601683795,3.1622776601683795,3.0,21.0,10.0,17.46424919657298
452,64,763,0,25.458766666666268,2.0,28.442925306655784,4.123105625617661,6.324555320336759,7.0710678118654755,8.06225774829855,8.246211251235321,20.615528128088304,14.317821063276353,13.0,8.0,13.0,2.5,9.5,1.5,1.5,2.23606797749979,2.23606797749979,2.5,21.0,11.0,16.492422502470642
453,64,764,0,25.492133333332934,2.0,28.442925306655784,4.123105625617661,6.324555320336759,7.0710678118654755,8.06225774829855,8.246211251235321,20.615528128088304,14.317821063276353,13.0,8.0,13.0,2.5,9.5,1.5,1.5,2.23606797749979,2.23606797749979,2.5,21.0,11.0,16.492422502470642
454,64,765,0,25.5254999999996,2.23606797749979,28.635642126552707,3.1622776601683795,7.280109889280518,7.280109889280518,8.06225774829855,8.246211251235321,20.8806130178211,13.601470508735444,12.0,7.0,13.0,2.0,10.0,2.0,2.0,3.1622776601683795,3.1622776601683795,3.0,21.0,10.0,14.866068747318506
455,64,766,0,25.558866666666265,2.23606797749979,27.892651361962706,4.123105625617661,6.324555320336759,7.0710678118654755,8.06225774829855,8.54400374531753,21.18962010041709,14.866068747318506,13.0,7.0,14.0,2.5,9.5,2.5,1.5,2.23606797749979,2.23606797749979,2.5,21.0,10.0,15.524174696260024
456,64,767,0,25.59223333333293,2.23606797749979,27.65863337187866,3.1622776601683795,7.280109889280518,6.324555320336759,8.246211251235321,8.246211251235321,20.8806130178211,13.601470508735444,12.0,7.0,13.0,2.0,10.0,2.0,2.0,2.23606797749979,2.23606797749979,3.0,20.0,9.0,14.866068747318506
457,64,768,0,25.6255999999996,2.23606797749979,28.635642126552707,3.1622776601683795,5.0990195135927845,6.324555320336759,7.280109889280518,9.219544457292887,19.6468827043885,14.560219778561036,13.0,8.0,14.0,2.0,8.0,2.0,2.0,2.23606797749979,3.1622776601683795,2.5,20.0,9.0,13.601470508735444
458,64,769,0,25.658966666666263,2.23606797749979,28.635642126552707,3.1622776601683795,5.0990195135927845,6.324555320336759,7.280109889280518,9.219544457292887,19.6468827043885,14.560219778561036,13.0,8.0,14.0,2.0,8.0,2.0,2.0,2.23606797749979,3.1622776601683795,2.5,20.0,9.0,13.601470508735444
459,64,770,0,25.69233333333293,2.23606797749979,27.65863337187866,3.1622776601683795,5.0990195135927845,7.280109889280518,8.06225774829855,8.54400374531753,18.973665961010276,13.92838827718412,12.0,7.0,13.0,2.0,8.0,2.0,1.0,2.23606797749979,3.1622776601683795,3.0,20.0,9.0,15.524174696260024
460,64,771,0,25.725699999999595,2.0,26.476404589747453,3.1622776601683795,5.385164807134504,7.0710678118654755,8.06225774829855,8.246211251235321,18.681541692269406,13.341664064126334,12.0,8.0,13.0,2.5,7.5,1.5,0.5,2.23606797749979,2.23606797749979,2.5,19.0,9.0,13.601470508735444
461,64,772,0,25.75906666666626,3.1622776601683795,27.65863337187866,3.1622776601683795,6.082762530298219,7.0710678118654755,8.06225774829855,8.246211251235321,20.615528128088304,14.560219778561036,12.5,8.0,14.0,3.0,9.0,2.0,0.0,3.1622776601683795,3.1622776601683795,3.0,19.0,9.0,14.560219778561036
462,64,773,0,25.792433333332927,5.0990195135927845,27.459060435491963,4.123105625617661,5.0990195135927845,6.082762530298219,7.280109889280518,7.615773105863909,21.840329667841555,16.76305461424021,13.5,9.0,14.0,4.5,9.5,2.5,0.5,3.1622776601683795,3.1622776601683795,2.5,20.0,10.0,14.560219778561036
463,64,774,0,25.825799999999592,5.0990195135927845,27.459060435491963,4.123105625617661,5.0990195135927845,6.082762530298219,7.280109889280518,7.615773105863909,21.840329667841555,16.76305461424021,13.5,9.0,14.0,4.5,9.5,2.5,0.5,3.1622776601683795,3.1622776601683795,2.5,20.0,10.0,14.560219778561036
464,64,775,0,25.85916666666626,5.0990195135927845,26.68332812825267,3.1622776601683795,7.280109889280518,7.280109889280518,8.06225774829855,7.280109889280518,22.80350850198276,15.524174696260024,12.5,8.0,14.0,4.0,11.0,3.0,0.0,3.1622776601683795,3.1622776601683795,3.0,20.0,10.0,11.704699910719626
465,64,776,0,25.892533333332924,5.0990195135927845,26.476404589747453,3.1622776601683795,6.324555320336759,7.280109889280518,8.06225774829855,7.280109889280518,21.840329667841555,15.524174696260024,12.5,9.0,14.0,4.5,9.5,2.5,0.5,3.1622776601683795,3.1622776601683795,3.0,20.0,10.0,13.92838827718412
466,64,777,0,25.92589999999959,4.123105625617661,27.459060435491963,3.1622776601683795,6.082762530298219,7.280109889280518,8.06225774829855,7.615773105863909,20.8806130178211,14.866068747318506,12.0,8.0,13.0,3.5,9.5,2.5,0.5,3.1622776601683795,3.0,3.0,20.0,9.0,13.92838827718412
467,64,778,0,25.959266666666256,3.1622776601683795,25.317977802344327,3.0,6.082762530298219,7.280109889280518,7.0710678118654755,8.54400374531753,20.615528128088304,14.560219778561036,12.5,9.0,13.0,3.0,9.0,2.0,1.0,3.1622776601683795,3.1622776601683795,3.5,20.0,9.0,13.601470508735444
468,64,779,0,25.99263333333292,3.1622776601683795,25.317977802344327,3.0,6.082762530298219,7.280109889280518,7.0710678118654755,8.54400374531753,20.615528128088304,14.560219778561036,12.5,9.0,13.0,3.0,9.0,2.0,1.0,3.1622776601683795,3.1622776601683795,3.5,20.0,9.0,13.601470508735444
469,64,780,0,26.025999999999588,4.123105625617661,28.442925306655784,3.1622776601683795,5.0990195135927845,6.324555320336759,7.280109889280518,8.54400374531753,20.8806130178211,15.811388300841896,13.0,8.0,13.0,2.5,9.5,2.5,1.5,4.123105625617661,3.1622776601683795,3.0,19.0,9.0,14.560219778561036
470,64,781,0,26.059366666666254,3.1622776601683795,26.476404589747453,2.23606797749979,6.324555320336759,6.082762530298219,7.0710678118654755,9.219544457292887,20.8806130178211,14.560219778561036,12.5,9.0,14.0,2.5,8.5,1.5,0.5,2.23606797749979,3.1622776601683795,3.0,20.0,10.0,15.811388300841896
471,64,782,0,26.09273333333292,3.1622776601683795,28.635642126552707,2.23606797749979,5.0990195135927845,7.280109889280518,7.0710678118654755,9.219544457292887,19.6468827043885,14.560219778561036,12.5,7.0,13.0,1.0,9.0,3.0,2.0,2.23606797749979,3.1622776601683795,3.0,19.0,9.0,14.560219778561036
472,64,783,0,26.126099999999585,3.1622776601683795,28.635642126552707,2.23606797749979,5.0990195135927845,7.280109889280518,8.06225774829855,8.54400374531753,18.973665961010276,13.92838827718412,11.5,6.0,12.0,1.0,9.0,2.0,2.0,2.23606797749979,3.1622776601683795,3.0,19.0,8.0,14.560219778561036
473,64,784,0,26.15946666666625,3.1622776601683795,28.635642126552707,2.23606797749979,5.0990195135927845,7.280109889280518,8.06225774829855,8.54400374531753,18.973665961010276,13.92838827718412,11.5,6.0,12.0,1.0,9.0,2.0,2.0,3.1622776601683795,3.1622776601683795,3.0,19.0,8.0,14.560219778561036
474,64,785,0,26.19283333333292,3.1622776601683795,28.635642126552707,2.0,6.324555320336759,7.280109889280518,8.06225774829855,8.54400374531753,19.924858845171276,13.601470508735444,11.5,6.0,12.0,1.0,10.0,3.0,2.0,2.23606797749979,3.1622776601683795,3.0,19.0,9.0,14.866068747318506
475,64,786,0,26.226199999999583,3.1622776601683795,27.459060435491963,3.1622776601683795,5.0990195135927845,6.082762530298219,7.280109889280518,8.246211251235321,19.6468827043885,14.560219778561036,12.5,7.0,12.0,1.5,9.5,3.5,1.5,2.23606797749979,3.1622776601683795,3.0,19.0,9.0,14.866068747318506
476,64,787,0,26.25956666666625,4.123105625617661,27.65863337187866,3.1622776601683795,6.324555320336759,7.280109889280518,8.06225774829855,7.615773105863909,21.18962010041709,14.866068747318506,12.0,6.0,12.0,2.0,11.0,4.0,2.0,3.1622776601683795,3.1622776601683795,3.0,20.0,10.0,16.492422502470642
477,64,788,0,26.292933333332915,3.605551275463989,27.65863337187866,4.0,6.082762530298219,6.324555320336759,7.0710678118654755,7.615773105863909,20.8806130178211,14.866068747318506,12.5,7.0,13.0,3.0,10.0,3.0,2.0,3.1622776601683795,3.1622776601683795,3.0,20.0,10.0,15.811388300841896
478,64,789,0,26.32629999999958,3.605551275463989,27.65863337187866,4.0,6.082762530298219,6.324555320336759,7.0710678118654755,7.615773105863909,20.8806130178211,14.866068747318506,12.5,7.0,13.0,3.0,10.0,3.0,2.0,3.1622776601683795,3.1622776601683795,3.0,20.0,10.0,15.811388300841896
479,64,790,0,26.359666666666246,3.1622776601683795,28.442925306655784,3.1622776601683795,5.0990195135927845,6.082762530298219,7.0710678118654755,7.280109889280518,18.681541692269406,13.601470508735444,11.5,6.0,11.0,1.5,9.5,3.5,1.5,3.1622776601683795,3.1622776601683795,3.0,20.0,10.0,14.866068747318506
480,64,791,0,26.393033333332912,4.123105625617661,27.65863337187866,2.23606797749979,6.082762530298219,7.280109889280518,8.246211251235321,7.615773105863909,19.924858845171276,13.92838827718412,11.0,6.0,12.0,2.0,10.0,3.0,1.0,2.23606797749979,3.1622776601683795,3.0,19.0,9.0,15.524174696260024
481,64,792,0,26.42639999999958,3.1622776601683795,28.635642126552707,2.23606797749979,5.0990195135927845,6.082762530298219,7.280109889280518,8.246211251235321,18.681541692269406,13.601470508735444,11.5,6.0,12.0,1.0,9.0,3.0,1.0,2.23606797749979,3.1622776601683795,3.0,19.0,9.0,15.811388300841896
482,64,793,0,26.459766666666244,3.1622776601683795,27.65863337187866,2.23606797749979,5.385164807134504,7.0710678118654755,8.06225774829855,8.246211251235321,18.973665961010276,13.601470508735444,11.5,5.0,11.0,0.0,10.0,4.0,2.0,3.1622776601683795,3.1622776601683795,3.0,19.0,8.0,14.560219778561036
483,64,794,0,26.49313333333291,3.1622776601683795,27.65863337187866,2.23606797749979,5.385164807134504,7.0710678118654755,8.06225774829855,8.246211251235321,18.973665961010276,13.601470508735444,11.5,5.0,11.0,0.0,10.0,4.0,2.0,3.1622776601683795,3.1622776601683795,3.0,19.0,8.0,14.560219778561036
484,64,795,0,26.526499999999576,4.123105625617661,28.635642126552707,3.1622776601683795,4.47213595499958,6.082762530298219,7.280109889280518,7.280109889280518,18.973665961010276,14.560219778561036,12.0,5.0,11.0,1.0,10.0,4.0,2.0,4.123105625617661,4.123105625617661,4.0,20.0,9.0,15.524174696260024
485,64,796,0,26.55986666666624,1.4142135623730951,26.68332812825267,4.123105625617661,6.324555320336759,6.082762530298219,7.0710678118654755,7.615773105863909,19.313207915827967,13.0,11.5,4.0,10.0,0.0,11.0,4.0,4.0,3.605551275463989,3.0,3.0,19.0,9.0,15.811388300841896
486,64,797,0,26.593233333332908,2.23606797749979,25.709920264364882,3.1622776601683795,6.324555320336759,6.082762530298219,8.246211251235321,7.615773105863909,19.313207915827967,13.0,11.0,4.0,10.0,0.0,11.0,4.0,3.0,3.1622776601683795,3.1622776601683795,3.0,20.0,10.0,15.524174696260024
487,64,798,0,26.626599999999573,4.123105625617661,27.65863337187866,2.23606797749979,4.47213595499958,7.0710678118654755,7.0710678118654755,7.615773105863909,18.384776310850235,13.92838827718412,11.0,4.0,10.0,0.0,10.0,4.0,2.0,3.605551275463989,3.1622776601683795,3.0,20.0,10.0,16.492422502470642
488,64,799,0,26.65996666666624,4.123105625617661,27.65863337187866,2.23606797749979,4.47213595499958,7.0710678118654755,7.0710678118654755,7.615773105863909,18.384776310850235,13.92838827718412,11.0,4.0,10.0,0.0,10.0,4.0,2.0,3.605551275463989,3.1622776601683795,3.0,20.0,10.0,16.492422502470642
489,64,800,0,26.693333333332905,4.123105625617661,27.65863337187866,2.23606797749979,5.385164807134504,7.280109889280518,7.0710678118654755,7.615773105863909,19.313207915827967,13.92838827718412,11.0,4.0,10.0,0.0,11.0,4.0,3.0,2.23606797749979,3.1622776601683795,3.0,21.0,10.0,16.278820596099706
490,64,801,0,26.72669999999957,3.0,27.65863337187866,3.1622776601683795,5.385164807134504,6.324555320336759,7.0710678118654755,7.615773105863909,18.973665961010276,13.601470508735444,11.5,4.0,10.0,0.0,11.0,4.0,3.0,2.8284271247461903,2.23606797749979,2.0,20.0,10.0,16.492422502470642
491,64,802,0,26.76006666666624,4.123105625617661,28.861739379323623,2.8284271247461903,4.47213595499958,6.324555320336759,8.246211251235321,7.280109889280518,18.384776310850235,13.92838827718412,11.0,4.0,11.0,0.5,9.5,4.5,2.5,2.8284271247461903,2.23606797749979,2.5,20.0,9.0,17.46424919657298
