,video_id,frame_seq,time_seconds,m1,m3,m4,m5,m6,m7,m8,m9,m10,m11,m12,m13,m14,m15,m16,m17,e1,e2,e3,b1,b2,b3,label_measures
0,272,0,0.0,10.38752169388422,137.71567333291293,10.387521693884109,20.473210733346384,39.554504176430335,41.5500867755367,53.122649348835054,94.2613387304141,73.78909558445797,68.24488037699825,75.3749425059383,57.040497031520886,13.241543953745918,27.50166821162611,9.167222737208704,9.167222737208704,12.391564216175803,12.88413496340572,12.222963649611644,28.520248515760443,48.891854598446514,41.199023624928806,"{'others': ['m1', 'm3', 'm12', 'e1', 'e2']}"
1,272,1,0.0333666666666666,12.267461830263793,140.3350797838041,10.283489934581183,20.268170089972976,38.79312049281151,40.78641250982651,52.59062228468506,95.32250302044892,75.05484631766272,68.56978225788453,74.620057162992,56.46923244766958,13.108928961066113,29.242995374686075,9.075412357661207,7.058654055958641,14.260634711480902,12.755099446865737,13.108928961066113,26.21785792213228,50.41895754256211,43.11336822496084,"{'others': ['m1', 'm3', 'm12', 'e1', 'e2']}"
2,272,2,0.0667333333333332,6.37374327027374,138.00294929996284,12.093327573140868,22.534585439763088,38.769966742161046,41.1094088531437,52.55923346781603,93.26160818500983,70.80307934107996,67.52107895003701,72.55996543884567,56.4355286746578,12.093327573140868,28.21776433732896,6.046663786570548,6.046663786570434,14.25212322346369,12.747486540547246,12.093327573140924,32.248873528375896,54.41997407913431,38.76996674216105,"{'others': ['m1', 'm3', 'm12', 'e1', 'e2']}"
3,272,3,0.1000999999999998,4.52071204561981,142.4418905032388,12.13034332884979,24.5953326267935,40.88683528071037,40.886835280710166,52.72010893691412,93.54706716102018,69.00567450625417,66.71688830867367,72.78205997309851,56.608268867965535,12.13034332884979,28.304134433982767,4.043447776283188,6.065171664424838,14.295746709917683,10.887316332163447,11.119481384778965,26.28241054584112,48.52137331539899,46.893535846391146,"{'others': ['m1', 'm3', 'm12', 'e1', 'e2']}"
4,272,4,0.1334666666666664,2.0230939264148446,142.53841745375178,12.305999930870216,24.6119998617405,38.91498866742454,41.263181634481576,52.949435209841766,91.84489926683077,67.2507582394566,65.75055260848285,70.80828742452013,54.62353601320126,10.11546963207445,28.32331496980794,6.069281779244534,4.046187852829803,12.30599993087025,12.795169455848097,12.138563558489182,28.32331496980805,48.55425423395667,36.91799979261082,"{'others': ['m1', 'm3', 'm12', 'e1', 'e2']}"
5,272,5,0.166833333333333,6.3027696318879896,144.62075404204484,12.123619452160346,26.215279076615303,40.30817058408064,42.28026403026834,51.97396985241866,96.41383602802992,70.21296685478924,66.76921047375828,71.75198737478496,53.81399053108868,10.962109182258814,32.88632754677644,6.9758876614374685,4.982776901026682,14.093421343422742,10.162910660085885,10.962109182258814,29.896661406160437,53.813990531088734,44.25424067939243,"{'others': ['m1', 'm3', 'm12', 'e1', 'e2']}"
6,272,6,0.2001999999999996,8.383461197074377,147.5360274943067,12.368008068222627,28.75503467790754,41.12070499790919,43.13255201686127,53.21623968486731,102.65587653091808,73.90099855657725,69.13179204760945,73.19836805040995,54.898776037807465,11.18308400770161,37.6158280259051,9.149796006301244,3.0499320021004905,12.36800806822257,10.949590987909591,11.183084007701495,26.432744018203607,52.865488036407214,43.46673284436858,"{'others': ['m1', 'm3', 'm12', 'e1', 'e2']}"
7,272,7,0.2335666666666662,12.631030482995508,146.83274685494337,10.588259954054418,25.26206096599109,39.94282552128264,41.99519239038633,50.00943154726183,98.38889745030464,73.15159702462968,66.44891584088191,74.7550303209922,53.98974412071652,14.535700340192877,33.22445792044107,8.306114480110296,8.306114480110182,14.6832746854943,13.133120131626775,13.49743603017913,31.14792930041341,58.14280136077173,48.47704874306476,"{'others': ['m1', 'm3', 'm12', 'e1', 'e2']}"
8,272,8,0.2669333333333328,12.762405584889144,148.07779918605863,10.698388239487215,25.264789335087983,40.35827007110353,44.50798541802913,50.39872930420975,98.96843160306314,73.70369484494917,67.14004971955285,75.53255593449694,56.64941695087271,15.735949153020217,32.5209615829084,7.343442938076009,11.539696045548226,15.274591872815716,12.76240558488924,12.588759322416196,29.37377175230438,56.64941695087271,42.79355295794876,"{'others': ['m1', 'm3', 'm12', 'e1', 'e2']}"
9,272,9,0.3002999999999994,14.260634711480902,140.61014751727166,10.083791508512377,22.548043283968948,40.78641250982651,42.781904134442655,48.77887573303887,95.5568942390125,73.0500926098077,65.54464480533079,78.6535737663969,58.48599074937204,20.167583017024867,26.217857922132225,4.033516603404905,14.117308111917396,12.2674618302637,12.267461830263793,12.100549810214886,28.23461622383479,46.38544093915715,40.53634017994598,"{'others': ['m1', 'm3', 'm12', 'e1', 'e2']}"
10,272,10,0.333666666666666,18.15082471532241,132.63156960307938,8.315307499260584,22.548043283968948,38.793120492811305,40.78641250982651,50.58004088441036,99.33430363777045,76.87527112795766,67.56140310703324,80.67033206809947,60.5027490510746,20.16758301702498,28.23461622383468,8.06703320680981,16.134066413619962,14.260634711480934,10.28348993458124,11.09217065936366,28.23461622383479,46.38544093915715,38.79312049281153,"{'others': ['m1', 'm3', 'm12', 'e1', 'e2']}"
11,272,11,0.3670333333333326,14.181187660383946,131.8926693156432,10.226199851298247,24.398237785518685,36.32156256951522,38.94020890135349,48.299384759277046,97.01425001453316,72.64312513903022,65.17949073958687,80.22091167949156,60.16568375961867,22.060750711860123,26.07179629583481,4.011045583974578,16.044182335898313,14.181187660383891,12.19911889275938,12.033136751923736,26.07179629583476,46.12702421570765,44.52983250480482,"{'others': ['m1', 'm3', 'm12', 'e1', 'e2']}"
12,272,12,0.4003999999999992,12.159143185226965,131.4604657425344,9.994754130760723,22.348949654777837,38.45058686143171,38.45058686143171,50.13343166969989,94.48082896337388,72.21166629439824,65.9653772630208,81.95698387223803,61.967475610716576,21.98845908767362,21.98845908767362,1.998950826152168,17.990557435369283,12.159143185226965,12.642475082632144,11.993704956912891,25.986360739977897,43.97691817534724,36.858832019304046,"{'others': ['m1', 'm3', 'm12', 'e1', 'e2']}"
13,272,13,0.4337666666666658,16.03635739615222,128.5527246762429,7.956261333637826,22.23842648595897,36.29703624113412,38.26043561188701,49.8855047730228,95.99172421323792,73.83693439591808,65.63915600251147,79.56261333637752,61.66102533569261,20.885186000799195,24.863316667617937,2.983598000114057,16.907055333980225,12.099012080378053,10.711444632567806,10.93985933375194,27.846914667732165,43.75943733500765,36.02350531788028,"{'others': ['m1', 'm3', 'm12', 'e1', 'e2']}"
14,272,14,0.4671333333333324,16.15214288400216,130.48854795152272,8.324623898851204,22.57330591932401,36.84361856956183,38.836583974096754,50.63671033075728,97.43722460565829,74.94881480560133,66.62758939650905,80.76071442001103,62.58955367550857,21.199687535252902,25.23772325625339,3.028526790750334,17.161651814252423,14.276612204964987,12.281206189853924,12.11410716300162,30.28526790750413,46.437410791506295,40.58175674969876,"{'others': ['m1', 'm3', 'm12', 'e1', 'e2']}"
15,272,15,0.5004999999999991,4.562869578439658,129.5887092762841,12.412347201270732,24.571804673358088,36.956426891870734,39.25128826483176,57.28173476144393,98.47767747216784,73.91285378374141,71.4202058489987,83.66366970882694,67.33905122905588,18.36519578974253,22.44635040968535,2.0405773099713542,10.202886549856885,12.412347201270697,12.243463859828296,12.243463859828296,30.60865964957088,48.97385543931336,43.28718160248502,"{'others': ['m1', 'm3', 'm12', 'e1', 'e2']}"
16,272,16,0.5338666666666656,0.0,127.98089029325725,12.28120618985398,20.59002293796653,34.56001887237057,34.56001887237035,56.67653217481688,89.40853063504886,68.91331211012324,68.64660725700935,78.74169655951073,64.60857153600887,15.142633953752124,17.16165181425231,3.028526790750448,7.066562511750931,12.28120618985398,12.76939015148194,12.114107163001677,28.26625004700384,46.437410791506295,36.56596865521635,"{'others': ['m1', 'm3', 'm12', 'e1', 'e2']}"
17,272,17,0.5672333333333321,4.539830140893118,130.94872283909615,10.15136880133946,18.71819919326505,37.049019465615466,36.76982167016056,59.19214314744372,84.12784210344809,65.47436141954809,66.99903408884029,81.21095041071555,64.96876032857244,14.211916321875265,10.15136880133946,6.090821280803766,10.15136880133946,14.780616080073028,12.34967315520515,12.181642561607305,28.423832643750472,44.66602272589358,35.04795913325663,"{'others': ['m1', 'm3', 'm12', 'e1', 'e2']}"
18,272,18,0.6005999999999987,2.91381463611121,132.890393655531,10.301890441574528,18.9957473840514,37.31503423974156,35.26799193283891,58.02077376577186,85.37526607460521,66.4451968277655,66.96228787023426,80.3547454442812,63.87172073776196,14.42264661820434,12.362268529889434,6.181134264944717,8.241512353259623,14.569073180556437,12.532790633849404,13.392457574046889,28.845293236408622,47.38869603124277,41.41308704009504,"{'others': ['m1', 'm3', 'm12', 'e1', 'e2']}"
19,272,19,0.6339666666666652,2.902019556104644,136.42578819222487,12.48205807646518,20.622723727788305,37.44617422939552,37.16398351439484,59.65044547566842,90.87075444104784,70.25045521099412,70.79530090038475,80.02947058304369,63.61316892498337,12.312226243545185,18.46833936531777,2.0520377072575684,6.156113121772592,12.312226243545185,12.482058076465142,12.312226243545185,30.78056560886296,45.14482955966565,41.2454474555766,"{'others': ['m1', 'm3', 'm12', 'e1', 'e2']}"
20,272,20,0.6673333333333318,12.604224144886851,146.24247438370506,12.60422414488674,20.824565207978075,39.58782920992655,39.85805643713036,62.30163885100318,108.2472877779966,87.4229096704702,80.81274572237572,82.88486740756485,64.23577224086279,11.396669268540109,34.19000780562055,13.468790953729354,3.108182527783697,12.604224144886796,12.604224144886796,13.46879095372924,33.15394696302593,49.73092044453893,41.90606764892738,"{'others': ['m1', 'm3', 'm12', 'e1', 'e2']}"
21,272,21,0.7006999999999983,14.580281467485303,147.30809245857935,14.019289794330804,22.12115956899325,38.52377478083167,42.484863775674185,56.39811215279813,106.82406703814952,84.70969995509854,77.10609386881936,80.11022739617601,62.08542623203641,15.02066763678306,35.04822448582695,15.020667636782946,5.006889212261058,12.182287237478253,10.785169431635737,11.015156266974202,30.04133527356601,46.06338075280127,34.1057003547927,"{'others': ['m1', 'm3', 'm12', 'e1', 'e2']}"
22,272,22,0.7340666666666649,16.71472810612001,156.86656390616184,14.659786326009163,25.221650064334792,43.97935897802739,43.97935897802739,58.19769000190724,114.70287483889076,89.53277723903312,80.85506771056168,82.92827457493513,62.19620593120135,14.51244805061367,41.46413728746745,16.585654914987003,4.146413728746779,12.43924118624028,10.571322257154357,11.402637754053616,33.17130982997401,49.75696474496101,51.87161917422205,"{'others': ['m1', 'm3', 'm12', 'e1', 'e2']}"
23,272,23,0.7674333333333314,14.939060005782126,157.04457873643224,14.364263950802751,26.755298313439567,43.53029334156874,45.5626312315182,57.78590650272207,113.53166360048029,86.79416056014404,79.0034517294149,80.02947058304369,61.56113121772592,13.33824509717408,42.06677299877924,17.442320511688877,5.130094268143921,12.48205807646518,10.463380311934372,11.2862073899164,30.78056560886296,47.19686726692317,45.19144271566558,"{'others': ['m1', 'm3', 'm12', 'e1', 'e2']}"
24,272,24,0.800799999999998,12.604224144886851,162.69784336399206,14.6521129504092,23.167024728671432,43.95633885122769,48.062504030567126,56.10056602159487,106.40702979453545,83.29826083191236,76.66850235199746,78.74062403718659,60.09152887048453,13.46879095372924,36.26212949080968,13.468790953729354,5.180304212972715,12.432730111134733,12.604224144886755,12.432730111134733,31.0818252778368,47.65879875934979,47.70382361470024,"{'others': ['m1', 'm3', 'm12', 'e1', 'e2']}"
25,272,25,0.8341666666666645,20.717815230811865,163.6913815373265,12.539612921256111,23.048266937759752,43.73101178572514,45.77272079789663,55.81298574887332,112.00604059705536,89.02719429369179,78.33698728731565,76.27548762185995,59.78349029821459,12.36899799273408,43.29149297456911,22.67649632001246,6.184498996366983,14.577003928575085,12.539612921256111,12.36899799273408,30.922494981835086,49.47599197093615,49.86102495280476,"{'others': ['m1', 'm3', 'm12', 'e1', 'e2']}"
26,272,26,0.867533333333331,10.531787321917738,157.84172916291192,12.563662705752764,23.092471320810134,41.77121044607609,43.81488370552636,55.92002974519153,101.96313289258408,78.92086458145587,73.32359661135013,76.42177674985794,59.89814934448327,12.39272055403103,33.04725481074934,10.327267128359154,6.196360277015515,14.604961235175402,12.563662705752764,12.39272055403103,33.04725481074934,49.570882216124005,41.51510005843992,"{'others': ['m1', 'm3', 'm12', 'e1', 'e2']}"
27,272,27,0.9008999999999976,16.544056905137783,160.89860038961635,10.463380311934428,20.92676062386859,43.53029334156874,45.56263123151842,53.5105966268792,101.30085280312504,80.44930019480815,71.82131975401347,73.87335746127104,57.45705580321084,12.312226243545297,34.88464102337787,16.416301658060206,6.156113121772705,12.48205807646518,10.463380311934316,10.260188536287616,32.83260331612047,51.30094268143824,51.66898923699087,"{'others': ['m1', 'm3', 'm12', 'e1', 'e2']}"
28,272,28,0.934266666666664,10.505908077696724,157.68287676820037,10.50590807769668,20.706543520047624,41.66856810024251,43.70721954166924,53.72808715587736,95.3356333845656,74.630068479483,69.02266595854928,76.2339892676514,57.690586472817245,13.39245757404683,27.815104192251283,9.271701397417132,7.211323309102113,12.53279063384931,10.50590807769668,11.33207948573198,30.905671324723528,47.38869603124277,43.46372338778205,"{'others': ['m1', 'm3', 'm12', 'e1', 'e2']}"
29,272,29,0.9676333333333308,12.532790633849404,157.68287676820037,10.50590807769668,21.011816155393404,43.70721954166924,45.74781774398004,51.67401956711261,95.58022666520095,74.630068479483,67.99247691439177,74.17361117933649,55.63020838450234,13.39245757404683,29.87548228056619,9.271701397417132,7.211323309102113,12.532790633849348,10.505908077696724,11.33207948573198,30.905671324723528,49.44907411955768,43.46372338778205,"{'others': ['m1', 'm3', 'm12', 'e1', 'e2']}"
30,272,30,1.0009999999999972,14.6440590463564,156.69827466484102,14.496878838084626,27.239524410715436,41.88303292013281,45.98327813871303,52.14601174278039,108.40560825600168,81.19203055076557,73.51988553600069,78.69734226388806,57.98751535233856,16.56786152923962,39.348671131944,14.496878838084626,8.283930764619754,12.597295914653552,12.597295914653497,12.425896146929633,35.20670574963418,57.98751535233862,41.62623691920293,"{'others': ['m1', 'm3', 'm12', 'e1', 'e2']}"
31,272,31,1.0343666666666638,12.682575089816886,155.42711244932897,16.80982757044131,27.185106641223385,44.22958222147184,46.29456843923048,56.44930088289044,113.07174447906117,85.89096881894494,79.23009504522179,83.40010004760188,64.63507753689146,17.7225212601154,38.57254627201587,11.46751375654526,7.297508754165165,12.682575089816886,10.631468439457814,11.46751375654526,37.53004502142085,56.29506753213127,52.49902153945527,"{'others': ['m1', 'm3', 'm12', 'e1', 'e2']}"
32,272,32,1.0677333333333303,4.544281070658825,143.42948994346094,14.37027851127053,24.47170249543947,39.091383874671855,41.10000144452936,55.021467627146365,98.07649285742846,73.61174290734105,71.12924968001067,79.25830678629762,60.967928297152014,15.241982074288105,27.43556773371836,5.08066069142933,5.080660691429443,12.361780993194104,10.362555203016804,11.177453521144573,32.516228425147744,50.80660691429336,44.894185234135314,"{'others': ['m1', 'm3', 'm12', 'e1', 'e2']}"
33,272,33,1.1010999999999969,2.08285313012766,144.6796022427365,12.49711878076539,21.24101750893645,42.12309769150418,42.12309769150418,60.438641365738654,94.09794730488704,73.01878273230375,72.89985955446451,79.14841894484715,62.48559390382678,10.414265650637844,22.91138443140312,2.082853130127546,4.165706260255092,12.669500976054238,10.620508754468249,11.45569221570156,31.242796951913363,47.905621992933845,37.7220745589602,"{'others': ['m1', 'm3', 'm12', 'e1', 'e2']}"
34,272,34,1.1344666666666634,2.073206864373333,148.12914337221213,14.659786326009163,20.835471123806386,39.878930275515366,39.878930275515344,58.19769000190725,93.8684331396557,73.03457878144951,72.56224025306824,78.78186084618835,62.19620593120135,12.439241186240224,22.805275508107115,2.0732068643734465,4.146413728746779,12.610825032167396,12.610825032167488,13.475844618426947,41.46413728746751,55.97658533808112,49.929433077506935,"{'others': ['m1', 'm3', 'm12', 'e1', 'e2']}"
35,272,35,1.16783333333333,6.525624128047829,149.49234974653916,14.591739145927658,29.18347829185528,39.693821932899255,41.73339434621733,57.8171770796008,107.80125650523132,78.66016665923924,75.32079920555168,78.41617451536888,61.907506196343775,12.381501239268689,37.1445037178064,10.317917699390703,2.0635835398780955,12.381501239268744,10.317917699390648,11.349709469329753,41.27167079756259,57.780339116587584,51.9597058740664,"{'others': ['m1', 'm3', 'm12', 'e1', 'e2']}"
36,272,36,1.2011999999999965,7.440356264233961,153.83042980435584,14.445084779146896,28.96377520512513,41.73339434621733,43.775217437782814,55.86940450818329,105.74733126856157,76.79747509578341,73.25721566567347,78.41617451536888,59.84392265646568,13.413293009207791,36.11271194786718,9.2861259294516,3.0953753098172,12.552288634510829,10.52225273776743,11.349709469329753,39.20808725768444,57.780339116587584,49.697672733363085,"{'others': ['m1', 'm3', 'm12', 'e1', 'e2']}"
37,272,37,1.234566666666663,6.552624114224045,152.410149219892,16.576973481512937,29.3042259008184,41.90606764892739,43.95633885122769,56.29157973742145,108.465228909328,79.17565841985314,75.6324415094029,80.81274572237572,62.163650555673655,15.540912638918371,36.26212949080957,9.324547583351093,5.180304212972828,12.604224144886796,12.60422414488674,12.432730111134733,37.298190333404136,55.94728550010626,43.711454835235074,"{'others': ['m1', 'm3', 'm12', 'e1', 'e2']}"
38,272,38,1.2679333333333296,12.610825032167543,156.6060449803223,14.659786326009051,27.268778841926256,43.97935897802739,45.79863656062941,56.12994613324896,110.58183019180647,83.341884495226,76.7086539818149,80.85506771056168,62.19620593120135,15.549051482800335,38.35432699090745,11.402637754053558,5.183017160933446,12.610825032167396,12.610825032167453,12.43924118624028,39.390930423094176,55.97658533808118,54.26101631191723,"{'others': ['m1', 'm3', 'm12', 'e1', 'e2']}"
