,video_id,frame_seq,time_seconds,m1,m3,m4,m5,m6,m7,m8,m9,m10,m11,m12,m13,m14,m15,m16,m17,e1,e2,e3,b1,b2,b3,label_measures
0,188,0,0.0,7.525766947068746,135.67269307424272,17.738402806339796,27.70827095386325,37.712361663282486,40.21574071649801,40.13742371770013,92.95329284610696,65.27153780924938,61.46043006772834,72.74908048833151,65.22331354126277,28.84877329709707,23.83159533238438,3.76288347353443,13.797239402959462,9.044846204949572,7.525766947068746,7.525766947068803,50.17177964712522,60.20613557655025,67.77834195487083,"{'others': ['m1', 'm3', 'm12', 'e1', 'e2']}"
1,188,1,0.0333666666666666,4.985996549442234,139.69691066367403,17.628159855416897,30.019674509820696,42.454230829814406,44.9431655457517,37.477981934655226,89.7825561893739,59.83195859330738,57.33896031858626,67.31095341747084,62.324956868028494,27.422981021932515,24.92998274721151,4.985996549442234,12.4649913736057,7.88355275098899,9.971993098884582,8.725493961524023,49.8599654944228,59.83195859330738,69.98179644333888,"{'others': ['m1', 'm3', 'm12', 'e1', 'e2']}"
2,188,2,0.0667333333333332,5.6142355379959294,143.31154128172778,20.086099687446332,27.732277809382182,40.25058422869616,42.75674402025474,35.15067445303117,88.02004134391483,60.31058393036427,57.747536601408285,70.30134890606229,62.76906152326984,31.38453076163489,21.34148091791178,6.276906152327001,13.809193535119334,7.939728040190871,10.043049843723225,8.787668613257836,50.215249218615895,60.25829906233906,70.34616966222906,"{'others': ['m1', 'm3', 'm12', 'e1', 'e2']}"
3,188,3,0.1000999999999998,5.546788628330653,139.0021246128032,19.844794287632112,29.76719143144817,39.76703174856303,44.71963959693272,34.72839000335625,89.33602041878643,59.586039603949295,57.05378357694235,66.9761807207584,62.01498214885044,29.76719143144817,24.8059928595402,4.961198571907971,12.402996429770042,7.844343705802029,9.922397143816111,8.682097500839063,49.61198571908034,59.53438286289639,69.4567800067125,"{'others': ['m1', 'm3', 'm12', 'e1', 'e2']}"
4,188,4,0.1334666666666664,4.898765169278249,134.91629734528803,19.74755372155442,27.05431491655048,39.19012135422622,41.711482391791314,36.74073876958698,88.31374502144912,61.28353268827084,58.78518203133922,68.58271236989572,61.23456461597834,28.167899723350047,23.2691345540718,6.123456461597812,11.022221630876174,7.745627828609842,7.348147753917374,8.572839046236936,48.98765169278266,58.78518203133922,71.0743131424848,"{'others': ['m1', 'm3', 'm12', 'e1', 'e2']}"
5,188,5,0.166833333333333,5.55020492775576,139.1984314261954,19.857016812026018,27.415989926647985,39.7915244950526,42.26910142083589,32.26765231954232,84.53820284167178,57.142857142857125,54.60679623307158,64.53530463908453,57.088923334574815,28.54446166728735,23.580207464280875,6.205317753758095,11.169571956764685,10.234072215706114,7.446381304509771,8.68744485526139,52.12466913156834,59.57105043607811,72.15266406082534,"{'others': ['m1', 'm3', 'm12', 'e1', 'e2']}"
6,188,6,0.2001999999999996,35.78396569982803,107.92349193977962,11.927988566609333,23.61295574899551,27.52323417282853,31.43640779200228,41.1799340597496,112.20331538878068,88.59064312915471,70.59417267385646,86.28176660138007,82.3598681194992,43.140883300690064,27.4532893731664,5.882847722821339,29.414238614106864,8.085200846872272,6.201065977350174,7.843796963761747,49.02373102351143,50.98468026445187,51.135300032077446,"{'others': ['m1', 'm3', 'm12', 'e1', 'e2']}"
7,188,7,0.2335666666666662,36.42566771237951,110.7843433509778,12.016249161133366,21.73005112629096,27.7268910591303,31.85332237524772,45.47848593485531,114.84878711784044,93.18222378366112,75.06744934536886,86.9202045051639,80.99382692526638,38.521454269334015,30.619617496137263,10.865025563145425,26.668699109538977,8.145026913070014,8.145026913069959,8.88956636984625,49.386479832479495,53.33739821907784,53.37396825986314,"{'others': ['m1', 'm3', 'm12', 'e1', 'e2']}"
8,188,8,0.2669333333333328,5.436770213017925,121.95828089841632,19.45118043896673,29.27790361562146,38.978267995727855,43.83264277562293,34.12629091707568,87.83371084686453,58.55580723124307,55.92214376202929,72.94192664612518,63.21633642664182,34.03956576819178,19.451180438966617,12.156987774354208,17.01978288409589,10.024908936601015,10.024908936601015,9.725590219483363,48.62795109741677,55.92214376202929,72.94192664612501,"{'others': ['m1', 'm3', 'm12', 'e1', 'e2']}"
9,188,9,0.3002999999999994,5.412724847357295,126.24535281989914,19.515856977125143,31.561338204974792,38.80587764814107,41.43475340833472,31.46837382570249,87.44524607607441,55.88490961899394,53.25417108965047,70.19868007272106,60.51610351096639,33.889017966141296,21.78579726394787,9.682576561754672,16.94450898307059,9.980571473061064,9.682576561754615,9.682576561754615,48.41288280877313,53.25417108965047,70.36542301564607,"{'others': ['m1', 'm3', 'm12', 'e1', 'e2']}"
10,188,10,0.333666666666666,5.65176994345232,146.6195923172197,15.165290144099572,30.435712597500057,42.968322074948446,45.56602601819951,37.9132253602487,88.60850613092533,58.18853297973239,55.6060638616982,63.18870893374788,60.66116057639806,24.011709394824265,26.53925775217408,6.318870893374765,8.846419250724693,7.992809705442945,7.992809705442927,8.846419250724693,50.550967146998346,53.07851550434828,70.77135400579755,"{'others': ['m1', 'm3', 'm12', 'e1', 'e2']}"
11,188,11,0.3670333333333326,8.000000000000014,144.22205101855954,17.70875489694299,30.46309242345568,40.47715405015538,45.53679830642477,32.88768766575106,88.68821793225976,58.24087911424411,54.39117575489604,63.245553203367535,60.71573107523284,29.092954473549185,26.56313234541437,6.324555320336799,11.384199576606193,8.000000000000014,7.589466384404091,8.854377448471439,53.12626469082875,58.1859089470982,70.83501958777174,"{'others': ['m1', 'm3', 'm12', 'e1', 'e2']}"
12,188,12,0.4003999999999992,5.76462240563986,146.9696106742579,18.0461225890806,28.358192639983827,43.82629771633856,43.82629771633856,41.24828020361269,92.84442935259725,64.50197756074215,61.87242030541916,67.02845533087066,64.4504378181449,24.491166370895144,27.06918388362089,3.867026269088683,9.023061294540298,5.764622405639809,8.152407188015635,7.734052538177366,54.13836776724173,56.71638527996754,69.7971758662915,"{'others': ['m1', 'm3', 'm12', 'e1', 'e2']}"
13,188,13,0.4337666666666658,7.663875980483714,135.8042283726457,14.541182282030718,24.235303803384568,36.352955705076965,38.85214759362521,36.352955705076965,82.43566537984618,58.21519744922588,54.52943355761545,63.01178988879997,58.1647291281231,24.235303803384568,21.811773423046134,4.847060760676982,9.69412152135385,9.992471745028816,9.69412152135385,9.69412152135385,53.31766836744612,55.74119874778461,65.4353202691384,"{'others': ['m1', 'm3', 'm12', 'e1', 'e2']}"
14,188,14,0.4671333333333324,5.127783730026408,141.01405257572424,17.947243055092144,30.87334638235221,38.45837797519744,43.58616170522373,35.89448611018429,89.7728348302499,58.96951289530284,56.405621030289694,64.09729662532914,64.09729662532914,28.202810515144847,25.6389186501317,7.6916755950395554,10.255567460052704,5.733036497128163,8.10773796781857,7.691675595039499,53.84172916527649,53.84172916527649,69.27254356309503,"{'others': ['m1', 'm3', 'm12', 'e1', 'e2']}"
15,188,15,0.5004999999999991,5.62521699253595,130.81502286837372,17.609714616896554,27.67240868369447,40.25077626719212,40.32931444190665,35.21942923379288,85.56988676932465,57.91515361794608,55.34481736738894,62.89183791748735,62.89183791748735,27.67240868369447,22.641061650295452,7.547020550098409,10.062694066797915,7.547020550098466,7.547020550098466,8.80485730844822,55.344817367388885,52.82914385068944,68.10927621728794,"{'others': ['m1', 'm3', 'm12', 'e1', 'e2']}"
16,188,16,0.5338666666666656,8.212150138980968,142.92444598554138,18.178369248513377,28.56600881909253,41.550558282316615,41.631632619472256,39.04011608405765,93.48875613521216,64.92274731611963,61.0273824771524,59.72892753082999,64.92274731611963,23.37218903380301,31.162918711737348,2.596909892644817,7.790729677934337,5.19381978528952,5.806867051395441,5.193819785289577,62.32583742347475,54.535107745540415,65.13016876252331,"{'others': ['m1', 'm3', 'm12', 'e1', 'e2']}"
17,188,17,0.5672333333333321,7.841629973778254,143.78697673748655,15.683259947556508,26.13876657926073,41.90363055861206,44.43590318474321,39.29518249511357,88.91023742268591,62.78747193911313,58.81222480333679,57.50528647437375,60.11916313229983,19.604074934445634,30.05958156614986,1.3069383289630423,3.920814986889127,3.696579820009528,5.844805891922639,5.227753315852112,65.34691644815194,57.50528647437375,63.22124201538365,"{'others': ['m1', 'm3', 'm12', 'e1', 'e2']}"
18,188,18,0.6005999999999987,10.77108203230882,138.55421396286428,18.28659779116549,28.736082243260057,39.18556669535451,39.18556669535474,39.53234838160676,96.69302704983292,67.97186827925637,62.6969067125674,60.08453559954376,65.30927782559104,23.51134001721277,33.96082446930734,2.6123711130236416,7.837113339070925,5.224742226047283,5.841439391177699,5.224742226047283,67.92164893861468,57.472164486520114,62.91422766475815,"{'others': ['m1', 'm3', 'm12', 'e1', 'e2']}"
19,188,19,0.6339666666666652,13.061855565118208,136.24460834644515,18.28659779116549,31.45711383237909,36.66637584948361,41.797937808378265,42.12321849481232,104.78832414418152,73.33275169896721,66.61546338210292,62.6969067125674,73.14639116466196,26.123711130236416,36.57319558233098,2.6123711130236416,7.837113339070925,7.837113339070925,8.261042810783831,6.530927782559104,70.53402005163832,57.472164486520114,65.51793419689676,"{'others': ['m1', 'm3', 'm12', 'e1', 'e2']}"
20,188,20,0.6673333333333318,15.57635871504227,133.55173369810862,18.10714920850368,33.38793342452715,35.941664940407776,40.971801578526765,41.29065309227839,107.82499482122276,74.43778346080283,66.57917756510585,61.457702367790034,71.70065276242167,25.6073759865792,40.971801578526765,5.121475197315817,7.682212795973783,5.121475197315874,8.097763301789108,7.682212795973726,66.57917756510591,53.77548957181631,61.67072797141758,"{'others': ['m1', 'm3', 'm12', 'e1', 'e2']}"
21,188,21,0.7006999999999983,15.291663498393236,128.30918143379355,17.776197741532563,32.777689071937814,40.22294389360218,40.22294389360218,40.30142776119464,105.7048710766205,72.9474166197802,65.36228382710351,65.36228382710351,70.39015181380375,27.65327392685151,37.709009900252,2.513933993350065,10.0557359734006,7.541801980050423,10.3652153904134,8.798768976725455,67.87621782045363,55.306547853702966,63.29924054783081,"{'others': ['m1', 'm3', 'm12', 'e1', 'e2']}"
22,188,22,0.7340666666666649,12.811515829813688,130.74893906295372,15.28321439801733,30.150539637656607,35.265249160927745,40.20071951687555,43.00784221523169,100.6273476216419,70.53049832185583,64.06989673002033,62.81362424511792,67.83871418472745,22.61290472824237,35.175629577266136,2.512544969804821,7.537634909414123,7.537634909414123,10.050179879218888,8.793907394316534,67.83871418472734,55.27598933570374,63.264265828621376,"{'others': ['m1', 'm3', 'm12', 'e1', 'e2']}"
23,188,23,0.7674333333333314,17.698846316631602,126.64768299546158,15.170439699970077,27.812472783278395,37.92609924992507,40.533441562849006,43.27934987519233,103.78793490727044,76.020572066628,67.0027753415344,63.21016541654183,70.79538526652686,24.019862858285933,36.66189594159414,3.792609924992462,8.849423158315858,7.585219849985037,7.995523759691077,8.849423158315858,68.26697864986511,53.09653894989509,63.41211534133899,"{'others': ['m1', 'm3', 'm12', 'e1', 'e2']}"
24,188,24,0.800799999999998,7.945364828182006,126.02861452397278,17.766375861850598,30.255047887372346,35.175629577266136,40.20071951687533,43.00784221523158,98.27873526198437,68.02457402393851,64.06989673002022,60.3010792753131,70.35125915453204,22.61290472824237,32.66308460746143,1.1368683772161605e-13,7.537634909414123,7.537634909414123,7.53763490941418,7.537634909414123,65.32616921492263,52.76344436589903,63.264265828621376,"{'others': ['m1', 'm3', 'm12', 'e1', 'e2']}"
25,188,25,0.8341666666666645,2.5615250737209863,135.85745584393342,20.492200589767663,28.17677581093062,40.984401179535325,41.0643708188546,46.3911921670784,97.47267667597998,69.35066002223611,67.88041445360557,64.03812684302409,69.16117699046606,20.492200589767663,30.738300884651608,0.0,2.5615250737209863,7.684575221162902,10.561438441619636,10.246100294883888,66.59965191674513,53.79202654814031,64.24272201873502,"{'others': ['m1', 'm3', 'm12', 'e1', 'e2']}"
26,188,26,0.867533333333331,0.0,138.67729670363465,18.28659779116549,28.736082243260057,39.2725491923842,41.797937808378265,47.31205310434757,94.19037998547672,65.51793419689665,65.30927782559104,62.6969067125674,70.53402005163832,19.59278334767737,27.42989668674818,3.918556669535519,1.3061855565118776,7.837113339070925,8.261042810783902,9.143298895582744,65.30927782559104,54.85979337349647,63.18482774221848,"{'others': ['m1', 'm3', 'm12', 'e1', 'e2']}"
27,188,27,0.9008999999999976,2.5780175127258644,136.7321772459778,18.0461225890806,28.358192639983717,36.09224517816119,38.75610133744276,46.475871655884966,95.42147968571668,67.07801426949413,65.73944657450784,61.87242030541916,67.02845533087077,18.04612258908071,30.936210152709464,1.1368683772161605e-13,2.5780175127258644,7.734052538177423,8.152407188015635,9.023061294540298,64.45043781814496,54.13836776724179,59.79667023510123,"{'others': ['m1', 'm3', 'm12', 'e1', 'e2']}"
28,188,28,0.934266666666664,2.5793035208766923,141.88513992449285,18.055124646136505,25.92167957392949,41.2688563340264,43.84815985490309,46.713173539383725,93.17678188214428,67.26000686818672,65.7722397823544,64.48258802191606,67.06189154279275,19.34477640657485,27.08268696920481,1.2896517604383462,3.868955281314925,7.737910562629906,8.156473902861848,7.737910562629906,64.48258802191611,51.58607041753288,57.2698321966609,"{'others': ['m1', 'm3', 'm12', 'e1', 'e2']}"
29,188,29,0.9676333333333308,2.5627865463170565,141.046421498484,17.939505824219054,28.190652009487167,41.08459376298804,41.00458474107222,43.86783947747104,92.40258300815267,64.27435959049005,62.78827038476686,61.50687711160833,66.63245020424245,20.50229237053611,28.190652009487167,2.5627865463170565,2.5627865463170565,7.688359638951056,8.104242643198269,8.969752912109584,64.06966365792539,51.255730926340334,59.44339060406232,"{'others': ['m1', 'm3', 'm12', 'e1', 'e2']}"
30,188,30,1.0009999999999972,2.7004844428493016,148.62481134981928,19.09530862027517,29.70532887134232,43.207751085588825,43.207751085588825,43.29205897275242,89.27950232329768,59.65565118513667,60.760899964109285,62.111142185533936,67.51211107123254,21.60387554279441,24.304359985643718,8.101453328547905,5.400968885698603,8.101453328547905,8.539681625254598,8.101453328547905,64.81162662838324,51.30920441413673,62.63726949369882,"{'others': ['m1', 'm3', 'm12', 'e1', 'e2']}"
31,188,31,1.0343666666666638,8.207481245798526,140.1774365164355,15.787405394190056,28.667499550564944,38.93150188475943,41.52693534374339,41.850107029773504,93.75947240795234,65.09313999469127,60.99268628612322,62.2904030156152,64.88583647459916,22.06118440136379,29.84748477831556,1.297716729491981,6.488583647459905,7.786300376951885,8.207481245798526,9.084017106443866,64.8858364745991,51.90866917967929,62.77516054466049,"{'others': ['m1', 'm3', 'm12', 'e1', 'e2']}"
32,188,32,1.0677333333333303,2.6306682088232947,142.05608327645723,15.784009252939768,26.306682088232836,42.09069134117249,44.79866532861133,47.643427603097855,92.22358869301662,65.97682302498811,64.45137111617055,68.39737342940543,68.39737342940543,21.04534567058636,23.67601387940954,5.261336417646589,7.892004626469884,8.318903308077106,8.318903308077052,9.207338730881531,65.76670522058203,49.98269596764237,63.62737544936437,"{'others': ['m1', 'm3', 'm12', 'e1', 'e2']}"
33,188,33,1.1010999999999969,5.021524921861555,138.1832056422889,17.575337226515558,27.618387070238786,40.17219937489267,42.68296183582356,42.97733057809951,93.03382895299995,65.47267469677024,62.7690615232699,60.25829906233912,65.27982398420068,20.086099687446332,30.12914953116956,2.5107624609307777,2.5107624609307777,10.043049843723168,10.043049843723168,11.298431074188557,65.27982398420062,50.215249218615895,63.56742825280519,"{'others': ['m1', 'm3', 'm12', 'e1', 'e2']}"
34,188,34,1.1344666666666634,5.609375492155576,135.55668390974185,17.738402806339796,27.70827095386336,37.62883473534407,40.13742371770013,42.71973101385088,92.95329284610705,65.27153780924938,62.7147245589066,60.20613557655031,65.22331354126277,20.06871185885018,30.103067788275094,2.5085889823562866,5.017177964712573,10.034355929425033,7.93285489744976,8.78006143824689,67.731902523619,55.188957611837736,61.03660426318236,"{'others': ['m1', 'm3', 'm12', 'e1', 'e2']}"
35,188,35,1.16783333333333,3.502175855450133,133.8179515418188,12.38206148148356,24.887635564396312,39.62259674074744,39.62259674074744,50.08233925498144,89.45985864582302,64.57693199316358,63.14851355556596,59.43389511112093,64.38671970371433,12.38206148148356,27.24053525926377,0.0,2.4764122962967576,7.429236888890159,10.21050947020969,9.905649185186803,59.43389511112093,49.52824592593413,57.439954816767134,"{'others': ['m1', 'm3', 'm12', 'e1', 'e2']}"
36,188,35,1.16783333333333,48.96939519004627,155.28438095161755,16.32313173001512,32.64626346003115,48.96939519004627,57.71098568247458,57.130961055054286,155.06975143514683,122.42348797511568,97.93879038009254,97.93879038009254,89.77722451508453,36.72704639253425,61.21174398755829,28.565480527527143,20.403914662519128,16.32313173001603,16.32313173001512,16.32313173001512,73.45409278507032,89.77722451508544,65.29252692006048,"{'others': ['m1', 'm3', 'm12', 'e1', 'e2']}"
37,188,36,1.2011999999999965,3.477012261373962,137.7704409415147,14.955195214917136,27.156333887519395,36.87928422429445,39.33790317258058,42.084777413354814,86.36719285680505,59.21138519800056,57.77754528472792,56.548235810584856,61.46547370715746,17.21033263800416,27.044808431149136,2.4586189482863574,2.4586189482863574,7.375856844858902,7.774835775032462,8.60516631900208,63.9240926554437,51.6309979140122,54.590199821086,"{'others': ['m1', 'm3', 'm12', 'e1', 'e2']}"
38,188,36,1.2011999999999965,41.61598360714686,147.81224447584103,16.32313173001603,40.807829325039165,40.807829325038256,49.64486703222994,65.29252692006139,163.43522908147037,122.6952385602724,102.01957331259656,106.10035624510056,89.77722451508453,32.64626346003115,65.2925269200623,24.484697595023132,16.32313173001512,16.32313173001512,18.249816076998982,20.403914662519128,73.4540927850694,97.93879038009254,65.29252692006048,"{'others': ['m1', 'm3', 'm12', 'e1', 'e2']}"
39,188,37,1.234566666666663,2.473758861266333,133.67456780849636,15.047287710305165,27.323559692154745,37.10638291899773,39.580141780264285,42.34393097933312,84.43457575427405,57.111158171317456,56.89645380912998,56.89645380912998,61.84397153166299,17.316312028865696,24.73758861266515,4.947517722533121,2.4737588612665604,10.199569077309528,7.822712383626706,8.658156014432791,64.31773039292955,51.94893608659697,57.37840885026103,"{'others': ['m1', 'm3', 'm12', 'e1', 'e2']}"
40,188,37,1.234566666666663,47.9616460186453,144.7703921859504,15.98721533954904,31.974430679097168,39.96803834887214,40.75956149218469,63.948861358194335,159.87215339548584,127.89772271638869,103.91689970706648,103.91689970706648,87.92968436751744,31.97443067909808,63.94886135819343,31.97443067909626,15.98721533954904,17.874250135078498,17.87425013507931,15.98721533954813,71.9424690279684,95.9232920372915,64.44652537249658,"{'others': ['m1', 'm3', 'm12', 'e1', 'e2']}"
41,188,38,1.2679333333333296,2.4751318961383504,136.1547536273686,14.850791376829989,29.70158275366009,34.65184654593668,37.12697844207514,42.36743355056391,89.24214965063197,59.60906964467068,58.16559955925095,56.92803361118183,59.40316550732018,16.088357324899107,30.939148701729323,1.2375659480691183,1.2375659480691183,7.425395688414994,7.827054301128543,7.425395688415051,64.35342929959688,51.97776981890519,59.86545392310666,"{'others': ['m1', 'm3', 'm12', 'e1', 'e2']}"
