,video_id,frame_seq,time_seconds,m1,m3,m4,m5,m6,m7,m8,m9,m10,m11,m12,m13,m14,m15,m16,m17,e1,e2,e3,b1,b2,b3
0,47,218,7.273933333333343,3.1622776601683795,31.25699921617557,4.0,6.0,8.06225774829855,9.055385138137417,6.082762530298219,19.1049731745428,13.152946437965905,11.5,14.0,10.0,6.0,7.0,1.0,3.0,4.123105625617661,4.0,4.0,8.0,12.0,10.04987562112089
1,47,219,7.3073000000000095,2.0,29.068883707497267,3.0,6.082762530298219,8.0,9.055385138137417,6.324555320336759,17.26267650163207,11.180339887498949,10.0,12.0,10.0,5.0,6.0,0.0,2.0,4.0,4.0,4.0,8.0,10.0,11.0
2,47,220,7.340666666666676,2.0,29.068883707497267,3.0,5.0,8.0,9.055385138137417,6.324555320336759,16.1245154965971,11.180339887498949,10.0,12.0,10.0,5.0,5.0,0.0,2.0,4.0,4.0,4.0,8.0,9.0,10.0
3,47,221,7.374033333333343,2.23606797749979,28.071337695236398,3.0,4.0,8.06225774829855,8.0,6.324555320336759,15.297058540778355,11.40175425099138,10.0,11.0,9.0,4.0,5.0,0.0,2.0,3.0,3.0,3.0,8.0,9.0,8.0
4,47,222,7.40740000000001,2.0,28.0178514522438,3.0,5.0990195135927845,8.0,8.0,5.385164807134504,15.297058540778355,10.198039027185569,9.0,10.0,9.0,4.5,5.5,0.5,1.5,3.0,2.0,2.5,7.0,9.0,8.0
5,47,223,7.440766666666676,1.0,25.019992006393608,3.1622776601683795,5.0,7.0,8.0,5.0990195135927845,14.142135623730951,9.219544457292887,8.5,10.0,9.0,4.5,4.5,0.5,1.5,4.123105625617661,3.0,3.0,7.0,8.0,9.0
6,47,224,7.474133333333343,2.0,25.019992006393608,3.0,4.0,7.0,8.0,5.385164807134504,14.142135623730951,10.198039027185569,9.0,10.0,9.0,4.5,4.5,0.5,1.5,3.0,3.0,3.0,8.0,9.0,8.0
7,47,225,7.50750000000001,1.0,25.019992006393608,3.0,5.0990195135927845,8.06225774829855,8.06225774829855,5.385164807134504,14.317821063276353,9.219544457292887,8.5,10.0,9.0,4.5,4.5,0.5,2.5,2.23606797749979,3.0,3.0,7.0,8.0,8.0
8,47,226,7.540866666666677,1.0,23.021728866442675,3.0,5.0990195135927845,6.0,7.0,5.385164807134504,14.317821063276353,9.219544457292887,8.5,9.0,8.0,3.5,5.5,0.5,1.5,3.0,2.0,2.0,7.0,8.0,7.0
9,47,227,7.574233333333344,1.0,22.02271554554524,3.0,5.0990195135927845,6.0,7.0,5.385164807134504,14.317821063276353,9.219544457292887,8.5,10.0,9.0,4.5,4.5,0.5,1.5,2.0,3.0,3.0,6.0,7.0,7.0
10,47,228,7.60760000000001,1.4142135623730951,22.02271554554524,2.23606797749979,5.0990195135927845,7.0710678118654755,6.0,4.123105625617661,12.165525060596439,7.0710678118654755,6.5,8.0,7.0,3.5,4.5,0.5,1.5,3.0,2.0,2.5,6.0,7.0,7.0
11,47,229,7.640966666666677,2.0,22.02271554554524,2.0,4.123105625617661,6.0,7.0,4.123105625617661,12.165525060596439,8.06225774829855,7.0,8.0,7.0,3.5,4.5,0.5,1.5,3.1622776601683795,3.0,2.5,6.0,6.0,7.0
12,47,230,7.674333333333344,1.0,20.024984394500787,3.0,5.0990195135927845,6.0,7.0710678118654755,3.1622776601683795,12.165525060596439,7.0710678118654755,6.5,8.0,7.0,4.5,4.5,0.5,1.5,3.1622776601683795,2.0,2.0,6.0,6.0,6.0
13,47,231,7.707700000000011,1.0,20.024984394500787,3.0,4.0,6.082762530298219,6.0,3.605551275463989,11.180339887498949,7.280109889280518,6.5,8.0,7.0,4.5,3.5,0.5,2.5,3.1622776601683795,2.0,2.0,6.0,7.0,7.0
14,47,232,7.741066666666677,1.0,17.029386365926403,3.0,4.123105625617661,5.0990195135927845,5.0990195135927845,4.47213595499958,12.36931687685298,8.246211251235321,7.5,9.0,8.0,4.5,3.5,0.5,2.5,3.0,2.0,2.0,5.0,6.0,6.0
15,47,299,9.976633333333298,13.038404810405298,81.30190649671138,5.0990195135927845,11.045361017187261,19.1049731745428,20.024984394500787,14.0,43.01162633521314,32.0,25.5,11.0,18.0,0.5,28.5,14.5,4.5,10.198039027185569,10.0,9.5,40.0,20.0,30.4138126514911
16,47,311,10.377033333333287,13.038404810405298,64.6297145282261,4.123105625617661,7.280109889280518,16.278820596099706,17.11724276862369,13.152946437965905,37.48332962798263,30.265491900843113,23.5,15.0,24.0,6.5,17.5,8.5,1.5,6.082762530298219,5.0990195135927845,5.0,27.0,10.0,22.561028345356956
17,47,340,11.3446666666666,1.4142135623730951,25.317977802344327,2.0,3.1622776601683795,7.0710678118654755,7.0710678118654755,6.082762530298219,12.36931687685298,9.219544457292887,8.5,6.0,10.0,2.0,4.0,0.0,0.0,3.0,3.1622776601683795,3.5,10.0,6.0,7.0
18,47,341,11.378033333333263,0.0,24.08318915758459,2.23606797749979,3.1622776601683795,6.0,6.0,6.0,11.180339887498949,8.06225774829855,8.0,8.0,10.0,3.0,2.0,1.0,1.0,3.1622776601683795,3.1622776601683795,3.0,9.0,7.0,7.0
19,47,342,11.411399999999931,0.0,24.0,3.0,3.1622776601683795,6.0,6.0,6.0,12.041594578792296,9.0,9.0,9.0,9.0,3.0,3.0,0.0,1.0,3.0,3.1622776601683795,3.0,8.0,7.0,8.0
20,47,365,12.178833333333246,7.0,45.17742799230607,4.123105625617661,8.246211251235321,13.0,13.038404810405298,11.180339887498949,30.4138126514911,22.20360331117452,18.5,13.0,9.0,0.0,19.0,10.0,3.0,1.4142135623730951,1.4142135623730951,1.5,12.0,20.0,21.095023109728988
21,47,366,12.212199999999912,4.0,40.311288741492746,4.123105625617661,9.219544457292887,10.04987562112089,11.0,11.180339887498949,28.442925306655784,19.235384061671343,17.0,14.0,9.0,0.5,16.5,7.5,2.5,2.23606797749979,2.23606797749979,2.0,12.0,20.0,19.235384061671343
22,47,367,12.245566666666578,4.123105625617661,38.3275357934736,4.0,8.06225774829855,10.04987562112089,11.045361017187261,11.180339887498949,27.294688127912362,19.235384061671343,17.0,14.0,9.0,0.5,15.5,6.5,2.5,2.23606797749979,2.8284271247461903,2.0,11.0,19.0,19.1049731745428
23,47,368,12.278933333333244,4.123105625617661,37.21558813185679,4.0,7.0710678118654755,9.0,11.045361017187261,11.180339887498949,26.30589287593181,19.235384061671343,17.0,13.0,9.0,0.0,15.0,7.0,3.0,2.0,3.1622776601683795,3.0,10.0,18.0,18.110770276274835
24,47,369,12.31229999999991,4.123105625617661,37.21558813185679,4.0,8.06225774829855,9.055385138137417,11.0,10.198039027185569,26.30589287593181,18.24828759089466,16.0,12.0,8.0,0.0,16.0,7.0,3.0,2.23606797749979,2.23606797749979,2.0,11.0,18.0,17.11724276862369
25,47,369,12.31229999999991,4.0,29.614185789921695,3.1622776601683795,6.082762530298219,7.0710678118654755,7.0710678118654755,7.0710678118654755,20.223748416156685,14.142135623730951,12.0,6.0,12.0,2.0,11.0,4.0,1.0,2.23606797749979,2.0,2.0,16.0,8.0,16.1245154965971
26,47,370,12.345666666666576,2.23606797749979,34.23448553724738,4.0,8.06225774829855,9.055385138137417,10.04987562112089,11.180339887498949,25.317977802344327,17.26267650163207,16.0,13.0,9.0,0.0,14.0,6.0,2.0,1.4142135623730951,2.23606797749979,2.0,10.0,17.0,17.11724276862369
27,47,370,12.345666666666576,5.0,28.635642126552707,3.1622776601683795,5.0990195135927845,7.280109889280518,8.246211251235321,7.0,20.09975124224178,15.033296378372908,12.5,6.0,12.0,2.0,11.0,4.0,1.0,2.23606797749979,2.23606797749979,2.0,15.0,7.0,14.142135623730951
28,47,371,12.379033333333242,4.0,34.23448553724738,3.0,7.0710678118654755,9.055385138137417,9.055385138137417,10.198039027185569,24.186773244895647,17.11724276862369,15.0,12.0,8.0,0.0,14.0,7.0,2.0,1.4142135623730951,2.23606797749979,1.0,9.0,16.0,16.278820596099706
29,47,371,12.379033333333242,5.0990195135927845,27.65863337187866,2.0,4.0,6.082762530298219,7.280109889280518,7.0710678118654755,18.110770276274835,14.142135623730951,11.5,5.0,11.0,1.0,10.0,4.0,1.0,2.23606797749979,2.0,2.0,15.0,8.0,15.132745950421556
30,47,372,12.412399999999908,4.123105625617661,32.2490309931942,3.0,7.0710678118654755,8.06225774829855,9.055385138137417,10.198039027185569,24.331050121192877,17.26267650163207,15.0,12.0,8.0,0.0,14.0,6.0,2.0,2.0,2.8284271247461903,2.0,10.0,17.0,16.1245154965971
31,47,372,12.412399999999908,4.0,26.68332812825267,2.23606797749979,5.0990195135927845,7.0710678118654755,7.280109889280518,7.0,18.110770276274835,13.038404810405298,11.0,5.0,11.0,1.0,10.0,4.0,1.0,2.23606797749979,2.0,2.0,15.0,7.0,14.035668847618199
32,47,373,12.445766666666572,4.123105625617661,24.515301344262525,2.0,5.0,6.082762530298219,8.06225774829855,4.0,15.033296378372908,10.04987562112089,8.0,2.0,7.0,0.5,10.5,4.5,1.5,2.23606797749979,2.0,2.0,14.0,7.0,13.152946437965905
33,47,373,12.445766666666572,5.0,33.24154027718932,3.1622776601683795,6.082762530298219,9.055385138137417,10.04987562112089,8.06225774829855,22.20360331117452,16.1245154965971,13.5,10.0,6.0,0.0,14.0,7.0,2.0,1.0,1.4142135623730951,1.5,9.0,15.0,16.0312195418814
34,47,374,12.47913333333324,3.0,28.284271247461902,3.0,7.0710678118654755,8.06225774829855,8.06225774829855,9.219544457292887,22.20360331117452,15.132745950421556,13.5,12.0,8.0,1.0,12.0,5.0,1.0,1.0,2.8284271247461903,2.0,8.0,15.0,14.142135623730951
35,47,374,12.47913333333324,3.0,28.635642126552707,3.1622776601683795,6.082762530298219,9.219544457292887,10.198039027185569,5.0990195135927845,17.029386365926403,11.0,9.5,4.0,10.0,2.0,10.0,2.0,2.0,1.4142135623730951,2.0,1.5,15.0,8.0,14.142135623730951
36,47,375,12.512499999999903,4.123105625617661,29.154759474226502,3.0,6.0,7.0,8.0,8.246211251235321,21.213203435596427,15.297058540778355,13.0,10.0,7.0,0.5,12.5,6.5,2.5,2.23606797749979,1.4142135623730951,1.5,8.0,15.0,14.142135623730951
37,47,375,12.512499999999903,4.123105625617661,24.515301344262525,2.0,4.0,6.082762530298219,7.0710678118654755,6.0,16.0312195418814,12.041594578792296,10.0,4.0,9.0,0.5,9.5,4.5,1.5,2.23606797749979,2.0,1.5,13.0,7.0,12.165525060596439
38,47,376,12.545866666666573,3.0,30.14962686336267,3.0,6.082762530298219,8.06225774829855,8.0,8.246211251235321,20.223748416156685,14.142135623730951,12.5,10.0,7.0,0.5,11.5,5.5,1.5,2.0,2.23606797749979,2.0,8.0,14.0,14.142135623730951
39,47,377,12.579233333333235,2.23606797749979,28.284271247461902,3.0,6.0,7.0710678118654755,8.0,8.246211251235321,19.235384061671343,13.341664064126334,12.0,10.0,6.0,0.0,11.0,5.0,2.0,2.0,1.4142135623730951,1.0,8.0,13.0,13.152946437965905
40,47,378,12.612599999999905,4.0,28.284271247461902,2.23606797749979,5.0990195135927845,7.0710678118654755,8.0,8.06225774829855,19.235384061671343,14.142135623730951,12.0,10.0,6.0,0.0,11.0,6.0,1.0,1.0,1.4142135623730951,1.0,8.0,13.0,14.142135623730951
41,47,379,12.645966666666569,3.0,27.16615541441225,3.0,6.082762530298219,7.0710678118654755,8.0,7.280109889280518,19.235384061671343,13.152946437965905,11.5,9.0,6.0,0.5,11.5,5.5,1.5,1.0,1.4142135623730951,1.0,8.0,13.0,14.142135623730951
42,47,380,12.679333333333236,4.0,26.1725046566048,2.0,5.0990195135927845,7.0,8.06225774829855,7.0710678118654755,18.110770276274835,13.038404810405298,11.0,9.0,6.0,0.5,10.5,4.5,1.5,1.4142135623730951,1.4142135623730951,1.0,8.0,13.0,13.152946437965905
43,47,382,12.746066666666566,3.0,26.076809620810597,2.0,5.0990195135927845,7.0,8.06225774829855,7.0710678118654755,17.11724276862369,12.041594578792296,10.5,8.0,6.0,0.0,10.0,5.0,2.0,1.0,1.4142135623730951,1.5,7.0,13.0,12.041594578792296
44,47,383,12.779433333333232,2.0,24.186773244895647,2.0,6.082762530298219,6.0,7.0,7.280109889280518,17.26267650163207,11.180339887498949,10.0,8.0,5.0,0.5,10.5,4.5,2.5,1.0,1.4142135623730951,1.0,7.0,12.0,12.041594578792296
45,47,384,12.812799999999898,3.1622776601683795,23.194827009486403,2.0,5.0,6.0,7.0710678118654755,7.0710678118654755,17.11724276862369,12.165525060596439,10.5,9.0,6.0,0.5,9.5,4.5,1.5,1.0,1.4142135623730951,1.5,7.0,12.0,12.041594578792296
46,47,385,12.846166666666564,2.0,22.090722034374522,2.0,6.082762530298219,6.082762530298219,6.0,7.280109889280518,17.26267650163207,11.180339887498949,10.0,8.0,6.0,0.0,10.0,4.0,1.0,1.4142135623730951,1.4142135623730951,1.0,7.0,12.0,12.041594578792296
47,47,395,13.179833333333224,1.0,55.326304774492215,4.123105625617661,9.055385138137417,16.1245154965971,16.0312195418814,18.24828759089466,31.575306807693888,22.561028345356956,22.0,14.0,20.0,1.0,14.0,4.0,5.0,3.1622776601683795,3.1622776601683795,3.0,23.0,16.0,20.09975124224178
48,47,396,13.213199999999889,1.4142135623730951,52.15361924162119,4.0,8.06225774829855,15.033296378372908,15.033296378372908,16.278820596099706,29.427877939124322,21.37755832643195,20.5,15.0,19.0,1.0,12.0,3.0,3.0,4.0,4.0,4.0,15.0,8.0,18.24828759089466
49,47,397,13.246566666666554,1.0,50.24937810560445,4.0,8.06225774829855,14.035668847618199,15.033296378372908,16.278820596099706,28.442925306655784,20.396078054371138,20.0,14.0,19.0,0.5,11.5,2.5,3.5,3.1622776601683795,4.0,4.0,13.0,8.0,16.1245154965971
50,47,398,13.27993333333322,1.0,48.16637831516918,4.123105625617661,7.0710678118654755,14.035668847618199,14.035668847618199,15.132745950421556,26.476404589747453,19.4164878389476,19.0,13.0,17.0,0.0,11.0,3.0,3.0,3.0,3.0,3.0,13.0,7.0,14.142135623730951
51,47,399,13.313299999999886,1.0,43.104524124504614,4.0,7.0710678118654755,12.0,12.041594578792296,14.142135623730951,25.317977802344327,18.24828759089466,18.0,13.0,16.0,0.5,10.5,2.5,2.5,4.0,4.0,3.5,13.0,8.0,15.033296378372908
52,47,400,13.346666666666552,0.0,43.104524124504614,4.123105625617661,6.082762530298219,12.0,12.0,13.152946437965905,23.345235059857504,17.26267650163207,17.0,12.0,15.0,0.5,9.5,2.5,2.5,2.0,3.0,3.0,11.0,7.0,13.038404810405298
53,47,401,13.380033333333218,1.0,41.10960958218893,3.0,7.0710678118654755,11.045361017187261,12.0,12.36931687685298,22.561028345356956,15.524174696260024,15.0,11.0,14.0,0.5,9.5,1.5,2.5,2.0,3.0,3.0,10.0,6.0,12.165525060596439
54,47,402,13.413399999999884,1.0,39.11521443121589,3.0,6.0,11.045361017187261,12.041594578792296,12.165525060596439,21.213203435596427,15.297058540778355,15.0,11.0,14.0,0.5,8.5,1.5,2.5,3.1622776601683795,2.0,2.0,9.0,5.0,13.038404810405298
55,47,402,13.413399999999884,1.0,22.0,2.0,2.0,7.0,7.0,6.082762530298219,11.045361017187261,9.055385138137417,8.5,9.0,9.0,3.0,2.0,1.0,1.0,3.0,4.0,3.5,8.0,8.0,11.045361017187261
56,47,403,13.44676666666655,1.0,38.2099463490856,3.1622776601683795,5.0990195135927845,11.045361017187261,12.041594578792296,11.180339887498949,20.396078054371138,15.297058540778355,14.5,10.0,14.0,1.0,8.0,1.0,2.0,2.23606797749979,3.0,2.5,10.0,5.0,11.045361017187261
57,47,403,13.44676666666655,0.0,22.0,3.0,3.0,7.0,7.0,5.0990195135927845,11.045361017187261,8.06225774829855,8.0,8.0,8.0,3.0,3.0,0.0,1.0,2.0,2.0,2.0,8.0,7.0,9.055385138137417
58,47,404,13.480133333333216,0.0,36.124783736376884,3.1622776601683795,5.0990195135927845,10.0,11.0,11.180339887498949,19.4164878389476,14.317821063276353,14.0,10.0,13.0,0.5,7.5,1.5,1.5,3.0,2.0,2.5,9.0,5.0,12.041594578792296
59,47,404,13.480133333333216,0.0,20.024984394500787,2.0,3.0,5.0,6.0,6.0,11.0,8.0,8.0,9.0,8.0,2.5,2.5,0.5,0.5,3.0,3.0,2.5,9.0,8.0,9.0
60,47,404,13.480133333333216,2.23606797749979,21.02379604162864,3.0,4.0,5.0,6.0,8.06225774829855,17.11724276862369,13.152946437965905,12.0,13.0,12.0,4.5,4.5,0.5,1.5,2.23606797749979,3.0,3.0,6.0,8.0,8.0
61,47,405,13.51349999999988,0.0,19.026297590440446,2.0,2.0,6.0,6.0,5.0,9.0,7.0,7.0,8.0,7.0,2.5,1.5,0.5,0.5,3.0,3.0,3.0,6.0,6.0,9.055385138137417
62,47,405,13.51349999999988,1.0,34.132096331752024,3.1622776601683795,4.123105625617661,9.055385138137417,10.0,10.198039027185569,18.439088914585774,14.317821063276353,13.5,10.0,13.0,1.5,6.5,1.5,1.5,2.23606797749979,2.0,2.0,9.0,5.0,11.045361017187261
63,47,406,13.546866666666547,1.0,32.2490309931942,3.1622776601683795,4.123105625617661,9.055385138137417,10.0,9.055385138137417,17.26267650163207,13.152946437965905,12.5,8.0,12.0,1.0,7.0,2.0,2.0,2.23606797749979,2.0,1.5,9.0,5.0,10.0
64,47,406,13.546866666666547,1.0,18.0,2.0,3.1622776601683795,6.0,6.0,5.0990195135927845,11.180339887498949,8.06225774829855,7.5,9.0,9.0,4.0,2.0,1.0,2.0,2.0,2.0,2.0,7.0,7.0,8.06225774829855
65,47,407,13.580233333333211,1.0,32.0624390837628,3.0,5.0,9.055385138137417,9.055385138137417,9.055385138137417,17.11724276862369,12.165525060596439,12.0,9.0,11.0,1.0,7.0,1.0,2.0,1.0,1.0,1.5,9.0,5.0,10.198039027185569
66,47,407,13.580233333333211,1.0,18.027756377319946,1.0,2.0,5.0,5.0,5.0,9.0,7.0,6.5,8.0,7.0,2.5,1.5,0.5,1.5,2.23606797749979,2.0,2.0,6.0,6.0,8.06225774829855
67,47,408,13.61359999999988,1.4142135623730951,30.14962686336267,2.0,4.0,8.0,9.055385138137417,9.219544457292887,16.278820596099706,12.36931687685298,11.5,8.0,11.0,0.5,6.5,1.5,1.5,1.0,2.0,2.0,9.0,5.0,10.198039027185569
68,47,409,13.646966666666543,1.0,30.14962686336267,3.0,4.0,9.0,9.055385138137417,9.219544457292887,16.278820596099706,12.36931687685298,12.0,8.0,11.0,0.5,6.5,1.5,1.5,1.0,1.0,1.5,8.0,5.0,9.055385138137417
69,47,410,13.68033333333321,1.0,28.160255680657446,3.0,4.0,8.0,8.0,8.246211251235321,15.297058540778355,11.40175425099138,11.0,7.0,10.0,0.5,6.5,1.5,1.5,1.4142135623730951,2.23606797749979,1.5,8.0,5.0,9.055385138137417
70,47,411,13.713699999999877,1.0,27.16615541441225,2.0,3.1622776601683795,8.06225774829855,8.0,8.246211251235321,14.317821063276353,11.180339887498949,10.5,7.0,10.0,0.5,5.5,1.5,1.5,2.0,2.0,2.0,7.0,4.0,9.055385138137417
71,47,412,13.747066666666544,1.4142135623730951,26.1725046566048,2.0,3.0,7.0,8.0,8.06225774829855,14.142135623730951,11.180339887498949,10.5,7.0,10.0,0.5,5.5,1.5,1.5,1.0,1.0,1.5,7.0,4.0,7.0710678118654755
72,47,413,13.780433333333209,0.0,25.079872407968907,2.23606797749979,3.0,7.0710678118654755,7.0,8.06225774829855,13.152946437965905,10.198039027185569,10.0,7.0,9.0,0.0,5.0,2.0,2.0,2.0,2.0,1.5,7.0,4.0,7.0710678118654755
73,47,414,13.813799999999874,1.0,24.08318915758459,2.0,3.1622776601683795,8.06225774829855,8.0,7.0710678118654755,13.152946437965905,10.04987562112089,9.5,7.0,9.0,1.0,5.0,1.0,1.0,1.0,1.0,1.5,6.0,4.0,7.0
74,47,415,13.84716666666654,1.4142135623730951,24.08318915758459,1.0,3.0,7.0,8.0,8.06225774829855,13.152946437965905,10.198039027185569,9.5,7.0,9.0,0.0,5.0,1.0,1.0,2.0,2.0,1.5,7.0,4.0,7.0710678118654755
75,47,416,13.880533333333206,0.0,24.186773244895647,2.23606797749979,3.1622776601683795,6.082762530298219,7.0,7.0,12.165525060596439,9.055385138137417,9.0,6.0,9.0,0.5,4.5,1.5,1.5,2.0,2.0,1.5,7.0,4.0,7.0710678118654755
76,47,662,22.08873333333301,12.041594578792296,106.04244433244644,8.0,15.0,27.018512172212592,29.017236257093817,27.018512172212592,62.03224967708329,47.042533945356304,41.0,35.0,32.0,6.5,28.5,12.5,0.5,11.0,12.041594578792296,11.5,31.0,37.0,36.013886210738214
77,47,663,22.12209999999968,19.0,109.01834707974616,8.06225774829855,13.038404810405298,27.0,29.0,26.019223662515376,66.06814663663572,53.03772242470448,43.5,40.0,38.0,13.0,27.0,12.0,6.0,11.045361017187261,11.045361017187261,11.0,35.0,39.0,44.0
78,47,664,22.155466666666342,10.04987562112089,106.00471687618433,9.055385138137417,13.0,27.018512172212592,29.017236257093817,27.0,59.0,46.0,41.0,39.0,38.0,11.5,20.5,6.5,4.5,10.0,11.045361017187261,10.5,36.0,38.0,42.0
79,47,665,22.18883333333301,7.0,100.0199980003999,9.0,13.0,27.018512172212592,28.0178514522438,28.0178514522438,57.0087712549569,44.01136216933077,40.5,41.0,39.0,12.0,17.0,4.0,4.0,10.04987562112089,9.0,9.5,35.0,38.0,48.0
80,47,666,22.22219999999968,3.0,97.02061636580135,9.0,13.0,27.018512172212592,28.0178514522438,28.0178514522438,53.009433122794285,40.01249804748511,38.5,40.0,38.0,11.0,14.0,1.0,3.0,11.0,11.0,11.0,35.0,38.0,46.010868281309364
81,47,667,22.255566666666343,1.0,95.02105029939419,10.0,13.038404810405298,27.018512172212592,28.0178514522438,29.0,53.009433122794285,40.0,39.5,40.0,38.0,10.0,14.0,0.0,2.0,12.0,11.0,11.5,36.0,38.0,47.0
82,47,668,22.28893333333301,2.0,93.08598175880189,8.0,13.0,27.018512172212592,28.071337695236398,30.0,53.0,40.0,39.0,43.0,39.0,11.0,12.0,1.0,4.0,13.0,12.041594578792296,12.5,36.0,39.0,46.0
83,47,669,22.322299999999675,1.0,89.02246907382428,8.0,13.0,24.0,25.0,31.016124838541646,53.009433122794285,40.01249804748511,39.5,41.0,39.0,9.0,13.0,0.0,2.0,13.038404810405298,12.0,12.0,37.0,40.0,47.0
84,47,670,22.35566666666634,1.0,86.05230967266364,7.0,12.041594578792296,22.02271554554524,23.021728866442675,32.0,52.009614495783374,40.0,39.5,41.0,38.0,7.5,12.5,0.5,2.5,13.038404810405298,13.038404810405298,13.0,37.0,40.0,48.010415536631214
85,47,671,22.389033333333007,1.4142135623730951,85.05292469985967,7.0710678118654755,12.0,22.0,22.02271554554524,32.01562118716424,52.009614495783374,40.01249804748511,39.5,41.0,38.0,7.5,12.5,0.5,1.5,13.038404810405298,13.038404810405298,13.0,37.0,39.0,47.0
86,47,672,22.422399999999676,1.0,89.08984229416954,7.0710678118654755,12.0,22.02271554554524,23.021728866442675,32.0,51.0,39.0,39.0,41.0,37.0,7.0,12.0,0.0,2.0,10.0,10.04987562112089,10.0,36.0,39.0,46.010868281309364
87,47,673,22.45576666666634,2.23606797749979,93.04837451562494,8.0,13.0,26.019223662515376,27.073972741361768,30.01666203960727,53.03772242470448,40.049968789001575,39.0,40.0,37.0,8.5,14.5,0.5,1.5,3.0,4.123105625617661,3.5,38.0,40.0,46.010868281309364
88,47,674,22.489133333333005,2.23606797749979,90.0499861188218,9.055385138137417,14.035668847618199,24.020824298928627,26.019223662515376,30.01666203960727,55.0,41.012193308819754,40.0,40.0,37.0,8.5,16.5,2.5,0.5,7.0,7.0,7.0,36.0,39.0,48.010415536631214
89,47,675,22.52249999999967,5.0990195135927845,91.08786966440702,8.0,12.0,26.019223662515376,27.073972741361768,29.017236257093817,54.0,42.0,39.5,43.0,39.0,12.0,13.0,2.0,6.0,6.0,5.0990195135927845,5.0,36.0,39.0,47.042533945356304
90,47,676,22.555866666666336,8.0,91.0494371207203,8.0,13.038404810405298,26.019223662515376,27.073972741361768,29.017236257093817,58.0,45.0111097397076,41.0,39.0,36.0,8.5,20.5,6.5,1.5,3.1622776601683795,4.123105625617661,4.0,35.0,39.0,47.042533945356304
91,47,677,22.589233333333,8.06225774829855,88.05112151472007,8.0,16.0,26.019223662515376,28.071337695236398,28.0,60.00833275470999,44.01136216933077,40.0,39.0,36.0,9.5,22.5,5.5,2.5,7.0,7.0,6.5,36.0,42.0,46.04345773288535
92,47,678,22.622599999999668,14.035668847618199,85.21150157109074,7.0,14.0,24.020824298928627,26.1725046566048,29.017236257093817,64.03124237432849,50.039984012787215,43.0,44.0,38.0,12.0,23.0,9.0,6.0,8.06225774829855,9.055385138137417,8.5,34.0,40.0,46.09772228646444
93,47,679,22.65596666666633,12.041594578792296,83.21658488546619,7.0,13.038404810405298,24.08318915758459,25.079872407968907,27.0,59.033888572581766,46.010868281309364,40.0,42.0,36.0,12.0,20.0,7.0,6.0,10.04987562112089,10.198039027185569,10.0,35.0,41.0,47.042533945356304
94,47,680,22.689333333333,10.0,86.14522621712709,6.082762530298219,12.041594578792296,24.08318915758459,25.179356624028344,29.017236257093817,57.0087712549569,45.0,40.0,40.0,35.0,8.5,19.5,7.5,4.5,11.0,10.04987562112089,10.5,34.0,42.0,47.095647357266465
95,47,681,22.722699999999666,10.04987562112089,83.38465086573187,8.0,15.033296378372908,26.019223662515376,27.16615541441225,25.0,58.034472514187634,43.01162633521314,38.0,42.0,34.0,13.0,20.0,5.0,6.0,10.04987562112089,11.180339887498949,11.0,34.0,42.0,48.041648597857254
96,47,682,22.75606666666633,10.04987562112089,88.20430828479978,8.0,13.038404810405298,26.076809620810597,27.073972741361768,26.019223662515376,57.0087712549569,44.0,39.0,41.0,35.0,12.0,19.0,6.0,6.0,12.041594578792296,11.045361017187261,11.5,34.0,41.0,46.04345773288535
97,47,683,22.789433333333,8.06225774829855,86.09297300012354,6.0,12.0,23.021728866442675,23.08679276123039,28.071337695236398,54.00925846556311,42.01190307520001,38.0,40.0,36.0,10.0,16.0,4.0,5.0,13.0,12.041594578792296,12.5,34.0,41.0,48.093658625644196
98,47,684,22.822799999999663,9.055385138137417,93.00537618869137,5.0,12.0,25.019992006393608,26.019223662515376,28.071337695236398,54.00925846556311,42.01190307520001,37.5,36.0,35.0,7.5,18.5,6.5,3.5,11.045361017187261,11.045361017187261,11.5,35.0,41.0,47.01063709417264
99,47,685,22.85616666666633,9.0,84.1486779456457,6.0,12.0,24.08318915758459,26.076809620810597,28.0178514522438,55.00909015790027,43.01162633521314,38.5,40.0,35.0,9.5,17.5,4.5,5.5,12.0,11.180339887498949,12.0,36.0,42.0,43.04648650006177
100,47,686,22.889533333332995,5.0990195135927845,83.21658488546619,7.0710678118654755,13.038404810405298,23.08679276123039,24.08318915758459,28.0178514522438,53.150729063673246,40.11234224026316,37.5,42.0,36.0,11.0,14.0,0.0,5.0,12.0,11.045361017187261,11.0,36.0,42.0,47.042533945356304
101,47,687,22.92289999999966,2.0,82.29823813423954,7.0,13.0,22.090722034374522,23.08679276123039,27.018512172212592,47.095647357266465,34.132096331752024,34.0,39.0,32.0,8.5,11.5,1.5,3.5,12.041594578792296,11.045361017187261,11.0,35.0,41.0,46.010868281309364
102,47,688,22.956266666666327,1.4142135623730951,80.30566605165541,7.0,11.045361017187261,24.08318915758459,24.08318915758459,27.073972741361768,46.17358552246078,35.12833614050059,34.5,40.0,33.0,9.5,9.5,2.5,4.5,13.0,12.041594578792296,12.5,34.0,41.0,47.042533945356304
103,47,689,22.989633333332996,1.0,87.20665112249179,8.0,13.0,25.079872407968907,26.076809620810597,27.073972741361768,48.093658625644196,35.12833614050059,35.0,39.0,33.0,9.0,12.0,1.0,3.0,12.041594578792296,12.041594578792296,12.5,35.0,41.0,46.04345773288535
104,47,690,23.02299999999966,3.0,82.29823813423954,7.0,13.038404810405298,23.08679276123039,24.08318915758459,25.019992006393608,48.041648597857254,35.014282800023196,33.5,40.0,33.0,11.5,11.5,0.5,5.5,13.0,13.038404810405298,13.0,34.0,41.0,48.041648597857254
105,47,691,23.056366666666325,2.23606797749979,81.2219182240853,8.0,14.035668847618199,23.08679276123039,24.08318915758459,27.073972741361768,51.15662224971465,37.12142238654117,36.0,42.0,36.0,12.0,12.0,3.0,6.0,13.038404810405298,12.165525060596439,12.0,33.0,40.0,47.042533945356304
106,47,692,23.08973333333299,1.4142135623730951,80.22468448052632,7.0,12.041594578792296,22.090722034374522,23.08679276123039,28.071337695236398,48.16637831516918,36.124783736376884,35.5,42.0,36.0,11.0,9.0,2.0,5.0,13.0,12.041594578792296,12.0,34.0,40.0,46.010868281309364
107,47,693,23.123099999999656,4.0,88.14193099768123,7.0710678118654755,14.035668847618199,25.079872407968907,25.019992006393608,29.017236257093817,54.08326913195984,40.049968789001575,38.0,40.0,35.0,8.5,16.5,2.5,3.5,12.0,12.165525060596439,12.5,34.0,41.0,46.010868281309364
108,47,694,23.15646666666632,1.4142135623730951,83.2946576918352,8.06225774829855,14.035668847618199,24.020824298928627,25.079872407968907,29.068883707497267,52.23983154643591,38.2099463490856,37.5,43.0,36.0,10.5,12.5,1.5,3.5,13.038404810405298,12.041594578792296,12.5,35.0,41.0,47.042533945356304
109,47,695,23.189833333332988,5.0990195135927845,83.15046602394962,8.0,14.0,23.08679276123039,24.186773244895647,30.01666203960727,57.0350769263968,43.04648650006177,40.5,44.0,39.0,11.5,15.5,2.5,5.5,12.0,12.165525060596439,12.0,36.0,42.0,45.09988913511872
110,47,696,23.22319999999965,10.0,84.29116205154607,8.0,13.038404810405298,24.020824298928627,25.079872407968907,30.01666203960727,61.032778078668514,48.010415536631214,43.0,46.0,39.0,12.5,18.5,6.5,5.5,12.0,12.165525060596439,12.0,36.0,42.0,44.04543109109048
111,47,697,23.25656666666632,12.041594578792296,86.09297300012354,7.0,14.0,25.079872407968907,25.179356624028344,29.0,62.00806399170998,48.010415536631214,42.0,41.0,37.0,10.0,23.0,9.0,5.0,13.038404810405298,12.041594578792296,12.0,37.0,44.0,46.04345773288535
112,47,698,23.289933333332986,9.055385138137417,90.19977827023745,9.0,13.0,27.073972741361768,27.16615541441225,26.019223662515376,57.0,44.0,39.5,40.0,34.0,11.0,20.0,8.0,4.0,13.0,13.038404810405298,12.5,34.0,41.0,46.04345773288535
113,47,699,23.32329999999965,6.082762530298219,86.14522621712709,7.0,12.041594578792296,26.019223662515376,26.076809620810597,28.0178514522438,53.009433122794285,41.0,38.0,42.0,37.0,11.5,13.5,1.5,6.5,12.041594578792296,12.041594578792296,12.5,34.0,41.0,46.04345773288535
114,47,700,23.35666666666632,8.06225774829855,87.14355971613737,8.06225774829855,12.041594578792296,26.0,27.073972741361768,28.0,56.00892785976178,44.0,40.0,43.0,38.0,12.5,15.5,3.5,5.5,12.041594578792296,13.038404810405298,13.0,34.0,42.0,44.04543109109048
115,47,701,23.390033333332983,5.0990195135927845,89.1403387922662,8.0,13.0,25.0,26.076809620810597,30.0,56.00892785976178,43.01162633521314,40.5,40.0,35.0,7.5,18.5,4.5,0.5,13.038404810405298,13.038404810405298,13.5,36.0,42.0,46.04345773288535
116,47,702,23.42339999999965,1.4142135623730951,92.19544457292888,10.0,13.038404810405298,25.079872407968907,26.1725046566048,27.073972741361768,51.15662224971465,38.118237105091836,37.5,37.0,31.0,7.0,17.0,3.0,1.0,13.0,13.152946437965905,12.5,35.0,41.0,46.010868281309364
117,47,703,23.456766666666315,1.4142135623730951,91.19758768739445,8.06225774829855,11.0,25.019992006393608,25.179356624028344,31.016124838541646,49.09175083453431,38.118237105091836,38.5,37.0,31.0,3.0,15.0,3.0,3.0,14.0,13.152946437965905,12.5,35.0,42.0,46.04345773288535
118,47,704,23.49013333333298,1.0,87.28115489611719,10.0,13.038404810405298,25.019992006393608,25.079872407968907,30.066592756745816,53.150729063673246,40.11234224026316,40.0,40.0,33.0,6.5,16.5,2.5,1.5,14.0,14.035668847618199,14.0,34.0,42.0,45.044422518220834
119,47,705,23.523499999999647,1.4142135623730951,90.13878188659973,10.0,13.0,26.019223662515376,26.076809620810597,27.018512172212592,51.03920062069938,38.05259518088089,37.5,38.0,33.0,8.5,15.5,1.5,0.5,12.0,12.041594578792296,12.0,35.0,42.0,46.010868281309364
120,47,706,23.556866666666316,1.4142135623730951,83.2946576918352,8.0,12.041594578792296,24.08318915758459,24.08318915758459,32.0624390837628,53.150729063673246,41.10960958218893,40.5,42.0,35.0,6.5,14.5,1.5,0.5,14.0,13.152946437965905,12.5,35.0,41.0,44.04543109109048
121,47,707,23.59023333333298,7.0,83.2946576918352,9.0,14.035668847618199,24.020824298928627,25.179356624028344,30.01666203960727,60.03332407921454,46.010868281309364,42.5,42.0,35.0,8.5,21.5,7.5,1.5,13.038404810405298,13.152946437965905,13.0,36.0,43.0,45.09988913511872
122,47,708,23.623599999999644,9.055385138137417,88.14193099768123,8.06225774829855,13.0,26.076809620810597,26.076809620810597,30.01666203960727,60.07495318350236,47.095647357266465,42.5,39.0,34.0,6.5,23.5,9.5,0.5,14.035668847618199,13.038404810405298,13.0,35.0,41.0,45.0111097397076
123,47,709,23.65696666666631,6.082762530298219,83.09632964216891,7.0,12.041594578792296,24.020824298928627,25.079872407968907,31.144823004794873,56.08029957123981,44.04543109109048,41.0,40.0,36.0,7.0,18.0,6.0,2.0,13.0,13.152946437965905,13.0,36.0,42.0,46.010868281309364
124,47,710,23.690333333332976,4.123105625617661,83.2946576918352,8.0,12.0,23.08679276123039,24.08318915758459,29.068883707497267,53.08483775994799,41.10960958218893,39.0,40.0,33.0,7.5,16.5,4.5,1.5,12.041594578792296,12.165525060596439,12.5,35.0,42.0,47.01063709417264
125,47,711,23.72369999999964,1.4142135623730951,86.14522621712709,8.0,14.0,23.08679276123039,24.08318915758459,31.064449134018133,52.08646657242167,38.118237105091836,38.5,38.0,33.0,4.5,16.5,2.5,1.5,13.038404810405298,12.165525060596439,12.5,34.0,41.0,46.010868281309364
126,47,712,23.757066666666308,2.0,84.2140130857092,8.0,13.038404810405298,23.021728866442675,23.08679276123039,30.14962686336267,51.35172830587107,38.3275357934736,38.0,39.0,33.0,6.0,15.0,2.0,0.0,12.0,13.152946437965905,13.0,34.0,42.0,46.010868281309364
127,47,713,23.79043333333297,1.4142135623730951,85.21150157109074,7.0,14.035668847618199,23.021728866442675,24.186773244895647,30.14962686336267,52.23983154643591,38.2099463490856,37.5,39.0,33.0,6.0,16.0,2.0,0.0,13.0,12.165525060596439,12.5,35.0,42.0,46.010868281309364
128,47,714,23.82379999999964,1.0,87.14355971613737,8.06225774829855,14.035668847618199,23.08679276123039,23.08679276123039,29.068883707497267,51.24451190127583,37.21558813185679,37.0,38.0,33.0,6.5,15.5,1.5,0.5,14.0,13.038404810405298,13.0,35.0,41.0,46.09772228646444
129,47,715,23.857166666666306,1.0,87.28115489611719,9.0,14.035668847618199,23.08679276123039,23.194827009486403,30.14962686336267,53.23532661682466,39.20459156782532,39.0,40.0,33.0,6.5,16.5,2.5,0.5,14.035668847618199,13.152946437965905,13.5,35.0,41.0,46.010868281309364
130,47,716,23.89053333333297,1.0,86.28441342444185,10.04987562112089,13.038404810405298,24.08318915758459,25.179356624028344,29.017236257093817,52.15361924162119,39.11521443121589,39.0,40.0,33.0,7.5,15.5,2.5,0.5,13.0,12.041594578792296,12.5,35.0,42.0,46.04345773288535
131,47,717,23.92389999999964,5.0,81.30190649671138,8.06225774829855,13.038404810405298,23.021728866442675,23.08679276123039,31.016124838541646,57.07889277132134,44.04543109109048,41.5,44.0,37.0,9.5,16.5,2.5,3.5,13.038404810405298,13.341664064126334,13.5,35.0,42.0,48.0
132,47,718,23.957266666666303,9.055385138137417,80.22468448052632,6.0,12.0,23.08679276123039,24.08318915758459,30.01666203960727,57.0350769263968,45.044422518220834,40.5,43.0,37.0,10.0,17.0,4.0,5.0,13.038404810405298,13.152946437965905,12.5,34.0,40.0,46.0
133,47,719,23.99063333333297,9.055385138137417,82.15229759416349,5.0,13.038404810405298,23.021728866442675,23.08679276123039,30.0,57.0350769263968,44.01136216933077,39.5,43.0,38.0,10.5,16.5,3.5,6.5,13.038404810405298,13.341664064126334,12.5,34.0,40.0,47.01063709417264
134,47,720,24.023999999999635,9.0,81.2219182240853,6.0,12.041594578792296,23.021728866442675,23.08679276123039,29.017236257093817,56.0357029044876,44.01136216933077,39.5,44.0,38.0,12.0,15.0,2.0,7.0,12.041594578792296,12.165525060596439,12.5,34.0,41.0,47.01063709417264
135,47,721,24.0573666666663,1.4142135623730951,80.09993757800315,8.0,13.038404810405298,22.02271554554524,23.021728866442675,31.0,53.03772242470448,40.01249804748511,39.5,41.0,37.0,8.0,14.0,0.0,2.0,12.041594578792296,12.041594578792296,12.5,33.0,39.0,46.010868281309364
136,47,722,24.090733333332967,1.4142135623730951,86.20904824900923,7.0710678118654755,11.045361017187261,24.020824298928627,24.08318915758459,30.0,49.09175083453431,38.05259518088089,37.5,41.0,35.0,8.0,11.0,1.0,2.0,14.035668847618199,12.041594578792296,12.5,34.0,40.0,47.042533945356304
137,47,723,24.124099999999636,1.0,90.0222194794152,8.0,12.0,24.0,25.079872407968907,29.0,49.01020301937138,37.013511046643494,37.0,37.0,35.0,7.0,13.0,0.0,0.0,12.041594578792296,12.041594578792296,12.0,34.0,41.0,46.0
138,47,724,24.1574666666663,2.23606797749979,80.30566605165541,8.0,13.038404810405298,21.095023109728988,22.20360331117452,30.066592756745816,49.16299421312742,36.124783736376884,37.0,39.0,32.0,5.5,13.5,0.5,0.5,13.038404810405298,12.165525060596439,12.5,35.0,41.0,45.044422518220834
139,47,725,24.190833333332964,1.4142135623730951,80.39900496896712,9.0,14.035668847618199,23.08679276123039,23.194827009486403,30.066592756745816,52.15361924162119,38.118237105091836,38.5,43.0,35.0,9.0,13.0,1.0,2.0,13.038404810405298,13.152946437965905,13.0,34.0,41.0,47.042533945356304
140,47,726,24.22419999999963,1.4142135623730951,80.30566605165541,8.0,14.0,22.090722034374522,23.194827009486403,29.068883707497267,52.08646657242167,38.118237105091836,37.5,40.0,33.0,7.5,15.5,1.5,1.5,13.038404810405298,13.152946437965905,13.0,33.0,42.0,48.041648597857254
141,47,727,24.257566666666296,2.23606797749979,81.2219182240853,7.0,12.041594578792296,22.090722034374522,22.090722034374522,29.017236257093817,49.16299421312742,37.12142238654117,36.5,40.0,34.0,8.0,12.0,1.0,3.0,13.0,13.152946437965905,13.5,33.0,41.0,47.042533945356304
142,47,728,24.29093333333296,3.0,82.21921916437786,6.0,12.041594578792296,22.090722034374522,23.194827009486403,29.0,50.00999900019995,38.0,36.5,39.0,33.0,7.0,14.0,2.0,3.0,12.0,12.165525060596439,12.5,33.0,41.0,47.01063709417264
143,47,729,24.324299999999628,3.1622776601683795,83.2946576918352,7.0,12.041594578792296,23.021728866442675,24.186773244895647,29.017236257093817,51.0098029794274,39.0,37.5,40.0,33.0,7.5,14.5,2.5,2.5,12.041594578792296,13.152946437965905,13.0,33.0,42.0,45.044422518220834
144,47,730,24.357666666666294,4.123105625617661,86.20904824900923,7.0,13.0,23.021728866442675,24.08318915758459,29.017236257093817,53.0,40.0,38.0,41.0,35.0,9.0,15.0,2.0,4.0,12.041594578792296,12.041594578792296,12.5,33.0,42.0,44.04543109109048
145,47,731,24.39103333333296,5.0,87.14355971613737,6.0,13.038404810405298,25.019992006393608,25.079872407968907,29.0,53.009433122794285,40.0,37.5,41.0,36.0,9.5,14.5,1.5,4.5,12.041594578792296,13.038404810405298,13.0,33.0,41.0,45.09988913511872
146,47,732,24.424399999999626,3.1622776601683795,87.28115489611719,8.0,13.038404810405298,25.019992006393608,25.079872407968907,29.017236257093817,53.08483775994799,40.049968789001575,38.5,42.0,35.0,9.5,14.5,0.5,2.5,13.0,13.152946437965905,13.5,33.0,42.0,46.17358552246078
147,47,733,24.45776666666629,7.0,86.20904824900923,8.0,13.038404810405298,26.019223662515376,27.073972741361768,27.018512172212592,55.036351623268054,42.01190307520001,38.5,40.0,34.0,10.0,18.0,4.0,4.0,12.041594578792296,12.041594578792296,12.5,32.0,40.0,46.010868281309364
148,47,734,24.49113333333296,8.0,85.14693182963201,7.0710678118654755,11.0,25.019992006393608,26.019223662515376,27.0,53.009433122794285,42.01190307520001,38.0,39.0,34.0,9.5,16.5,4.5,3.5,12.0,12.165525060596439,12.5,34.0,43.0,46.04345773288535
149,47,735,24.524499999999623,8.0,88.14193099768123,8.0,13.038404810405298,25.019992006393608,27.073972741361768,27.018512172212592,56.0357029044876,43.01162633521314,39.0,39.0,34.0,9.5,19.5,6.5,2.5,11.045361017187261,11.045361017187261,11.0,33.0,42.0,48.041648597857254
150,47,736,24.55786666666629,5.0,83.09632964216891,6.082762530298219,13.038404810405298,23.021728866442675,24.08318915758459,29.0,53.03772242470448,40.01249804748511,37.5,39.0,35.0,8.0,16.0,2.0,3.0,13.0,13.341664064126334,13.0,32.0,42.0,48.041648597857254
151,47,737,24.591233333332955,8.06225774829855,86.14522621712709,8.0,14.035668847618199,24.020824298928627,25.079872407968907,27.018512172212592,57.07889277132134,43.04648650006177,39.0,40.0,35.0,10.5,19.5,4.5,3.5,12.0,12.165525060596439,12.5,31.0,42.0,47.042533945356304
152,47,738,24.62459999999962,9.055385138137417,91.19758768739445,7.0,12.041594578792296,27.073972741361768,28.160255680657446,27.0,55.036351623268054,43.01162633521314,38.5,36.0,30.0,6.0,22.0,9.0,1.0,11.0,10.04987562112089,10.5,32.0,43.0,45.0111097397076
153,47,739,24.657966666666287,8.06225774829855,84.29116205154607,7.0,13.0,23.021728866442675,25.079872407968907,28.0,56.00892785976178,43.01162633521314,39.0,39.0,32.0,7.5,20.5,6.5,2.5,11.045361017187261,12.165525060596439,12.0,32.0,43.0,46.09772228646444
154,47,740,24.691333333332956,9.219544457292887,88.20430828479978,7.0,13.0,25.019992006393608,27.073972741361768,27.0,56.0357029044876,43.04648650006177,38.5,38.0,32.0,8.0,21.0,7.0,2.0,12.041594578792296,12.165525060596439,12.5,31.0,43.0,46.09772228646444
155,47,741,24.72469999999962,8.0,84.29116205154607,8.06225774829855,14.035668847618199,25.079872407968907,26.076809620810597,28.0,58.034472514187634,44.01136216933077,40.0,40.0,33.0,8.5,21.5,7.5,2.5,12.0,11.180339887498949,11.0,32.0,43.0,47.095647357266465
156,47,742,24.758066666666284,7.0710678118654755,84.38009243891595,6.082762530298219,11.045361017187261,24.020824298928627,25.079872407968907,29.017236257093817,53.150729063673246,42.1070065428546,38.5,40.0,32.0,7.0,17.0,5.0,2.0,11.045361017187261,11.180339887498949,11.5,32.0,43.0,47.042533945356304
157,47,743,24.79143333333295,9.055385138137417,83.38465086573187,7.0,14.142135623730951,23.08679276123039,24.186773244895647,28.071337695236398,58.215118311311535,44.10215414239989,39.5,39.0,31.0,7.0,23.0,8.0,2.0,12.0,12.165525060596439,11.5,31.0,43.0,46.04345773288535
158,47,744,24.824799999999616,6.082762530298219,80.09993757800315,7.0710678118654755,14.035668847618199,22.02271554554524,23.021728866442675,29.017236257093817,56.142675390472796,42.1070065428546,39.0,39.0,35.0,8.0,19.0,4.0,2.0,12.041594578792296,12.165525060596439,12.5,31.0,44.0,47.095647357266465
159,47,745,24.85816666666628,7.0710678118654755,78.31347265956222,5.0990195135927845,12.041594578792296,22.02271554554524,22.090722034374522,32.01562118716424,56.142675390472796,44.10215414239989,40.5,43.0,36.0,7.5,16.5,4.5,3.5,12.0,13.152946437965905,13.5,30.0,43.0,47.095647357266465
160,47,746,24.891533333332948,2.23606797749979,73.55270219373317,7.0,12.041594578792296,21.095023109728988,22.20360331117452,31.064449134018133,52.15361924162119,40.11234224026316,39.0,44.0,35.0,8.5,12.5,0.5,3.5,12.0,12.36931687685298,12.0,31.0,43.0,46.09772228646444
161,47,747,24.924899999999614,2.23606797749979,83.21658488546619,8.0,11.045361017187261,21.095023109728988,22.090722034374522,32.0624390837628,50.24937810560445,39.20459156782532,39.5,40.0,34.0,5.0,13.0,2.0,1.0,12.0,12.165525060596439,12.5,30.0,43.0,46.09772228646444
162,47,748,24.95826666666628,2.23606797749979,78.63841300535,8.06225774829855,11.180339887498949,22.20360331117452,22.20360331117452,33.06055050963308,50.35871324805669,39.20459156782532,40.0,42.0,32.0,4.0,13.0,2.0,1.0,12.0,12.165525060596439,12.5,30.0,42.0,46.09772228646444
163,47,749,24.991633333332945,1.4142135623730951,76.53103945458993,8.0,13.152946437965905,24.08318915758459,24.186773244895647,32.0624390837628,52.23983154643591,39.11521443121589,39.5,43.0,34.0,6.5,13.5,0.5,0.5,11.0,11.180339887498949,11.5,31.0,42.0,43.04648650006177
164,47,750,25.02499999999961,1.4142135623730951,79.63039620647382,9.0,12.041594578792296,21.095023109728988,22.20360331117452,32.14031735997639,54.230987451824994,42.190046219457976,41.5,43.0,33.0,6.0,16.0,4.0,0.0,12.0,12.041594578792296,12.5,31.0,44.0,45.09988913511872
165,47,751,25.05836666666628,2.23606797749979,82.49242389456137,8.0,12.041594578792296,23.08679276123039,23.08679276123039,32.14031735997639,50.24937810560445,38.2099463490856,39.0,40.0,31.0,3.5,14.5,1.5,1.5,11.045361017187261,11.045361017187261,11.0,30.0,43.0,44.10215414239989
166,47,752,25.091733333332943,2.0,81.61494961096282,8.06225774829855,12.041594578792296,23.194827009486403,23.345235059857504,32.01562118716424,52.23983154643591,40.19950248448356,40.0,42.0,32.0,5.0,15.0,3.0,0.0,12.0,12.165525060596439,12.0,30.0,43.0,47.095647357266465
167,47,753,25.12509999999961,7.0710678118654755,83.60023923410746,6.082762530298219,12.165525060596439,23.08679276123039,23.194827009486403,31.016124838541646,56.22277118748239,44.10215414239989,40.5,43.0,33.0,7.0,18.0,6.0,3.0,13.0,12.165525060596439,12.5,29.0,42.0,47.16990566028302
168,47,754,25.158466666666275,7.280109889280518,86.46964785403026,8.06225774829855,13.038404810405298,26.1725046566048,28.160255680657446,31.016124838541646,59.07622195096772,46.04345773288535,42.5,41.0,32.0,5.5,22.5,8.5,0.5,11.0,11.045361017187261,11.0,29.0,44.0,45.17742799230607
169,47,755,25.19183333333294,9.055385138137417,84.71717653463199,8.06225774829855,13.152946437965905,24.186773244895647,26.1725046566048,30.066592756745816,60.29925372672534,47.16990566028302,42.5,43.0,32.0,7.5,22.5,9.5,2.5,12.0,12.165525060596439,12.0,30.0,44.0,48.093658625644196
170,47,756,25.225199999999607,3.1622776601683795,79.22752047110903,6.082762530298219,11.045361017187261,22.02271554554524,23.08679276123039,34.058772731852805,54.230987451824994,43.18564576337837,41.5,42.0,36.0,5.0,15.0,4.0,1.0,12.0,11.40175425099138,11.5,30.0,43.0,45.17742799230607
171,47,757,25.258566666666272,10.04987562112089,84.48076704197234,6.0,11.045361017187261,23.194827009486403,25.079872407968907,32.01562118716424,59.07622195096772,48.041648597857254,43.0,43.0,34.0,6.5,20.5,8.5,3.5,12.0,11.180339887498949,11.0,30.0,44.0,48.16637831516918
172,47,758,25.29193333333294,4.0,81.39410298049853,6.082762530298219,12.041594578792296,22.02271554554524,22.20360331117452,32.0624390837628,54.147945482723536,42.1070065428546,40.0,42.0,34.0,6.0,16.0,3.0,1.0,11.0,12.165525060596439,12.0,31.0,44.0,46.17358552246078
173,47,759,25.325299999999604,5.0990195135927845,83.2946576918352,6.0,13.038404810405298,22.090722034374522,23.08679276123039,31.064449134018133,55.14526271584895,42.1070065428546,39.5,40.0,33.0,5.5,18.5,5.5,1.5,13.0,12.36931687685298,12.5,29.0,43.0,45.17742799230607
174,47,760,25.35866666666627,6.082762530298219,85.37564055396598,6.0,12.165525060596439,24.08318915758459,26.076809620810597,30.01666203960727,54.147945482723536,42.04759208325728,39.0,39.0,31.0,5.0,19.0,6.0,1.0,13.0,12.165525060596439,12.5,29.0,43.0,47.095647357266465
175,47,761,25.392033333332936,6.082762530298219,81.49846624323675,6.0,12.041594578792296,23.021728866442675,23.194827009486403,31.064449134018133,55.14526271584895,43.104524124504614,40.0,43.0,34.0,7.5,16.5,4.5,2.5,11.0,12.36931687685298,12.0,29.0,42.0,46.09772228646444
176,47,762,25.4253999999996,1.4142135623730951,81.49846624323675,5.0990195135927845,12.041594578792296,22.02271554554524,23.194827009486403,33.06055050963308,51.24451190127583,39.20459156782532,38.5,43.0,34.0,5.5,12.5,0.5,1.5,12.0,12.165525060596439,12.0,29.0,42.0,46.17358552246078
177,47,763,25.458766666666268,2.23606797749979,83.60023923410746,6.0,12.041594578792296,24.08318915758459,24.331050121192877,32.01562118716424,51.15662224971465,39.11521443121589,38.5,40.0,30.0,3.0,16.0,4.0,1.0,12.0,12.165525060596439,12.5,28.0,43.0,46.17358552246078
178,47,764,25.492133333332934,1.4142135623730951,85.84287972802403,5.0,10.04987562112089,23.194827009486403,23.345235059857504,33.06055050963308,47.16990566028302,37.12142238654117,37.5,42.0,30.0,3.0,11.0,1.0,1.0,13.0,12.165525060596439,12.0,29.0,44.0,45.17742799230607
179,47,765,25.5254999999996,2.23606797749979,86.70063436907483,6.0,10.04987562112089,24.08318915758459,24.186773244895647,32.01562118716424,47.16990566028302,37.12142238654117,37.5,41.0,30.0,3.5,11.5,1.5,0.5,13.0,12.165525060596439,12.5,29.0,43.0,45.17742799230607
180,47,766,25.558866666666265,2.23606797749979,88.45903006477066,9.055385138137417,11.180339887498949,24.186773244895647,25.317977802344327,28.0,46.17358552246078,35.05709628591621,36.0,37.0,28.0,4.5,13.5,2.5,1.5,12.041594578792296,12.165525060596439,11.5,30.0,45.0,46.17358552246078
181,47,767,25.59223333333293,0.0,95.33624704172071,8.06225774829855,12.041594578792296,27.073972741361768,28.160255680657446,27.073972741361768,47.16990566028302,35.12833614050059,35.0,35.0,27.0,4.0,16.0,4.0,2.0,12.0,12.165525060596439,12.0,30.0,44.0,44.181444068749045
182,47,768,25.6255999999996,1.4142135623730951,92.65527507918802,7.0,10.198039027185569,27.16615541441225,28.160255680657446,29.017236257093817,45.17742799230607,35.05709628591621,35.5,38.0,27.0,3.5,12.5,2.5,0.5,11.0,11.40175425099138,11.5,31.0,44.0,46.09772228646444
183,47,769,25.658966666666263,2.23606797749979,92.5418824100742,7.0710678118654755,10.198039027185569,24.08318915758459,24.186773244895647,29.017236257093817,44.28317965096906,34.132096331752024,35.0,37.0,27.0,3.0,12.0,3.0,2.0,12.0,12.165525060596439,12.0,30.0,44.0,46.17358552246078
184,47,770,25.69233333333293,2.23606797749979,92.34717104492157,6.082762530298219,8.06225774829855,24.08318915758459,24.08318915758459,30.0,42.1070065428546,34.058772731852805,35.0,37.0,29.0,3.0,9.0,1.0,0.0,12.0,12.36931687685298,12.5,29.0,44.0,46.17358552246078
185,47,771,25.725699999999595,1.0,96.42095207992918,9.055385138137417,12.165525060596439,28.071337695236398,28.284271247461902,25.019992006393608,45.17742799230607,33.06055050963308,33.5,38.0,29.0,8.5,11.5,0.5,1.5,11.0,11.40175425099138,11.5,29.0,43.0,47.16990566028302
186,47,772,25.75906666666626,2.23606797749979,93.64827814754524,8.06225774829855,11.180339887498949,27.16615541441225,27.16615541441225,26.0,43.18564576337837,32.0624390837628,33.0,38.0,27.0,6.5,10.5,0.5,1.5,13.0,12.36931687685298,12.5,29.0,44.0,47.16990566028302
187,47,773,25.792433333332927,1.0,91.54780172128658,7.0710678118654755,11.180339887498949,26.076809620810597,27.16615541441225,27.073972741361768,45.39823785126467,34.23448553724738,34.0,38.0,28.0,6.0,12.0,1.0,1.0,12.0,11.180339887498949,11.5,30.0,44.0,46.04345773288535
188,47,774,25.825799999999592,1.4142135623730951,91.44397191723465,5.0990195135927845,9.055385138137417,24.186773244895647,25.179356624028344,28.0178514522438,41.19465984809196,32.14031735997639,32.5,37.0,28.0,4.5,8.5,0.5,1.5,12.0,12.165525060596439,12.0,28.0,45.0,45.17742799230607
189,47,775,25.85916666666626,2.23606797749979,94.42986815621421,6.0,10.04987562112089,25.079872407968907,26.1725046566048,27.073972741361768,42.2965719651132,32.2490309931942,32.5,37.0,28.0,5.5,9.5,0.5,1.5,12.041594578792296,12.165525060596439,12.5,28.0,44.0,45.17742799230607
190,47,776,25.892533333332924,2.23606797749979,95.524865872714,7.0,10.04987562112089,26.1725046566048,28.160255680657446,25.179356624028344,41.43669871020132,31.400636936215164,31.5,36.0,26.0,6.0,10.0,0.0,1.0,11.045361017187261,11.40175425099138,11.5,27.0,43.0,45.17742799230607
191,47,777,25.92589999999959,3.1622776601683795,94.64142856064674,6.082762530298219,9.219544457292887,25.179356624028344,25.317977802344327,28.071337695236398,40.44749683231337,31.25699921617557,32.5,38.0,27.0,4.5,7.5,0.5,0.5,12.0,12.165525060596439,12.0,28.0,45.0,45.044422518220834
192,47,778,25.959266666666256,3.1622776601683795,91.54780172128658,6.082762530298219,9.055385138137417,22.090722034374522,24.186773244895647,28.071337695236398,40.311288741492746,31.25699921617557,32.5,38.0,28.0,5.0,7.0,1.0,1.0,11.0,11.180339887498949,11.5,28.0,45.0,45.17742799230607
193,47,779,25.99263333333292,2.23606797749979,90.6697303403953,6.082762530298219,11.180339887498949,25.079872407968907,25.317977802344327,28.071337695236398,43.41658669218482,32.2490309931942,33.0,39.0,28.0,5.5,9.5,0.5,1.5,12.041594578792296,11.180339887498949,12.0,27.0,45.0,48.16637831516918
194,47,780,26.025999999999588,3.1622776601683795,91.7877987534291,7.0,11.180339887498949,25.079872407968907,25.179356624028344,27.294688127912362,42.579337712087536,31.400636936215164,32.5,38.0,26.0,5.0,10.0,0.0,0.0,7.0710678118654755,7.0710678118654755,7.0,26.0,43.0,45.17742799230607
195,47,781,26.059366666666254,2.23606797749979,94.76286192385707,7.0,10.198039027185569,26.30589287593181,27.459060435491963,26.076809620810597,42.42640687119285,32.2490309931942,32.5,39.0,27.0,7.0,9.0,0.0,3.0,4.47213595499958,3.1622776601683795,3.0,29.0,46.0,45.27692569068709
196,47,782,26.09273333333292,2.23606797749979,87.82368700982668,6.082762530298219,9.219544457292887,22.20360331117452,23.345235059857504,28.071337695236398,41.43669871020132,32.2490309931942,33.0,38.0,26.0,4.0,9.0,1.0,0.0,5.385164807134504,6.324555320336759,5.5,28.0,47.0,46.389654018972806
197,47,783,26.126099999999585,2.23606797749979,88.11923740024082,6.082762530298219,11.180339887498949,23.345235059857504,24.331050121192877,29.017236257093817,45.39823785126467,34.23448553724738,34.5,41.0,27.0,5.0,11.0,1.0,2.0,4.47213595499958,5.385164807134504,4.5,25.0,44.0,46.389654018972806
198,47,784,26.15946666666625,3.605551275463989,86.14522621712709,5.0990195135927845,10.198039027185569,23.345235059857504,24.331050121192877,30.01666203960727,42.42640687119285,32.2490309931942,33.5,41.0,27.0,4.0,8.0,1.0,2.0,5.0990195135927845,5.0990195135927845,4.5,26.0,45.0,46.389654018972806
199,47,785,26.19283333333292,2.8284271247461903,86.14522621712709,6.082762530298219,9.486832980505138,22.360679774997898,22.360679774997898,31.064449134018133,44.721359549995796,35.35533905932738,36.0,42.0,28.0,4.0,9.0,1.0,1.0,7.0710678118654755,7.280109889280518,6.5,26.0,46.0,46.389654018972806
200,47,786,26.226199999999583,3.605551275463989,83.18653737234169,6.082762530298219,9.219544457292887,23.345235059857504,22.561028345356956,32.14031735997639,44.721359549995796,35.510561809129406,36.5,41.0,27.0,2.0,10.0,1.0,1.0,10.04987562112089,9.486832980505138,8.5,26.0,45.0,46.389654018972806
201,47,787,26.25956666666625,4.123105625617661,81.39410298049853,6.082762530298219,10.198039027185569,22.20360331117452,22.561028345356956,31.25699921617557,43.73785545725808,33.54101966249684,35.0,42.0,27.0,3.5,8.5,0.5,0.5,9.055385138137417,9.486832980505138,8.5,26.0,46.0,48.25971404805462
202,47,788,26.292933333332915,2.8284271247461903,86.97700845625813,7.0710678118654755,10.198039027185569,23.345235059857504,22.360679774997898,31.064449134018133,46.52956049652737,36.345563690772494,37.0,40.0,27.0,2.5,12.5,2.5,1.5,11.045361017187261,10.44030650891055,10.0,24.0,44.0,51.35172830587107
203,47,789,26.32629999999958,4.47213595499958,83.54639429682169,7.0710678118654755,10.198039027185569,22.360679774997898,22.561028345356956,31.064449134018133,44.553338819890925,34.36568055487916,36.0,42.0,26.0,3.0,10.0,1.0,0.0,12.041594578792296,11.40175425099138,11.0,26.0,46.0,48.373546489791295
204,47,790,26.359666666666246,5.385164807134504,80.23091673413684,7.0710678118654755,11.180339887498949,22.360679774997898,20.396078054371138,31.25699921617557,44.91102314577124,33.734255586866,35.5,41.0,27.0,3.0,10.0,0.0,1.0,12.041594578792296,12.36931687685298,11.5,25.0,45.0,48.373546489791295
205,47,791,26.393033333332912,4.242640687119285,80.4114419718985,8.06225774829855,11.180339887498949,22.360679774997898,23.345235059857504,32.14031735997639,48.83646178829912,37.656340767525464,38.5,44.0,29.0,4.5,11.5,0.5,0.5,13.038404810405298,12.36931687685298,12.0,27.0,44.0,46.2709412050371
206,47,792,26.42639999999958,3.605551275463989,82.03657720797473,8.0,9.219544457292887,24.186773244895647,24.331050121192877,30.265491900843113,44.721359549995796,35.510561809129406,36.5,42.0,29.0,5.5,8.5,0.5,0.5,12.041594578792296,11.40175425099138,11.0,27.0,45.0,47.265209192385896
207,47,793,26.459766666666244,5.385164807134504,83.74365647617735,6.082762530298219,11.180339887498949,24.331050121192877,24.515301344262525,28.160255680657446,50.635955604688654,39.45883931389772,36.5,42.0,25.0,5.5,16.5,5.5,2.5,13.0,13.152946437965905,12.5,26.0,44.0,45.39823785126467
208,47,794,26.49313333333291,6.708203932499369,83.3606621854697,7.0710678118654755,12.041594578792296,23.345235059857504,23.53720459187964,29.154759474226502,54.589376255824725,42.579337712087536,39.0,42.0,27.0,5.5,19.5,7.5,1.5,13.038404810405298,12.36931687685298,12.0,26.0,45.0,49.25444142409901
209,47,795,26.526499999999576,2.23606797749979,80.23091673413684,6.082762530298219,12.165525060596439,22.20360331117452,22.360679774997898,31.25699921617557,50.80354318352215,38.63935817272331,37.5,42.0,28.0,4.0,15.0,3.0,1.0,11.0,12.36931687685298,11.5,28.0,45.0,46.389654018972806
210,47,796,26.55986666666624,4.123105625617661,77.10382610480494,8.06225774829855,15.297058540778355,22.360679774997898,22.360679774997898,30.265491900843113,57.706152185014034,42.42640687119285,40.0,44.0,31.0,7.5,19.5,4.5,2.5,13.038404810405298,12.36931687685298,12.5,26.0,45.0,46.2709412050371
211,47,797,26.593233333332908,2.23606797749979,83.72574275573791,6.082762530298219,14.142135623730951,20.396078054371138,20.396078054371138,32.01562118716424,54.230987451824994,40.11234224026316,39.0,41.0,30.0,3.5,18.5,5.5,0.5,13.038404810405298,11.40175425099138,11.0,27.0,45.0,46.389654018972806
212,47,798,26.626599999999573,7.0,81.49846624323675,7.0710678118654755,13.152946437965905,22.20360331117452,22.360679774997898,31.064449134018133,58.215118311311535,45.09988913511872,41.5,42.0,33.0,6.5,20.5,6.5,1.5,11.045361017187261,11.40175425099138,10.5,27.0,46.0,46.17358552246078
213,47,799,26.65996666666624,2.23606797749979,85.70880934886448,6.082762530298219,10.198039027185569,25.179356624028344,26.1725046566048,31.016124838541646,48.373546489791295,38.2099463490856,37.5,40.0,29.0,3.5,13.5,2.5,0.5,3.1622776601683795,2.8284271247461903,2.5,25.0,45.0,45.39823785126467
214,47,800,26.693333333332905,2.8284271247461903,90.55385138137417,9.055385138137417,13.152946437965905,27.16615541441225,28.284271247461902,23.021728866442675,47.38143096192854,34.23448553724738,33.0,37.0,27.0,9.0,15.0,2.0,2.0,5.0990195135927845,5.0990195135927845,5.0,25.0,43.0,44.40720662234904
215,47,801,26.72669999999957,2.0,91.54780172128658,8.06225774829855,12.041594578792296,25.179356624028344,26.1725046566048,25.019992006393608,45.27692569068709,33.24154027718932,33.0,34.0,24.0,4.0,16.0,4.0,1.0,2.23606797749979,3.0,2.5,22.0,42.0,41.43669871020132
216,47,802,26.76006666666624,5.0990195135927845,86.46964785403026,5.0,11.180339887498949,24.08318915758459,25.179356624028344,27.16615541441225,48.373546489791295,37.21558813185679,34.5,38.0,29.0,6.5,14.5,3.5,3.5,3.605551275463989,2.0,2.0,24.0,41.0,42.2965719651132
217,47,803,26.793433333332903,6.082762530298219,88.56635930193812,6.082762530298219,11.045361017187261,24.08318915758459,24.186773244895647,27.018512172212592,50.15974481593781,39.11521443121589,36.0,39.0,29.0,7.0,16.0,5.0,3.0,4.47213595499958,5.0990195135927845,5.0,24.0,42.0,44.28317965096906
218,47,804,26.82679999999957,3.1622776601683795,89.45389874119518,8.0,13.038404810405298,28.071337695236398,28.160255680657446,26.076809620810597,50.15974481593781,37.12142238654117,35.5,39.0,30.0,8.5,15.5,2.5,2.5,3.1622776601683795,4.123105625617661,4.0,24.0,42.0,44.40720662234904
219,47,805,26.860166666666235,1.4142135623730951,90.79647570252934,8.06225774829855,12.165525060596439,28.284271247461902,28.284271247461902,26.0,45.17742799230607,33.06055050963308,33.5,38.0,26.0,6.0,13.0,1.0,2.0,4.47213595499958,6.082762530298219,5.5,25.0,42.0,44.28317965096906
220,47,806,26.8935333333329,1.0,91.92388155425118,7.0710678118654755,11.045361017187261,27.16615541441225,26.30589287593181,27.018512172212592,45.17742799230607,34.132096331752024,34.0,41.0,28.0,7.5,10.5,0.5,3.5,6.082762530298219,5.0990195135927845,5.0,26.0,42.0,44.40720662234904
221,47,807,26.926899999999566,2.23606797749979,92.5418824100742,8.0,13.152946437965905,29.274562336608895,29.274562336608895,26.0,48.16637831516918,35.05709628591621,34.5,37.0,27.0,6.0,16.0,3.0,1.0,7.0710678118654755,8.246211251235321,8.0,27.0,43.0,45.27692569068709
222,47,808,26.960266666666232,3.0,93.64827814754524,8.0,15.033296378372908,30.265491900843113,30.265491900843113,27.018512172212592,50.24937810560445,35.22782990761707,35.0,38.0,27.0,5.5,17.5,2.5,0.5,7.0710678118654755,6.082762530298219,6.0,27.0,42.0,45.27692569068709
223,47,809,26.993633333332895,2.8284271247461903,87.13208364316786,7.0,14.035668847618199,26.1725046566048,27.294688127912362,29.017236257093817,52.15361924162119,38.118237105091836,37.0,43.0,29.0,7.0,16.0,3.0,3.0,8.06225774829855,8.246211251235321,7.0,27.0,42.0,45.27692569068709
224,47,810,27.026999999999564,3.605551275463989,83.02409288875127,7.0,13.152946437965905,24.186773244895647,25.317977802344327,29.017236257093817,52.23983154643591,39.11521443121589,37.5,45.0,32.0,9.5,13.5,1.5,5.5,8.06225774829855,8.246211251235321,8.0,28.0,42.0,47.16990566028302
225,47,811,27.06036666666623,1.0,91.35097153287424,10.04987562112089,14.142135623730951,27.16615541441225,28.160255680657446,28.071337695236398,53.23532661682466,39.11521443121589,38.5,42.0,34.0,10.0,15.0,2.0,2.0,9.0,9.055385138137417,9.0,27.0,42.0,47.16990566028302
226,47,812,27.093733333332896,1.4142135623730951,88.36288813749809,11.045361017187261,13.038404810405298,28.071337695236398,29.154759474226502,27.018512172212592,50.15974481593781,37.12142238654117,37.5,44.0,36.0,13.0,10.0,3.0,4.0,10.04987562112089,11.045361017187261,11.0,28.0,41.0,47.095647357266465
227,47,813,27.12709999999956,1.4142135623730951,87.46427842267951,10.0,14.035668847618199,28.071337695236398,28.160255680657446,28.071337695236398,53.150729063673246,39.11521443121589,38.5,44.0,35.0,11.5,13.5,0.5,3.5,9.055385138137417,9.055385138137417,9.5,28.0,42.0,46.2709412050371
228,47,814,27.160466666666228,9.055385138137417,87.09190547921202,9.055385138137417,14.0,26.019223662515376,26.076809620810597,28.0178514522438,60.07495318350236,46.09772228646444,41.5,40.0,36.0,10.0,22.0,7.0,2.0,9.055385138137417,11.180339887498949,11.0,27.0,41.0,45.17742799230607
229,47,815,27.193833333332893,5.0990195135927845,86.28441342444185,8.06225774829855,13.0,26.076809620810597,28.160255680657446,29.017236257093817,55.00909015790027,42.01190307520001,39.5,39.0,32.0,6.5,19.5,5.5,0.5,9.055385138137417,10.04987562112089,10.5,28.0,42.0,45.17742799230607
230,47,816,27.22719999999956,10.04987562112089,90.35485598461214,8.0,12.041594578792296,27.073972741361768,28.160255680657446,28.071337695236398,58.137767414994535,46.09772228646444,41.0,40.0,32.0,8.0,22.0,10.0,2.0,11.045361017187261,12.165525060596439,12.0,29.0,41.0,47.042533945356304
231,47,817,27.260566666666225,12.041594578792296,88.2779700718135,8.06225774829855,12.0,26.076809620810597,28.071337695236398,29.0,61.032778078668514,49.040799340956916,43.0,43.0,36.0,10.5,21.5,8.5,4.5,9.0,10.04987562112089,10.0,28.0,41.0,48.16637831516918
232,47,818,27.29393333333289,16.0,84.1486779456457,7.0710678118654755,13.038404810405298,24.020824298928627,25.079872407968907,29.017236257093817,65.06919393998976,52.03844732503075,44.0,43.0,38.0,11.5,24.5,10.5,6.5,9.055385138137417,11.045361017187261,11.0,29.0,41.0,46.09772228646444
233,47,819,27.32729999999956,13.038404810405298,78.40918313565064,6.0,12.041594578792296,22.090722034374522,23.194827009486403,30.01666203960727,61.07372593840988,49.040799340956916,42.5,43.0,35.0,9.0,22.0,10.0,5.0,11.045361017187261,12.165525060596439,11.5,30.0,42.0,47.16990566028302
234,47,820,27.360666666666223,6.082762530298219,82.29823813423954,7.0710678118654755,13.0,24.08318915758459,25.179356624028344,29.0,55.036351623268054,42.04759208325728,39.0,38.0,31.0,5.5,20.5,7.5,0.5,11.0,12.165525060596439,12.0,30.0,42.0,44.28317965096906
235,47,821,27.39403333333289,5.0990195135927845,94.26027795418386,7.0,13.038404810405298,26.1725046566048,27.073972741361768,27.018512172212592,52.08646657242167,39.05124837953327,36.5,32.0,25.0,1.5,23.5,9.5,2.5,11.045361017187261,11.045361017187261,10.5,29.0,41.0,47.265209192385896
236,47,822,27.427399999999555,6.082762530298219,85.37564055396598,6.0,13.152946437965905,25.079872407968907,25.179356624028344,28.0178514522438,53.150729063673246,40.049968789001575,37.0,39.0,31.0,7.0,18.0,4.0,3.0,10.0,11.045361017187261,10.5,30.0,42.0,46.09772228646444
237,47,823,27.46076666666622,3.1622776601683795,83.38465086573187,7.0710678118654755,11.0,23.08679276123039,24.08318915758459,29.017236257093817,50.08991914547278,39.11521443121589,37.5,40.0,32.0,7.0,14.0,2.0,2.0,10.0,11.180339887498949,10.5,28.0,42.0,46.17358552246078
238,47,824,27.494133333332886,3.605551275463989,85.58621384311844,7.0,13.152946437965905,24.186773244895647,25.179356624028344,26.076809620810597,49.36598018878993,36.22154055254967,34.5,36.0,26.0,5.0,18.0,5.0,0.0,9.0,9.219544457292887,8.5,29.0,42.0,45.17742799230607
239,47,825,27.527499999999552,3.1622776601683795,86.83317338436964,8.0,14.035668847618199,25.179356624028344,26.30589287593181,26.1725046566048,49.49747468305833,35.510561809129406,34.5,35.0,23.0,3.0,20.0,6.0,2.0,8.06225774829855,9.055385138137417,9.0,30.0,44.0,47.265209192385896
240,47,826,27.560866666666215,2.8284271247461903,84.01190391843289,7.0710678118654755,13.152946437965905,26.1725046566048,28.284271247461902,27.294688127912362,49.8196748283246,36.6742416417845,35.0,40.0,27.0,6.5,15.5,2.5,2.5,8.06225774829855,8.246211251235321,8.0,29.0,42.0,48.093658625644196
241,47,827,27.594233333332884,2.0,83.86298349093002,7.0710678118654755,12.165525060596439,25.179356624028344,26.30589287593181,27.294688127912362,46.87216658103186,34.713109915419565,34.0,39.0,27.0,6.0,13.0,1.0,2.0,8.0,8.246211251235321,8.5,29.0,43.0,47.265209192385896
242,47,828,27.62759999999955,3.605551275463989,86.70063436907483,7.0710678118654755,12.041594578792296,24.186773244895647,26.30589287593181,26.076809620810597,47.51841748206689,35.510561809129406,34.0,34.0,23.0,2.5,18.5,6.5,2.5,8.0,9.219544457292887,9.0,29.0,45.0,47.265209192385896
243,47,829,27.660966666666216,7.280109889280518,82.60750571225353,4.123105625617661,11.045361017187261,23.194827009486403,24.08318915758459,28.284271247461902,50.635955604688654,39.6232255123179,35.5,37.0,27.0,4.0,18.0,7.0,2.0,8.06225774829855,8.246211251235321,8.0,29.0,43.0,47.16990566028302
244,47,830,27.69433333333288,7.0710678118654755,85.28774824088158,5.0990195135927845,10.198039027185569,23.08679276123039,25.179356624028344,27.16615541441225,49.49747468305833,39.319206502675,35.5,32.0,25.0,1.5,20.5,9.5,1.5,8.0,8.06225774829855,8.0,32.0,44.0,48.093658625644196
245,47,831,27.727699999999547,4.47213595499958,85.28774824088158,6.0,10.04987562112089,22.090722034374522,24.08318915758459,26.30589287593181,46.52956049652737,36.49657518178932,34.0,30.0,23.0,0.5,19.5,8.5,2.5,6.0,7.280109889280518,6.5,33.0,42.0,47.095647357266465
246,47,832,27.761066666666213,2.0,83.05419917138447,5.0,10.04987562112089,23.0,23.0,28.160255680657446,45.17742799230607,35.12833614050059,34.0,27.0,24.0,2.5,19.5,7.5,5.5,7.0,9.055385138137417,8.0,35.0,42.0,46.04345773288535
247,47,833,27.79443333333288,1.0,81.0,4.0,10.04987562112089,23.0,24.0,28.160255680657446,43.18564576337837,33.13608305156178,32.5,25.0,25.0,3.0,18.0,6.0,6.0,8.0,8.06225774829855,8.0,36.0,39.0,44.04543109109048
248,47,834,27.827799999999545,1.4142135623730951,83.02409288875127,6.0,11.0,22.090722034374522,23.08679276123039,26.30589287593181,44.28317965096906,33.37663853655727,32.5,25.0,27.0,0.0,18.0,4.0,5.0,7.0710678118654755,7.0710678118654755,7.0,36.0,38.0,44.04543109109048
249,47,835,27.86116666666621,3.1622776601683795,82.15229759416349,6.0,11.0,23.08679276123039,24.08318915758459,25.495097567963924,39.45883931389772,28.635642126552707,29.5,21.0,26.0,1.5,15.5,1.5,7.5,7.0,8.06225774829855,7.5,35.0,37.0,39.01281840626232
250,47,836,27.89453333333288,1.4142135623730951,88.20430828479978,8.0,12.0,23.08679276123039,25.179356624028344,21.213203435596427,42.190046219457976,30.265491900843113,29.5,22.0,28.0,4.0,17.0,2.0,3.0,7.0710678118654755,9.219544457292887,8.0,36.0,35.0,38.01315561749642
251,47,837,27.927899999999543,3.0,86.14522621712709,6.082762530298219,11.0,23.08679276123039,25.079872407968907,24.186773244895647,38.2099463490856,27.294688127912362,28.5,23.0,28.0,1.5,12.5,0.5,4.5,5.0,6.082762530298219,5.5,36.0,37.0,38.01315561749642
252,47,838,27.96126666666621,1.0,85.09406559801923,6.082762530298219,11.045361017187261,22.090722034374522,24.08318915758459,24.186773244895647,40.311288741492746,29.274562336608895,29.5,25.0,29.0,3.0,13.0,0.0,3.0,5.0990195135927845,7.0,6.5,35.0,36.0,37.013511046643494
253,47,839,27.994633333332875,2.0,83.21658488546619,7.0,11.0,24.08318915758459,25.179356624028344,21.587033144922902,37.33630940518894,26.476404589747453,27.0,21.0,27.0,3.0,13.0,1.0,4.0,6.0,7.0710678118654755,6.5,35.0,35.0,40.11234224026316
254,47,840,28.02799999999954,1.0,90.19977827023745,8.0,13.038404810405298,23.08679276123039,25.079872407968907,19.235384061671343,39.20459156782532,26.1725046566048,26.5,19.0,25.0,3.0,17.0,2.0,5.0,6.082762530298219,7.0710678118654755,6.5,36.0,35.0,39.05124837953327
255,47,841,28.061366666666206,3.0,83.09632964216891,7.0710678118654755,11.045361017187261,24.08318915758459,25.079872407968907,20.396078054371138,35.510561809129406,24.515301344262525,25.5,21.0,25.0,3.0,12.0,2.0,4.0,8.0,8.06225774829855,7.5,37.0,35.0,41.19465984809196
256,47,842,28.094733333332872,2.23606797749979,85.21150157109074,5.0,11.0,22.20360331117452,23.194827009486403,23.345235059857504,37.33630940518894,26.476404589747453,27.0,22.0,28.0,2.0,12.0,2.0,3.0,8.06225774829855,9.219544457292887,8.0,37.0,35.0,41.19465984809196
257,47,843,28.128099999999534,2.23606797749979,86.14522621712709,6.0,11.0,22.090722034374522,22.20360331117452,21.37755832643195,36.345563690772494,25.495097567963924,26.0,21.0,26.0,2.5,12.5,1.5,3.5,8.06225774829855,9.055385138137417,8.5,35.0,35.0,42.04759208325728
258,47,844,28.161466666666204,3.1622776601683795,87.14355971613737,6.0,11.045361017187261,23.08679276123039,24.08318915758459,24.331050121192877,38.47076812334269,27.459060435491963,28.5,23.0,28.0,1.5,12.5,1.5,4.5,7.0710678118654755,8.06225774829855,7.5,37.0,36.0,43.04648650006177
259,47,845,28.19483333333287,0.0,84.29116205154607,5.0,11.045361017187261,22.090722034374522,24.186773244895647,23.53720459187964,39.45883931389772,28.442925306655784,28.0,21.0,28.0,1.5,14.5,0.5,3.5,9.055385138137417,8.06225774829855,8.0,36.0,34.0,43.104524124504614
260,47,846,28.228199999999536,1.0,81.09870529176159,7.0,12.0,21.02379604162864,21.095023109728988,22.561028345356956,40.311288741492746,28.442925306655784,28.5,22.0,26.0,2.0,16.0,1.0,4.0,8.06225774829855,9.055385138137417,8.5,37.0,35.0,44.10215414239989
261,47,847,28.2615666666662,1.0,81.15417426109393,7.0,12.041594578792296,24.020824298928627,24.08318915758459,23.53720459187964,43.41658669218482,31.400636936215164,30.5,26.0,31.0,5.5,14.5,0.5,0.5,8.06225774829855,9.055385138137417,8.5,36.0,34.0,44.10215414239989
262,47,848,28.294933333332867,3.0,78.16009211867653,8.0,13.0,21.095023109728988,22.090722034374522,24.515301344262525,42.2965719651132,29.427877939124322,30.5,26.0,31.0,4.5,13.5,1.5,3.5,10.04987562112089,9.055385138137417,9.0,36.0,36.0,43.104524124504614
263,47,849,28.328299999999533,1.0,80.15609770940699,5.0,11.0,21.02379604162864,21.02379604162864,28.160255680657446,43.104524124504614,32.14031735997639,32.5,24.0,29.0,1.5,16.5,3.5,6.5,9.055385138137417,10.198039027185569,9.0,36.0,35.0,45.044422518220834
264,47,850,28.3616666666662,1.0,75.05997601918082,4.123105625617661,12.0,20.024984394500787,20.024984394500787,28.071337695236398,45.09988913511872,33.13608305156178,32.5,26.0,29.0,0.5,17.5,3.5,4.5,8.06225774829855,8.246211251235321,7.5,36.0,37.0,44.01136216933077
265,47,851,28.395033333332865,1.4142135623730951,72.17340230306452,3.1622776601683795,11.0,19.026297590440446,20.09975124224178,29.068883707497267,44.181444068749045,33.24154027718932,32.5,28.0,33.0,1.5,13.5,0.5,1.5,10.04987562112089,10.04987562112089,9.0,37.0,36.0,40.049968789001575
266,47,852,28.42839999999953,1.0,76.05918747922567,5.0,12.0,20.09975124224178,21.095023109728988,29.274562336608895,46.2709412050371,34.36568055487916,34.0,29.0,32.0,1.5,15.5,1.5,3.5,10.04987562112089,12.165525060596439,10.5,38.0,38.0,42.04759208325728
267,47,853,28.4617666666662,1.4142135623730951,74.02702209328699,5.0,11.045361017187261,20.024984394500787,22.02271554554524,29.154759474226502,44.28317965096906,33.24154027718932,33.5,26.0,28.0,2.0,17.0,3.0,6.0,9.055385138137417,9.055385138137417,8.0,37.0,38.0,42.1070065428546
268,47,854,28.495133333332863,8.06225774829855,83.05419917138447,5.0,12.0,23.08679276123039,24.08318915758459,28.071337695236398,53.08483775994799,41.10960958218893,37.0,28.0,31.0,1.5,23.5,9.5,3.5,9.219544457292887,9.055385138137417,8.5,38.0,38.0,46.04345773288535
269,47,855,28.52849999999953,2.8284271247461903,83.02409288875127,7.0,13.0,23.021728866442675,25.019992006393608,27.16615541441225,49.25444142409901,36.345563690772494,35.0,28.0,30.0,2.0,20.0,5.0,4.0,10.04987562112089,11.045361017187261,10.0,36.0,37.0,44.04543109109048
270,47,856,28.561866666666194,3.1622776601683795,84.09518416651456,6.0,15.0,23.021728866442675,25.079872407968907,28.160255680657446,52.15361924162119,37.21558813185679,35.5,27.0,31.0,1.0,23.0,6.0,5.0,5.0,7.0710678118654755,6.0,37.0,38.0,40.01249804748511
271,47,857,28.59523333333286,3.1622776601683795,83.05419917138447,6.0,14.035668847618199,22.0,24.020824298928627,26.476404589747453,49.49747468305833,35.510561809129406,33.5,26.0,29.0,1.5,21.5,5.5,3.5,4.123105625617661,5.0,4.5,38.0,40.0,43.01162633521314
272,47,858,28.62859999999953,5.0990195135927845,81.00617260431454,6.082762530298219,13.0,22.02271554554524,24.0,27.294688127912362,51.35172830587107,38.47076812334269,35.5,27.0,28.0,0.5,23.5,8.5,4.5,5.0,6.0,6.0,36.0,38.0,45.044422518220834
273,47,859,28.661966666666192,7.0,88.02272433866155,6.082762530298219,13.038404810405298,22.02271554554524,25.079872407968907,26.076809620810597,52.15361924162119,39.11521443121589,35.5,24.0,26.0,1.0,27.0,10.0,6.0,5.0,6.0,5.5,38.0,41.0,42.01190307520001
274,47,860,28.695333333332854,5.385164807134504,85.05292469985967,6.0,12.041594578792296,24.08318915758459,25.079872407968907,28.160255680657446,51.35172830587107,39.319206502675,36.5,26.0,29.0,0.5,23.5,8.5,5.5,4.0,4.123105625617661,4.0,37.0,38.0,43.104524124504614
275,47,861,28.728699999999524,3.0,87.20665112249179,8.0,15.033296378372908,23.08679276123039,25.079872407968907,27.294688127912362,53.23532661682466,38.2099463490856,36.5,25.0,31.0,1.0,25.0,6.0,7.0,5.0,6.082762530298219,5.0,40.0,39.0,45.044422518220834
276,47,862,28.76206666666619,8.06225774829855,87.20665112249179,8.0,16.0,25.079872407968907,28.071337695236398,26.476404589747453,58.309518948453004,42.42640687119285,38.0,27.0,33.0,4.0,28.0,9.0,4.0,6.082762530298219,7.0,7.0,40.0,38.0,44.04543109109048
277,47,863,28.795433333332856,7.0710678118654755,88.14193099768123,8.0,17.029386365926403,25.019992006393608,28.071337695236398,27.294688127912362,59.30430001273095,42.2965719651132,38.5,28.0,33.0,3.5,28.5,8.5,3.5,8.246211251235321,8.0,7.5,43.0,41.0,45.044422518220834
278,47,864,28.82879999999952,11.0,87.20665112249179,8.0,15.0,24.08318915758459,27.073972741361768,27.294688127912362,61.1310068623117,46.17358552246078,40.5,26.0,32.0,2.0,32.0,13.0,5.0,7.0710678118654755,9.0,8.0,47.0,42.0,47.095647357266465
279,47,865,28.862166666666187,9.0,89.27485648266257,7.0710678118654755,13.038404810405298,25.079872407968907,27.16615541441225,27.294688127912362,56.0357029044876,43.104524124504614,38.5,27.0,34.0,3.5,25.5,8.5,3.5,6.324555320336759,6.0,6.0,50.0,43.0,48.093658625644196
280,47,866,28.895533333332853,8.06225774829855,87.46427842267951,6.0,13.038404810405298,24.186773244895647,26.076809620810597,26.0,53.03772242470448,40.01249804748511,36.0,23.0,32.0,1.5,25.5,10.5,4.5,9.219544457292887,8.0,8.0,51.0,43.0,50.15974481593781
281,47,867,28.92889999999952,1.4142135623730951,87.69264507357501,6.0,13.0,24.186773244895647,25.317977802344327,26.076809620810597,46.010868281309364,33.015148038438355,32.5,22.0,33.0,1.5,18.5,2.5,4.5,8.06225774829855,8.06225774829855,8.0,52.0,41.0,51.15662224971465
282,47,868,28.962266666666185,2.0,89.94442728707543,6.0,12.041594578792296,23.345235059857504,25.317977802344327,28.0178514522438,46.04345773288535,34.0147027033899,34.0,21.0,34.0,0.5,18.5,3.5,6.5,8.246211251235321,8.0,7.5,52.0,41.0,49.16299421312742
283,47,869,28.99563333333285,3.1622776601683795,91.0823802938856,7.0710678118654755,12.165525060596439,26.30589287593181,27.294688127912362,27.0,49.16299421312742,37.05401462729781,35.5,19.0,33.0,1.0,23.0,8.0,8.0,8.54400374531753,7.0,6.5,50.0,38.0,52.3450093132096
284,47,870,29.02899999999952,1.0,89.10667763978185,7.0710678118654755,12.165525060596439,25.317977802344327,26.476404589747453,29.017236257093817,48.25971404805462,36.124783736376884,36.0,19.0,33.0,3.0,22.0,5.0,10.0,8.54400374531753,7.0710678118654755,6.5,51.0,36.0,50.35871324805669
285,47,871,29.062366666666183,1.4142135623730951,88.95504482602435,7.0710678118654755,14.035668847618199,24.331050121192877,25.317977802344327,27.0,47.095647357266465,33.06055050963308,33.5,20.0,33.0,0.5,20.5,3.5,7.5,9.486832980505138,9.055385138137417,8.5,52.0,37.0,51.35172830587107
286,47,872,29.09573333333285,1.4142135623730951,92.07062506576133,8.06225774829855,13.038404810405298,24.331050121192877,25.495097567963924,28.0,48.093658625644196,35.05709628591621,35.5,21.0,35.0,0.0,20.0,3.0,8.0,8.54400374531753,7.0710678118654755,7.0,51.0,35.0,51.35172830587107
287,47,873,29.129099999999514,2.23606797749979,86.49277426467485,8.06225774829855,14.142135623730951,24.515301344262525,24.331050121192877,30.01666203960727,51.15662224971465,37.05401462729781,37.5,22.0,38.0,0.0,21.0,3.0,9.0,7.615773105863909,8.06225774829855,7.5,51.0,36.0,51.478150704935004
288,47,874,29.16246666666618,4.123105625617661,88.28363381737297,7.0710678118654755,13.038404810405298,25.317977802344327,27.459060435491963,29.017236257093817,53.03772242470448,40.01249804748511,38.0,24.0,39.0,2.5,21.5,4.5,4.5,8.54400374531753,8.246211251235321,7.5,52.0,34.0,51.62363799656123
289,47,875,29.19583333333285,8.06225774829855,89.44271909999159,7.0710678118654755,12.165525060596439,25.495097567963924,26.476404589747453,29.0,56.142675390472796,44.04543109109048,40.0,24.0,40.0,3.0,24.0,8.0,5.0,8.54400374531753,9.055385138137417,8.5,52.0,35.0,51.478150704935004
290,47,876,29.229199999999512,7.0710678118654755,89.62700485902673,8.06225774829855,13.152946437965905,25.495097567963924,25.709920264364882,28.0178514522438,56.22277118748239,43.104524124504614,39.5,23.0,40.0,3.5,24.5,6.5,5.5,6.708203932499369,8.0,7.5,50.0,35.0,54.45181356024793
291,47,877,29.262566666666174,8.0,91.2414379544733,7.280109889280518,13.152946437965905,27.294688127912362,28.442925306655784,30.01666203960727,58.077534382926416,45.0111097397076,41.0,25.0,40.0,2.5,25.5,8.5,4.5,7.615773105863909,8.06225774829855,8.0,51.0,34.0,52.46903848937962
292,47,878,29.295933333332844,7.0710678118654755,93.38094023943002,7.0710678118654755,14.317821063276353,26.476404589747453,28.442925306655784,29.0,57.21887800367987,43.04648650006177,39.5,22.0,38.0,1.0,27.0,9.0,7.0,7.280109889280518,8.06225774829855,7.5,49.0,34.0,52.46903848937962
293,47,879,29.32929999999951,10.198039027185569,92.07062506576133,8.06225774829855,14.142135623730951,27.294688127912362,28.284271247461902,26.019223662515376,58.137767414994535,44.04543109109048,39.0,22.0,36.0,3.0,29.0,11.0,5.0,7.615773105863909,8.06225774829855,8.0,49.0,34.0,51.478150704935004
294,47,880,29.362666666666176,6.082762530298219,92.07062506576133,7.280109889280518,13.152946437965905,25.317977802344327,27.459060435491963,29.017236257093817,55.14526271584895,42.04759208325728,39.0,23.0,37.0,1.0,25.0,8.0,6.0,6.708203932499369,7.0710678118654755,6.5,50.0,35.0,50.48762224545735
295,47,881,29.39603333333284,4.123105625617661,91.0823802938856,7.0710678118654755,14.035668847618199,26.30589287593181,27.459060435491963,28.0178514522438,53.03772242470448,39.01281840626232,37.0,22.0,36.0,1.0,24.0,6.0,7.0,6.324555320336759,7.0,7.0,50.0,36.0,50.48762224545735
296,47,882,29.429399999999507,7.0710678118654755,93.90420650854784,7.0710678118654755,14.142135623730951,26.30589287593181,27.294688127912362,27.018512172212592,55.08175741568164,41.012193308819754,37.5,20.0,33.0,0.5,28.5,11.5,8.5,8.54400374531753,9.055385138137417,8.0,50.0,35.0,50.35871324805669
297,47,883,29.462766666666173,8.06225774829855,93.64827814754524,6.082762530298219,14.035668847618199,26.1725046566048,27.16615541441225,27.018512172212592,55.036351623268054,41.012193308819754,37.0,20.0,31.0,1.5,29.5,12.5,7.5,8.54400374531753,8.06225774829855,7.5,51.0,37.0,52.3450093132096
298,47,884,29.49613333333284,7.0710678118654755,96.74709297958259,7.0,15.033296378372908,25.317977802344327,27.294688127912362,26.019223662515376,55.00909015790027,40.0,36.5,18.0,30.0,2.0,31.0,12.0,10.0,7.615773105863909,8.0,7.0,51.0,36.0,51.24451190127583
299,47,885,29.529499999999505,4.123105625617661,94.64142856064674,7.0710678118654755,13.038404810405298,24.331050121192877,26.1725046566048,27.073972741361768,51.0098029794274,38.0,36.0,18.0,29.0,3.5,27.5,10.5,10.5,7.615773105863909,8.0,7.5,52.0,37.0,51.35172830587107
300,47,886,29.56286666666617,2.23606797749979,99.72462083156798,7.0710678118654755,13.038404810405298,26.30589287593181,27.294688127912362,29.154759474226502,51.0,38.01315561749642,37.0,20.0,32.0,3.0,25.0,8.0,10.0,8.54400374531753,8.0,8.0,52.0,37.0,52.3450093132096
301,47,887,29.59623333333284,2.23606797749979,99.29753269845128,5.0990195135927845,11.180339887498949,26.476404589747453,27.459060435491963,28.160255680657446,42.01190307520001,31.016124838541646,32.0,15.0,31.0,5.0,19.0,4.0,11.0,9.486832980505138,9.0,8.5,53.0,38.0,51.478150704935004
302,47,888,29.629599999999503,1.4142135623730951,102.95630140987001,5.0990195135927845,11.045361017187261,27.459060435491963,28.442925306655784,26.076809620810597,41.012193308819754,30.0,30.5,16.0,30.0,3.0,18.0,4.0,9.0,9.486832980505138,9.0,8.5,53.0,38.0,52.61178575186362
303,47,889,29.66296666666617,3.1622776601683795,103.81714694596457,6.0,14.035668847618199,27.459060435491963,29.427877939124322,23.194827009486403,46.010868281309364,32.0624390837628,30.5,14.0,27.0,2.5,25.5,7.5,9.5,9.219544457292887,11.0,10.0,51.0,35.0,48.507731342539614
304,47,890,29.696333333332834,2.0,104.6900186264192,6.082762530298219,13.038404810405298,27.294688127912362,29.427877939124322,23.194827009486403,44.01136216933077,31.064449134018133,30.0,14.0,26.0,3.0,24.0,7.0,9.0,9.219544457292887,10.0,9.5,51.0,35.0,47.67598976424087
305,47,891,29.7296999999995,3.0,106.92053123698928,6.082762530298219,15.033296378372908,27.459060435491963,30.4138126514911,23.345235059857504,47.042533945356304,32.14031735997639,30.5,14.0,28.0,2.0,26.0,7.0,9.0,9.486832980505138,10.0,9.5,52.0,36.0,44.553338819890925
306,47,892,29.76306666666617,3.0,109.89540481748998,5.0990195135927845,12.041594578792296,28.442925306655784,30.4138126514911,23.345235059857504,43.04648650006177,31.144823004794873,29.5,13.0,27.0,3.0,23.0,8.0,9.0,9.486832980505138,9.0,8.0,54.0,37.0,50.635955604688654
307,47,893,29.796433333332832,5.0,109.89540481748998,6.082762530298219,11.0,28.442925306655784,30.59411708155671,22.360679774997898,44.10215414239989,33.13608305156178,30.5,13.0,27.0,2.0,24.0,9.0,8.0,9.486832980505138,10.0,9.5,53.0,36.0,49.64876634922564
308,47,894,29.829799999999494,1.4142135623730951,110.8873302050329,5.0990195135927845,13.038404810405298,29.614185789921695,30.59411708155671,24.186773244895647,43.0,30.01666203960727,29.5,14.0,28.0,3.0,22.0,5.0,9.0,8.54400374531753,9.0,8.0,49.0,33.0,51.478150704935004
309,47,895,29.863166666666164,6.0,107.91200118615167,5.0,15.033296378372908,29.427877939124322,31.400636936215164,25.317977802344327,51.088159097779204,36.22154055254967,33.0,17.0,31.0,1.0,27.0,7.0,7.0,9.219544457292887,9.0,8.5,50.0,34.0,48.662100242385755
310,47,896,29.89653333333283,2.0,105.92922165295089,5.0,14.035668847618199,28.284271247461902,29.427877939124322,26.1725046566048,47.042533945356304,33.13608305156178,32.0,18.0,32.0,1.0,22.0,5.0,6.0,11.180339887498949,11.0,10.5,51.0,36.0,49.25444142409901
311,47,897,29.929899999999492,2.23606797749979,108.04628637764465,5.0990195135927845,13.038404810405298,29.274562336608895,30.4138126514911,27.16615541441225,47.0,34.0147027033899,33.0,18.0,33.0,1.5,21.5,3.5,6.5,9.219544457292887,10.04987562112089,9.5,51.0,36.0,49.36598018878993
312,47,898,29.96326666666616,3.0,101.71037311896953,6.082762530298219,15.033296378372908,26.30589287593181,28.284271247461902,26.1725046566048,50.00999900019995,35.05709628591621,33.5,19.0,31.0,1.0,25.0,6.0,7.0,12.36931687685298,12.0,11.0,48.0,35.0,47.265209192385896
313,47,899,29.996633333332827,2.0,95.75489543621255,6.082762530298219,13.038404810405298,25.317977802344327,27.459060435491963,28.071337695236398,49.0,36.013886210738214,35.0,22.0,34.0,0.0,21.0,4.0,6.0,11.40175425099138,12.0,11.5,50.0,37.0,45.39823785126467
314,47,900,30.029999999999493,1.0,96.62815324738438,7.0710678118654755,15.033296378372908,26.1725046566048,28.284271247461902,28.071337695236398,51.0,36.013886210738214,35.5,24.0,35.0,1.5,21.5,3.5,5.5,12.165525060596439,13.038404810405298,11.5,50.0,37.0,49.49747468305833
315,47,901,30.06336666666616,3.1622776601683795,96.62815324738438,7.0710678118654755,15.0,27.294688127912362,28.284271247461902,28.160255680657446,53.009433122794285,38.01315561749642,36.5,25.0,36.0,2.5,22.5,3.5,4.5,12.36931687685298,12.0,11.5,50.0,39.0,49.25444142409901
316,47,902,30.096733333332825,3.0,95.42536350467836,6.082762530298219,15.033296378372908,26.1725046566048,28.284271247461902,31.144823004794873,55.00909015790027,40.049968789001575,38.5,27.0,36.0,0.5,23.5,4.5,5.5,13.341664064126334,13.0,12.5,50.0,38.0,46.2709412050371
317,47,903,30.13009999999949,3.0,92.43916918709297,7.0,16.0312195418814,26.076809620810597,27.294688127912362,31.064449134018133,57.0087712549569,41.048751503547585,39.5,28.0,37.0,1.5,24.5,5.5,4.5,12.36931687685298,12.041594578792296,11.5,49.0,39.0,49.25444142409901
318,47,904,30.16346666666616,5.0990195135927845,93.53608929178085,7.0,16.0,27.294688127912362,29.427877939124322,31.144823004794873,59.033888572581766,43.04648650006177,40.5,27.0,37.0,1.0,27.0,7.0,6.0,12.36931687685298,12.0,11.5,50.0,38.0,49.36598018878993
319,47,905,30.196833333332822,7.0,96.33275663033837,9.0,17.0,28.071337695236398,30.14962686336267,30.066592756745816,63.0317380372777,46.04345773288535,42.5,29.0,37.0,3.0,30.0,9.0,5.0,12.36931687685298,12.0,11.5,48.0,38.0,51.24451190127583
320,47,906,30.23019999999949,6.082762530298219,94.42986815621421,7.0,17.0,28.160255680657446,29.154759474226502,34.132096331752024,64.03124237432849,47.042533945356304,44.0,31.0,40.0,1.5,28.5,8.5,4.5,11.180339887498949,11.045361017187261,10.0,49.0,39.0,51.15662224971465
321,47,907,30.263566666666154,6.0,90.35485598461214,7.0710678118654755,16.0312195418814,26.076809620810597,29.154759474226502,34.132096331752024,63.00793600809346,47.042533945356304,44.0,31.0,39.0,1.0,28.0,8.0,5.0,12.165525060596439,11.045361017187261,10.0,49.0,39.0,52.15361924162119
322,47,908,30.29693333333282,8.0,91.44397191723465,8.0,16.0,26.076809620810597,29.274562336608895,33.06055050963308,65.03076195155643,49.040799340956916,45.0,31.0,40.0,2.5,29.5,9.5,4.5,12.165525060596439,12.041594578792296,11.0,50.0,40.0,52.15361924162119
323,47,909,30.33029999999949,7.0,90.35485598461214,8.06225774829855,16.0312195418814,27.073972741361768,29.274562336608895,34.132096331752024,65.00769185258002,49.040799340956916,45.5,32.0,40.0,2.0,29.0,9.0,5.0,12.165525060596439,12.0,11.0,49.0,39.0,52.23983154643591
324,47,910,30.363666666666152,9.0,89.35882720806042,7.0710678118654755,17.0,27.073972741361768,29.154759474226502,33.13608305156178,66.03029607687671,49.040799340956916,44.5,33.0,41.0,4.0,29.0,9.0,2.0,12.165525060596439,11.0,11.0,50.0,40.0,52.15361924162119
325,47,911,30.397033333332818,10.0,88.36288813749809,8.06225774829855,17.0,25.079872407968907,28.160255680657446,33.13608305156178,68.0294054067798,51.03920062069938,46.0,34.0,42.0,5.0,30.0,10.0,2.0,12.165525060596439,11.045361017187261,10.5,49.0,39.0,52.15361924162119
326,47,912,30.430399999999484,10.0,87.36704184073076,7.0710678118654755,16.0,25.079872407968907,27.16615541441225,34.132096331752024,67.02984409947557,51.03920062069938,46.0,35.0,43.0,5.0,28.0,8.0,1.0,12.165525060596439,12.041594578792296,11.5,49.0,39.0,52.23983154643591
327,47,913,30.46376666666615,9.0,87.28115489611719,7.0710678118654755,16.0,25.079872407968907,27.16615541441225,35.12833614050059,67.02984409947557,51.03920062069938,46.5,36.0,43.0,4.5,27.5,7.5,1.5,13.152946437965905,13.038404810405298,12.5,50.0,40.0,52.15361924162119
328,47,914,30.497133333332812,11.0,87.36704184073076,7.0,16.0,25.179356624028344,27.073972741361768,33.13608305156178,67.06713054842886,51.088159097779204,45.5,33.0,41.0,4.0,30.0,10.0,3.0,12.36931687685298,12.0,11.5,49.0,40.0,48.25971404805462
329,47,915,30.53049999999948,10.0,87.20665112249179,8.0,16.0,24.08318915758459,26.076809620810597,33.13608305156178,67.06713054842886,51.088159097779204,46.0,35.0,41.0,5.0,29.0,9.0,2.0,13.152946437965905,12.0,11.5,48.0,40.0,50.24937810560445
330,47,916,30.563866666666147,11.045361017187261,86.20904824900923,8.0,17.0,26.019223662515376,27.073972741361768,33.13608305156178,69.1158447825099,52.15361924162119,46.5,36.0,42.0,6.0,30.0,10.0,1.0,12.36931687685298,12.0,12.0,47.0,40.0,53.150729063673246
331,47,917,30.597233333332813,11.0,82.21921916437786,6.0,15.0,22.02271554554524,25.079872407968907,35.12833614050059,67.06713054842886,52.08646657242167,46.5,37.0,43.0,5.0,27.0,9.0,0.0,12.165525060596439,12.0,11.0,47.0,41.0,51.088159097779204
332,47,918,30.63059999999948,12.0,84.29116205154607,7.0710678118654755,16.0312195418814,25.019992006393608,27.16615541441225,34.132096331752024,69.18092222571191,53.150729063673246,47.0,40.0,47.0,9.5,25.5,6.5,3.5,11.045361017187261,10.0,9.5,46.0,40.0,50.08991914547278
333,47,919,30.663966666666145,12.0,85.21150157109074,7.0710678118654755,16.0,25.079872407968907,26.076809620810597,34.132096331752024,69.1158447825099,53.150729063673246,47.0,40.0,46.0,9.0,26.0,7.0,3.0,11.045361017187261,11.0,10.5,45.0,39.0,51.088159097779204
334,47,920,30.69733333333281,14.035668847618199,82.15229759416349,6.0,16.0,23.021728866442675,26.076809620810597,34.058772731852805,70.06425622241343,54.08326913195984,47.0,37.0,42.0,5.5,30.5,11.5,0.5,12.165525060596439,12.041594578792296,11.5,48.0,41.0,52.23983154643591
335,47,921,30.73069999999948,15.033296378372908,85.09406559801923,6.0,16.0,23.021728866442675,26.019223662515376,35.22782990761707,72.17340230306452,56.22277118748239,48.5,39.0,43.0,6.0,31.0,12.0,1.0,13.038404810405298,13.038404810405298,12.5,45.0,40.0,50.15974481593781
336,47,922,30.764066666666142,8.06225774829855,82.09750300709517,7.0,16.0,23.021728866442675,25.019992006393608,35.12833614050059,66.12110101926616,50.15974481593781,46.0,38.0,42.0,5.0,26.0,7.0,1.0,12.165525060596439,12.041594578792296,11.5,46.0,41.0,48.16637831516918
337,47,923,30.79743333333281,5.0990195135927845,86.00581375697809,9.0,17.0,26.0,27.018512172212592,33.13608305156178,64.1248781675256,47.16990566028302,44.5,38.0,39.0,5.5,25.5,6.5,1.5,12.165525060596439,12.041594578792296,12.0,46.0,42.0,49.09175083453431
338,47,924,30.830799999999478,3.605551275463989,84.02380615040002,8.06225774829855,15.0,23.0,25.019992006393608,36.124783736376884,62.12889826803627,47.16990566028302,45.5,39.0,41.0,4.0,22.0,4.0,2.0,13.038404810405298,14.035668847618199,13.0,45.0,41.0,49.16299421312742
339,47,925,30.86416666666614,5.0990195135927845,81.02468759581859,6.082762530298219,14.0,22.02271554554524,24.020824298928627,35.05709628591621,60.03332407921454,46.04345773288535,43.5,37.0,39.0,3.0,22.0,6.0,2.0,13.038404810405298,13.038404810405298,13.0,46.0,41.0,49.09175083453431
340,47,926,30.89753333333281,5.0,84.02380615040002,8.0,15.033296378372908,24.020824298928627,26.0,34.132096331752024,62.12889826803627,47.095647357266465,44.5,38.0,40.0,5.0,23.0,6.0,2.0,12.041594578792296,13.0,12.5,44.0,41.0,51.088159097779204
341,47,927,30.930899999999472,3.0,86.05230967266364,9.0,14.0,24.020824298928627,25.019992006393608,33.13608305156178,59.07622195096772,45.09988913511872,43.5,36.0,39.0,4.5,21.5,4.5,3.5,11.045361017187261,12.041594578792296,11.5,43.0,41.0,50.08991914547278
342,47,928,30.964266666666138,6.0,83.02409288875127,9.0,15.0,22.02271554554524,24.0,33.06055050963308,63.0317380372777,48.041648597857254,45.0,38.0,40.0,6.0,24.0,7.0,2.0,13.038404810405298,13.038404810405298,12.5,43.0,41.0,50.08991914547278
343,47,929,30.997633333332804,5.0990195135927845,84.02380615040002,9.0,16.0,23.0,25.019992006393608,32.14031735997639,62.12889826803627,46.17358552246078,43.5,38.0,40.0,7.0,23.0,4.0,1.0,11.180339887498949,12.0,11.5,43.0,41.0,50.039984012787215
344,47,930,31.03099999999947,4.123105625617661,87.05170877128145,9.0,13.038404810405298,22.02271554554524,24.020824298928627,32.14031735997639,58.077534382926416,45.17742799230607,43.0,34.0,37.0,3.5,22.5,6.5,4.5,10.198039027185569,10.04987562112089,9.5,42.0,41.0,47.042533945356304
345,47,931,31.064366666666132,1.4142135623730951,86.00581375697809,6.0,11.0,21.02379604162864,22.0,35.05709628591621,51.088159097779204,40.11234224026316,40.5,36.0,37.0,1.5,14.5,1.5,3.5,9.055385138137417,9.055385138137417,8.0,40.0,38.0,48.041648597857254
346,47,932,31.0977333333328,1.0,86.00581375697809,5.0,10.0,21.02379604162864,23.021728866442675,35.014282800023196,50.039984012787215,40.049968789001575,40.0,37.0,38.0,2.5,12.5,1.5,1.5,12.0,11.045361017187261,10.5,41.0,41.0,46.04345773288535
347,47,933,31.131099999999467,1.4142135623730951,86.00581375697809,6.0,12.041594578792296,22.0,23.0,34.058772731852805,53.03772242470448,41.10960958218893,40.5,38.0,37.0,3.5,15.5,1.5,1.5,11.045361017187261,11.0,10.0,40.0,40.0,47.0
348,47,934,31.164466666666133,1.0,85.0235261559999,6.0,13.0,22.0,22.02271554554524,36.013886210738214,55.036351623268054,42.04759208325728,42.0,39.0,41.0,4.0,15.0,0.0,1.0,11.045361017187261,10.0,9.5,39.0,39.0,46.010868281309364
349,47,935,31.1978333333328,0.0,78.10249675906654,5.0990195135927845,12.041594578792296,20.09975124224178,20.09975124224178,37.013511046643494,54.00925846556311,42.0,42.0,38.0,42.0,3.0,14.0,0.0,2.0,11.045361017187261,13.0,12.5,38.0,37.0,49.040799340956916
350,47,936,31.231199999999465,5.0990195135927845,78.05767098754612,6.082762530298219,12.0,19.1049731745428,21.02379604162864,35.014282800023196,58.008620049092706,46.010868281309364,43.5,42.0,45.0,8.5,14.5,0.5,2.5,12.041594578792296,13.038404810405298,12.5,39.0,39.0,48.041648597857254
351,47,937,31.26456666666613,10.0,77.05841939723393,7.0,13.038404810405298,19.026297590440446,21.095023109728988,34.0147027033899,64.03124237432849,51.0098029794274,46.0,43.0,46.0,10.5,19.5,3.5,4.5,13.038404810405298,13.038404810405298,12.5,40.0,40.0,49.01020301937138
352,47,938,31.2979333333328,11.045361017187261,75.02666192761077,6.0,13.038404810405298,19.026297590440446,21.02379604162864,35.014282800023196,65.06919393998976,52.03844732503075,46.5,45.0,47.0,11.0,19.0,4.0,5.0,13.038404810405298,14.035668847618199,13.0,39.0,39.0,46.010868281309364
353,47,939,31.331299999999462,8.06225774829855,77.02596964660685,6.082762530298219,13.0,20.0,21.02379604162864,33.06055050963308,60.03332407921454,47.042533945356304,43.0,43.0,45.0,11.0,16.0,2.0,5.0,13.038404810405298,13.038404810405298,13.0,38.0,38.0,46.010868281309364
354,47,940,31.36466666666613,10.04987562112089,77.00649323271382,7.0,13.038404810405298,20.024984394500787,22.0,33.0,63.0,50.00999900019995,45.0,45.0,46.0,12.5,17.5,2.5,5.5,13.038404810405298,13.038404810405298,13.0,39.0,39.0,49.01020301937138
355,47,941,31.398033333332798,10.0,76.05918747922567,7.0,14.0,20.024984394500787,22.02271554554524,34.0147027033899,65.00769185258002,51.0098029794274,46.0,44.0,47.0,11.5,19.5,3.5,4.5,13.038404810405298,14.035668847618199,13.0,37.0,38.0,49.01020301937138
356,47,942,31.43139999999946,11.045361017187261,72.17340230306452,6.0,12.0,20.024984394500787,22.090722034374522,34.058772731852805,63.071388124885914,51.088159097779204,45.5,42.0,47.0,10.5,18.5,3.5,4.5,13.038404810405298,13.0,13.0,38.0,39.0,47.0
357,47,943,31.46476666666613,11.045361017187261,72.11102550927978,5.0,11.0,19.026297590440446,19.026297590440446,34.0147027033899,61.032778078668514,50.039984012787215,44.5,43.0,47.0,11.0,16.0,3.0,5.0,13.038404810405298,13.0,12.5,37.0,37.0,47.01063709417264
358,47,944,31.49813333333279,11.045361017187261,73.17103251970687,6.0,13.0,20.024984394500787,20.09975124224178,33.06055050963308,63.00793600809346,50.00999900019995,44.5,41.0,46.0,10.5,19.5,4.5,4.5,12.041594578792296,13.0,12.5,36.0,36.0,45.0
359,47,945,31.531499999999458,11.0,74.10802925459562,7.0,14.0,20.024984394500787,22.02271554554524,32.01562118716424,64.00781202322104,50.00999900019995,44.5,43.0,47.0,13.0,19.0,3.0,6.0,12.041594578792296,13.038404810405298,12.0,38.0,37.0,47.042533945356304
360,47,946,31.564866666666124,10.0,84.2140130857092,9.0,15.0,22.090722034374522,24.08318915758459,31.064449134018133,65.03076195155643,50.039984012787215,45.0,40.0,46.0,12.0,22.0,5.0,3.0,11.045361017187261,12.0,11.5,39.0,38.0,46.04345773288535
361,47,947,31.59823333333279,12.041594578792296,78.05767098754612,7.0,14.0,21.02379604162864,22.02271554554524,33.015148038438355,66.03029607687671,52.03844732503075,46.0,45.0,48.0,13.5,19.5,4.5,6.5,12.041594578792296,13.0,12.5,38.0,38.0,47.01063709417264
362,47,948,31.63159999999945,11.045361017187261,77.10382610480494,6.0,13.038404810405298,19.026297590440446,20.024984394500787,34.0,64.0,51.0098029794274,45.5,44.0,48.0,12.0,18.0,4.0,6.0,13.038404810405298,13.0,13.0,38.0,37.0,47.042533945356304
363,47,949,31.66496666666612,11.045361017187261,76.05918747922567,6.0,12.041594578792296,18.027756377319946,20.09975124224178,36.013886210738214,65.00769185258002,53.03772242470448,47.5,48.0,51.0,13.5,15.5,2.5,7.5,14.0,14.0,14.0,37.0,36.0,46.04345773288535
364,47,950,31.698333333332787,11.045361017187261,78.05767098754612,6.0,12.041594578792296,19.1049731745428,21.02379604162864,34.0147027033899,63.00793600809346,51.03920062069938,45.5,44.0,47.0,11.5,17.5,3.5,4.5,13.038404810405298,14.0,13.5,38.0,37.0,46.010868281309364
365,47,951,31.731699999999453,10.0,78.00640999302557,7.0,15.0,20.024984394500787,22.0,34.0147027033899,66.007575322837,51.0098029794274,46.0,48.0,49.0,14.5,17.5,1.5,7.5,13.038404810405298,14.0,14.0,38.0,37.0,49.09175083453431
366,47,952,31.76506666666612,11.045361017187261,74.02702209328699,6.0,13.0,19.026297590440446,20.024984394500787,35.0,65.00769185258002,52.009614495783374,46.5,49.0,51.0,15.0,15.0,1.0,9.0,13.038404810405298,14.0,13.5,38.0,37.0,48.041648597857254
367,47,953,31.798433333332785,11.180339887498949,77.00649323271382,6.082762530298219,12.0,19.0,20.0,34.0147027033899,63.0317380372777,51.03920062069938,45.5,47.0,48.0,13.5,15.5,2.5,7.5,13.038404810405298,13.038404810405298,13.0,38.0,35.0,46.09772228646444
368,47,954,31.83179999999945,10.04987562112089,76.10519036176179,6.0,12.041594578792296,18.027756377319946,19.026297590440446,34.0,62.0,50.00999900019995,45.0,44.0,48.0,12.0,16.0,3.0,6.0,13.0,14.0,14.0,37.0,36.0,47.01063709417264
369,47,955,31.86516666666612,10.0,82.02438661763951,7.0,13.0,20.024984394500787,22.02271554554524,32.0,62.0,49.0,44.0,45.0,47.0,14.0,16.0,1.0,7.0,13.038404810405298,13.0,13.0,37.0,36.0,45.0
370,47,956,31.898533333332782,9.055385138137417,77.00649323271382,8.0,14.035668847618199,21.0,23.0,32.01562118716424,63.00793600809346,49.040799340956916,44.5,45.0,46.0,13.5,17.5,2.5,5.5,13.0,13.038404810405298,12.5,39.0,38.0,45.044422518220834
371,47,957,31.931899999999448,10.04987562112089,77.00649323271382,6.082762530298219,11.0,18.027756377319946,20.024984394500787,34.0147027033899,61.00819617067857,50.00999900019995,45.0,47.0,48.0,13.5,13.5,1.5,7.5,14.035668847618199,12.0,12.5,37.0,36.0,45.0111097397076
372,47,958,31.965266666666118,9.055385138137417,81.00617260431454,7.0710678118654755,12.0,20.0,21.0,34.0147027033899,62.00806399170998,50.00999900019995,45.5,45.0,46.0,11.5,16.5,2.5,5.5,13.038404810405298,12.0,12.5,36.0,36.0,47.01063709417264
373,47,959,31.99863333333278,10.04987562112089,75.02666192761077,6.0,12.041594578792296,18.0,19.026297590440446,34.0,62.0,50.00999900019995,45.0,46.0,48.0,13.0,15.0,2.0,7.0,13.038404810405298,13.0,13.0,37.0,36.0,46.010868281309364
374,47,960,32.03199999999945,10.04987562112089,75.02666192761077,5.0990195135927845,11.0,18.027756377319946,19.026297590440446,35.014282800023196,61.00819617067857,50.00999900019995,45.0,45.0,47.0,11.0,15.0,2.0,6.0,13.038404810405298,12.0,12.0,36.0,35.0,45.044422518220834
375,47,961,32.065366666666115,8.06225774829855,74.02702209328699,7.0710678118654755,13.0,18.027756377319946,20.024984394500787,34.0147027033899,62.00806399170998,49.01020301937138,45.0,45.0,47.0,12.0,16.0,2.0,5.0,13.038404810405298,13.0,13.0,37.0,36.0,47.042533945356304
376,47,962,32.09873333333278,9.055385138137417,73.02739212103907,6.082762530298219,11.0,18.027756377319946,18.027756377319946,34.058772731852805,60.03332407921454,49.040799340956916,44.5,45.0,47.0,12.0,14.0,2.0,6.0,10.04987562112089,11.0,10.5,36.0,35.0,46.010868281309364
377,47,963,32.13209999999945,10.0,79.05694150420949,7.0710678118654755,13.0,20.024984394500787,22.02271554554524,32.0624390837628,62.00806399170998,49.01020301937138,44.0,43.0,46.0,12.5,17.5,2.5,5.5,4.0,3.1622776601683795,3.0,38.0,36.0,47.01063709417264
378,47,964,32.16546666666611,9.0,78.02563681252464,8.0,13.0,21.0,23.0,29.068883707497267,59.033888572581766,46.04345773288535,41.5,43.0,45.0,15.0,15.0,0.0,7.0,4.0,4.47213595499958,3.5,37.0,35.0,47.01063709417264
379,47,965,32.19883333333278,5.0,80.00624975587844,8.0,14.0,21.02379604162864,22.02271554554524,30.066592756745816,57.0350769263968,43.04648650006177,40.5,42.0,43.0,12.5,14.5,0.5,4.5,3.0,2.23606797749979,2.0,36.0,34.0,46.04345773288535
380,47,966,32.232199999999445,4.123105625617661,81.02468759581859,8.06225774829855,14.0,22.0,23.021728866442675,30.0,56.0,42.0,40.0,42.0,44.0,13.0,13.0,2.0,6.0,5.0,4.47213595499958,4.0,36.0,35.0,47.01063709417264
381,47,967,32.26556666666611,4.123105625617661,78.02563681252464,6.082762530298219,12.0,20.0,20.024984394500787,30.0,52.0,40.0,38.0,43.0,45.0,14.0,8.0,5.0,8.0,6.0,5.0990195135927845,5.0,36.0,34.0,47.01063709417264
382,47,968,32.298933333332776,1.4142135623730951,82.00609733428362,6.0,11.0,20.0,22.0,31.0,49.01020301937138,38.01315561749642,37.5,42.0,41.0,10.5,7.5,4.5,5.5,9.0,9.055385138137417,8.5,36.0,34.0,47.01063709417264
383,47,969,32.33229999999944,2.23606797749979,90.0222194794152,5.0,10.0,23.0,23.0,30.066592756745816,47.01063709417264,37.013511046643494,36.0,40.0,42.0,11.0,6.0,4.0,7.0,9.0,9.0,9.0,37.0,36.0,47.01063709417264
384,47,970,32.36566666666611,3.1622776601683795,81.0,5.0,10.0,22.0,22.0,29.0,47.01063709417264,37.013511046643494,35.5,45.0,45.0,16.0,2.0,9.0,11.0,9.0,9.055385138137417,8.5,36.0,35.0,47.01063709417264
385,47,971,32.399033333332774,5.0990195135927845,85.0,6.0,10.0,23.0,24.0,29.0,50.00999900019995,40.01249804748511,37.5,44.0,44.0,15.0,6.0,5.0,9.0,9.0,9.0,8.0,39.0,36.0,47.095647357266465
386,47,972,32.43239999999944,3.1622776601683795,85.0235261559999,5.0,9.0,22.0,22.0,30.01666203960727,47.0,38.0,36.5,42.0,44.0,13.0,4.0,6.0,8.0,9.0,10.04987562112089,9.5,35.0,34.0,46.010868281309364
387,47,973,32.465766666666106,2.23606797749979,81.0,6.0,11.045361017187261,20.024984394500787,21.02379604162864,30.01666203960727,49.01020301937138,38.0,37.0,42.0,42.0,12.0,7.0,5.0,6.0,9.055385138137417,10.04987562112089,9.5,37.0,35.0,46.010868281309364
388,47,974,32.49913333333277,4.123105625617661,76.10519036176179,7.0710678118654755,15.033296378372908,19.026297590440446,20.09975124224178,32.0,58.008620049092706,43.0,41.0,44.0,48.0,14.0,12.0,5.0,7.0,10.04987562112089,10.04987562112089,10.5,37.0,34.0,48.041648597857254
389,47,975,32.53249999999944,5.0,78.02563681252464,7.0,14.0,20.024984394500787,21.02379604162864,33.015148038438355,59.00847396772772,45.0111097397076,42.5,42.0,44.0,10.0,16.0,0.0,3.0,11.045361017187261,11.0,11.5,37.0,35.0,46.010868281309364
390,47,976,32.5658666666661,6.082762530298219,77.00649323271382,8.0,14.035668847618199,21.0,21.02379604162864,33.015148038438355,61.00819617067857,47.0,44.0,45.0,46.0,12.5,15.5,0.5,5.5,10.04987562112089,10.04987562112089,10.0,37.0,36.0,46.0
391,47,977,32.59923333333277,4.123105625617661,78.02563681252464,9.055385138137417,15.0,21.0,22.0,29.0,57.0,42.0,40.0,40.0,42.0,12.0,16.0,0.0,4.0,11.045361017187261,11.0,11.0,38.0,36.0,45.0111097397076
392,47,978,32.632599999999435,3.1622776601683795,76.00657866263946,5.0,12.041594578792296,20.0,21.0,33.0,53.0,41.012193308819754,39.5,42.0,43.0,9.5,10.5,2.5,4.5,11.180339887498949,10.04987562112089,10.5,37.0,35.0,45.044422518220834
393,47,979,32.6659666666661,6.082762530298219,76.0,8.06225774829855,15.033296378372908,20.0,21.0,31.016124838541646,60.0,45.0111097397076,42.0,43.0,43.0,12.0,17.0,1.0,5.0,11.045361017187261,11.0,11.5,35.0,35.0,46.010868281309364
394,47,980,32.69933333333277,11.0,78.02563681252464,7.0,14.035668847618199,22.0,24.0,31.016124838541646,63.0317380372777,49.01020301937138,43.5,43.0,45.0,13.0,19.0,3.0,6.0,11.045361017187261,11.0,11.0,35.0,35.0,45.0111097397076
395,47,981,32.73269999999943,12.0,74.00675644831355,8.0,13.0,20.0,21.0,30.066592756745816,63.0317380372777,50.039984012787215,44.0,44.0,45.0,14.5,18.5,3.5,7.5,12.041594578792296,12.041594578792296,12.0,36.0,37.0,45.0111097397076
396,47,982,32.7660666666661,10.04987562112089,76.0,7.0,14.035668847618199,19.0,20.0,32.0624390837628,63.0317380372777,49.01020301937138,44.0,44.0,44.0,12.0,19.0,4.0,5.0,12.041594578792296,12.0,12.0,37.0,37.0,45.0
397,47,983,32.799433333332765,2.0,82.05485969764375,10.04987562112089,15.033296378372908,22.02271554554524,23.021728866442675,28.0178514522438,55.08175741568164,40.049968789001575,39.0,38.0,41.0,11.5,15.5,1.5,2.5,10.04987562112089,11.0,11.5,37.0,36.0,46.010868281309364
398,47,984,32.83279999999943,2.0,80.02499609497022,8.0,14.035668847618199,23.021728866442675,24.020824298928627,29.068883707497267,53.08483775994799,39.05124837953327,38.0,40.0,42.0,12.0,12.0,3.0,5.0,11.045361017187261,11.0,11.5,37.0,36.0,47.01063709417264
399,47,985,32.866166666666096,2.23606797749979,84.02380615040002,7.0,13.038404810405298,24.0,24.020824298928627,30.01666203960727,52.009614495783374,39.0,38.0,41.0,43.0,12.0,10.0,5.0,6.0,12.041594578792296,12.0,12.5,36.0,35.0,47.01063709417264
400,47,986,32.89953333333276,3.1622776601683795,80.0,7.0710678118654755,14.035668847618199,23.0,23.021728866442675,30.066592756745816,54.08326913195984,40.049968789001575,38.5,42.0,42.0,12.0,12.0,3.0,5.0,11.045361017187261,11.0,11.5,37.0,35.0,47.0
401,47,987,32.93289999999943,3.1622776601683795,80.02499609497022,8.0,15.033296378372908,21.02379604162864,22.0,29.068883707497267,55.036351623268054,40.01249804748511,38.5,40.0,42.0,12.0,14.0,2.0,4.0,10.04987562112089,11.0,11.0,37.0,35.0,46.010868281309364
402,47,988,32.966266666666094,7.0710678118654755,80.00624975587844,8.06225774829855,14.035668847618199,22.0,23.0,28.071337695236398,57.07889277132134,43.04648650006177,39.5,41.0,42.0,13.5,15.5,0.5,5.5,10.04987562112089,10.0,10.0,37.0,34.0,46.010868281309364
403,47,989,32.99963333333276,4.123105625617661,77.10382610480494,7.0710678118654755,13.038404810405298,20.024984394500787,22.02271554554524,30.0,54.08326913195984,41.048751503547585,39.0,39.0,43.0,11.0,13.0,1.0,4.0,10.04987562112089,10.0,10.5,38.0,34.0,46.04345773288535
404,47,990,33.032999999999426,8.06225774829855,85.21150157109074,10.0,15.033296378372908,26.019223662515376,27.073972741361768,29.154759474226502,62.20128616033595,47.16990566028302,43.0,39.0,45.0,13.0,20.0,2.0,4.0,9.055385138137417,11.045361017187261,11.0,37.0,33.0,45.044422518220834
405,47,991,33.06636666666609,9.0,76.05918747922567,6.0,14.035668847618199,18.027756377319946,19.0,31.144823004794873,60.13318551349163,46.09772228646444,41.5,43.0,46.0,13.5,15.5,0.5,7.5,11.180339887498949,12.0,12.0,39.0,33.0,44.10215414239989
406,47,992,33.09973333333276,18.027756377319946,81.2219182240853,6.082762530298219,13.038404810405298,22.090722034374522,24.08318915758459,30.01666203960727,67.11929677819934,54.08326913195984,45.0,44.0,50.0,17.0,20.0,5.0,10.0,11.045361017187261,11.045361017187261,11.0,38.0,33.0,47.01063709417264
407,47,993,33.13309999999942,15.033296378372908,79.30952023559341,7.0710678118654755,13.152946437965905,20.09975124224178,22.090722034374522,29.068883707497267,64.1248781675256,51.03920062069938,43.5,42.0,49.0,16.5,18.5,3.5,8.5,11.0,12.041594578792296,12.5,38.0,34.0,46.04345773288535
408,47,994,33.16646666666609,15.0,75.16648189186454,7.0,15.033296378372908,21.095023109728988,23.021728866442675,30.066592756745816,67.06713054842886,52.03844732503075,44.5,43.0,48.0,15.5,21.5,4.5,7.5,10.04987562112089,10.0,10.5,37.0,35.0,46.04345773288535
409,47,995,33.199833333332755,13.0,75.1065909225016,7.0710678118654755,14.035668847618199,21.02379604162864,23.021728866442675,30.01666203960727,64.07027391856539,50.039984012787215,43.5,42.0,46.0,14.0,20.0,4.0,7.0,9.055385138137417,10.0,10.0,36.0,36.0,47.01063709417264
410,47,996,33.23319999999942,17.029386365926403,77.23341245859851,7.0,16.0312195418814,21.02379604162864,23.021728866442675,30.066592756745816,70.02856560004639,54.00925846556311,45.5,39.0,45.0,12.0,28.0,10.0,5.0,10.04987562112089,10.0,10.5,37.0,37.0,46.010868281309364
411,47,997,33.26656666666609,17.0,76.23647421018367,7.0,18.027756377319946,23.021728866442675,25.019992006393608,30.14962686336267,72.11102550927978,54.08326913195984,45.5,38.0,44.0,11.0,31.0,11.0,4.0,10.04987562112089,11.0,11.5,37.0,37.0,46.010868281309364
412,47,998,33.29993333333275,13.0,80.15609770940699,9.0,15.033296378372908,25.019992006393608,26.076809620810597,28.0,65.00769185258002,50.0,43.5,35.0,40.0,9.5,27.5,9.5,0.5,10.198039027185569,10.0,10.5,38.0,37.0,46.010868281309364
413,47,999,33.33329999999942,8.0,77.31752712031083,8.06225774829855,15.033296378372908,24.08318915758459,25.079872407968907,29.017236257093817,60.07495318350236,45.044422518220834,41.0,33.0,40.0,7.5,23.5,5.5,0.5,10.04987562112089,10.04987562112089,11.0,37.0,34.0,49.040799340956916
414,47,1000,33.366666666666084,1.0,79.22752047110903,7.280109889280518,11.180339887498949,22.20360331117452,23.021728866442675,30.0,49.16299421312742,38.05259518088089,37.5,31.0,37.0,4.0,15.0,2.0,3.0,10.198039027185569,10.04987562112089,11.0,38.0,34.0,47.042533945356304
415,47,1001,33.40003333333275,3.1622776601683795,89.35882720806042,7.0710678118654755,11.180339887498949,24.08318915758459,24.08318915758459,30.0,45.17742799230607,34.058772731852805,35.5,28.0,36.0,2.0,13.0,0.0,4.0,9.219544457292887,10.0,10.5,37.0,34.0,47.042533945356304
416,47,1002,33.433399999999416,0.0,87.20665112249179,5.0,10.04987562112089,23.08679276123039,23.021728866442675,29.017236257093817,44.04543109109048,34.0147027033899,34.0,28.0,34.0,2.0,13.0,1.0,3.0,10.198039027185569,10.0,10.5,38.0,34.0,47.095647357266465
417,47,1003,33.46676666666608,1.0,91.19758768739445,7.0710678118654755,12.041594578792296,27.073972741361768,28.071337695236398,27.018512172212592,47.01063709417264,35.0,34.5,29.0,35.0,5.0,15.0,0.0,2.0,10.198039027185569,10.0,11.0,36.0,33.0,46.04345773288535
418,47,1004,33.50013333333275,0.0,90.13878188659973,8.06225774829855,14.035668847618199,27.018512172212592,29.017236257093817,27.0,49.040799340956916,35.014282800023196,35.0,29.0,34.0,4.5,17.5,2.5,3.5,10.198039027185569,11.0,11.0,35.0,33.0,49.040799340956916
419,47,1005,33.533499999999414,6.0,86.05230967266364,8.0,15.0,25.0,27.018512172212592,27.0,56.0,41.0,38.0,32.0,35.0,6.5,22.5,6.5,0.5,10.04987562112089,11.045361017187261,11.5,36.0,35.0,46.0
420,47,1006,33.56686666666608,9.0,80.02499609497022,7.0,13.0,23.0,23.021728866442675,29.0,58.0,45.0,40.5,36.0,38.0,8.0,21.0,6.0,2.0,10.198039027185569,11.045361017187261,11.0,35.0,36.0,47.01063709417264
421,47,1007,33.600233333332746,15.0,80.09993757800315,8.0,14.0,22.02271554554524,24.08318915758459,28.0178514522438,65.00769185258002,51.0098029794274,43.5,38.0,42.0,12.0,25.0,9.0,4.0,10.198039027185569,12.041594578792296,12.5,35.0,36.0,47.0
422,47,1008,33.63359999999941,10.0,78.05767098754612,9.0,16.0312195418814,24.020824298928627,25.0,28.0,63.00793600809346,47.0,42.0,36.0,39.0,9.5,25.5,8.5,1.5,11.045361017187261,11.0,11.5,36.0,38.0,47.0
423,47,1009,33.66696666666608,7.0710678118654755,77.05841939723393,7.0710678118654755,14.035668847618199,20.024984394500787,22.02271554554524,28.071337695236398,56.00892785976178,42.0,38.5,32.0,35.0,5.5,22.5,6.5,1.5,12.165525060596439,11.045361017187261,11.5,35.0,37.0,48.010415536631214
424,47,1010,33.70033333333274,0.0,77.0,7.0,13.0,22.02271554554524,23.0,32.01562118716424,52.009614495783374,39.01281840626232,39.0,37.0,37.0,5.0,15.0,1.0,1.0,11.180339887498949,11.045361017187261,12.0,35.0,37.0,45.044422518220834
425,47,1011,33.73369999999941,1.0,81.0,7.0,11.0,22.0,23.0,32.01562118716424,49.01020301937138,38.01315561749642,38.5,34.0,34.0,2.0,15.0,2.0,4.0,11.045361017187261,11.045361017187261,11.0,34.0,37.0,47.0
426,47,1012,33.767066666666075,1.0,86.00581375697809,9.055385138137417,14.0,24.0,23.0,29.0,52.0,38.0,38.0,34.0,35.0,5.5,17.5,2.5,1.5,11.045361017187261,12.041594578792296,12.0,35.0,37.0,46.0
427,47,1013,33.80043333333274,1.4142135623730951,85.0,7.0710678118654755,12.0,23.0,22.0,31.016124838541646,51.0098029794274,39.01281840626232,38.5,35.0,35.0,4.0,16.0,2.0,2.0,11.180339887498949,12.041594578792296,11.5,34.0,37.0,46.0
428,47,1014,33.83379999999941,0.0,83.00602387778854,7.0,12.0,22.0,23.0,32.01562118716424,51.0098029794274,39.01281840626232,39.0,35.0,34.0,2.5,16.5,3.5,3.5,10.04987562112089,11.045361017187261,11.5,32.0,36.0,46.0
429,47,1015,33.86716666666607,7.0,77.02596964660685,5.0,12.0,20.0,20.0,32.01562118716424,56.00892785976178,44.01136216933077,40.5,40.0,38.0,7.0,17.0,4.0,3.0,10.04987562112089,11.045361017187261,11.0,33.0,37.0,45.0111097397076
430,47,1016,33.90053333333274,3.1622776601683795,77.0,6.082762530298219,12.041594578792296,21.02379604162864,21.0,32.0624390837628,53.009433122794285,41.048751503547585,39.5,39.0,39.0,7.0,14.0,1.0,1.0,11.0,11.0,11.5,32.0,37.0,45.0111097397076
431,47,1017,33.933899999999404,1.4142135623730951,79.00632886041473,6.0,11.0,20.0,20.0,32.0,50.00999900019995,39.01281840626232,38.5,38.0,37.0,5.5,12.5,0.5,0.5,10.04987562112089,11.0,12.0,32.0,38.0,46.010868281309364
432,47,1018,33.96726666666607,3.1622776601683795,81.02468759581859,6.0,14.0,21.02379604162864,22.0,29.068883707497267,52.08646657242167,38.118237105091836,36.5,39.0,37.0,9.0,14.0,1.0,4.0,10.0,12.041594578792296,12.0,33.0,38.0,47.0
433,47,1019,34.000633333332736,2.23606797749979,80.02499609497022,6.0,13.0,20.0,21.0,30.01666203960727,51.03920062069938,38.05259518088089,37.0,39.0,37.0,8.0,13.0,1.0,3.0,11.0,11.045361017187261,11.5,32.0,37.0,46.0
434,47,1020,34.0339999999994,2.23606797749979,80.05623023850174,6.0,13.038404810405298,21.0,22.02271554554524,29.017236257093817,50.08991914547278,37.05401462729781,36.0,40.0,37.0,9.5,11.5,2.5,3.5,10.0,12.041594578792296,12.0,31.0,37.0,45.044422518220834
435,47,1021,34.06736666666607,1.4142135623730951,82.15229759416349,6.0,13.038404810405298,20.09975124224178,21.02379604162864,30.01666203960727,50.08991914547278,37.05401462729781,36.5,41.0,36.0,8.5,11.5,1.5,4.5,11.0,11.045361017187261,11.5,30.0,38.0,47.01063709417264
436,47,1022,34.100733333332734,3.1622776601683795,83.15046602394962,6.082762530298219,13.038404810405298,21.02379604162864,22.02271554554524,28.0178514522438,50.15974481593781,37.12142238654117,35.5,40.0,35.0,9.5,12.5,0.5,4.5,11.0,11.0,11.5,30.0,37.0,45.0111097397076
437,47,1023,34.1340999999994,2.23606797749979,80.05623023850174,6.0,13.0,20.024984394500787,21.02379604162864,28.0178514522438,49.040799340956916,36.05551275463989,35.0,39.0,36.0,9.5,11.5,2.5,4.5,10.0,11.045361017187261,11.0,32.0,38.0,46.04345773288535
438,47,1024,34.167466666666066,1.4142135623730951,80.05623023850174,7.0710678118654755,14.0,21.02379604162864,21.02379604162864,28.0178514522438,50.08991914547278,36.124783736376884,35.5,38.0,35.0,8.5,13.5,1.5,2.5,11.0,11.045361017187261,11.0,32.0,37.0,47.01063709417264
439,47,1025,34.20083333333273,3.1622776601683795,79.02531240052139,7.0,13.0,22.0,21.0,29.017236257093817,52.03844732503075,39.05124837953327,37.5,40.0,38.0,10.0,13.0,1.0,4.0,11.0,11.0,11.0,31.0,36.0,45.0111097397076
440,47,1026,34.2341999999994,3.1622776601683795,77.02596964660685,6.0,14.0,19.026297590440446,20.024984394500787,30.0,53.009433122794285,39.01281840626232,37.5,39.0,37.0,8.0,15.0,0.0,4.0,11.0,11.045361017187261,11.0,32.0,36.0,46.010868281309364
441,47,1027,34.26756666666606,3.1622776601683795,78.00640999302557,7.0,14.0,19.026297590440446,20.0,30.01666203960727,54.0,40.0,38.5,37.0,36.0,6.5,17.5,2.5,1.5,11.045361017187261,11.0,11.5,34.0,38.0,46.010868281309364
442,47,1028,34.30093333333273,2.23606797749979,77.02596964660685,7.0,14.0,21.0,21.0,30.01666203960727,53.03772242470448,39.05124837953327,38.0,39.0,37.0,8.0,15.0,1.0,2.0,10.04987562112089,10.0,10.5,32.0,37.0,46.010868281309364
443,47,1029,34.334299999999395,3.1622776601683795,78.02563681252464,7.0,14.035668847618199,20.024984394500787,20.024984394500787,30.01666203960727,54.00925846556311,40.049968789001575,38.5,39.0,37.0,8.0,16.0,1.0,3.0,9.055385138137417,10.0,10.0,32.0,37.0,47.042533945356304
444,47,1030,34.36766666666606,2.0,77.05841939723393,8.0,14.035668847618199,20.024984394500787,21.02379604162864,29.017236257093817,53.03772242470448,39.01281840626232,38.0,39.0,36.0,8.5,15.5,0.5,2.5,10.0,11.045361017187261,11.5,30.0,36.0,46.010868281309364
445,47,1031,34.40103333333273,3.1622776601683795,78.16009211867653,6.0,13.038404810405298,20.024984394500787,21.02379604162864,30.066592756745816,52.15361924162119,39.11521443121589,37.5,40.0,35.0,7.5,14.5,0.5,2.5,10.04987562112089,11.045361017187261,11.0,30.0,37.0,47.042533945356304
446,47,1032,34.43439999999939,2.23606797749979,80.15609770940699,7.0710678118654755,13.0,21.0,22.090722034374522,29.017236257093817,51.088159097779204,38.118237105091836,37.0,39.0,34.0,7.5,14.5,0.5,1.5,10.0,11.0,11.0,29.0,37.0,48.010415536631214
447,47,1033,34.46776666666606,2.8284271247461903,86.09297300012354,9.0,16.0,24.020824298928627,25.079872407968907,27.018512172212592,54.08326913195984,38.118237105091836,37.0,37.0,33.0,8.0,19.0,3.0,0.0,9.0,10.0,10.5,29.0,38.0,46.04345773288535
448,47,1034,34.501133333332724,1.4142135623730951,81.15417426109393,8.0,14.035668847618199,22.02271554554524,22.090722034374522,29.154759474226502,52.23983154643591,38.2099463490856,37.5,39.0,34.0,7.5,15.5,0.5,1.5,10.0,11.045361017187261,11.0,28.0,36.0,47.042533945356304
449,47,1035,34.53449999999939,1.4142135623730951,83.21658488546619,7.0,12.041594578792296,22.090722034374522,22.090722034374522,29.068883707497267,49.16299421312742,37.12142238654117,36.5,37.0,31.0,5.0,15.0,2.0,0.0,10.0,10.0,10.0,28.0,37.0,45.044422518220834
450,47,1036,34.567866666666056,2.23606797749979,84.29116205154607,8.06225774829855,13.038404810405298,23.08679276123039,23.08679276123039,28.071337695236398,51.24451190127583,38.2099463490856,37.0,39.0,32.0,7.5,15.5,1.5,1.5,10.0,10.04987562112089,10.5,29.0,38.0,46.09772228646444
451,47,1037,34.60123333333272,1.0,84.1486779456457,9.055385138137417,14.035668847618199,24.020824298928627,25.079872407968907,28.0178514522438,51.15662224971465,37.12142238654117,37.0,37.0,32.0,6.5,16.5,2.5,0.5,9.0,10.0,10.5,27.0,37.0,45.044422518220834
452,47,1038,34.63459999999939,2.23606797749979,80.50465825031493,8.0,13.038404810405298,20.09975124224178,21.213203435596427,28.160255680657446,50.35871324805669,37.33630940518894,36.5,40.0,31.0,7.5,14.5,1.5,1.5,11.045361017187261,10.04987562112089,10.5,27.0,37.0,46.04345773288535
453,47,1039,34.667966666666054,2.23606797749979,79.51100552753688,7.0710678118654755,12.041594578792296,21.095023109728988,22.20360331117452,29.068883707497267,50.24937810560445,38.2099463490856,37.0,41.0,32.0,7.5,13.5,0.5,2.5,10.0,10.04987562112089,10.5,27.0,38.0,46.04345773288535
454,47,1040,34.70133333333272,2.23606797749979,81.39410298049853,7.0,12.041594578792296,20.09975124224178,21.095023109728988,29.154759474226502,49.36598018878993,37.33630940518894,36.5,40.0,32.0,7.0,13.0,1.0,2.0,10.0,11.045361017187261,11.0,27.0,38.0,44.10215414239989
455,47,1041,34.734699999999386,1.4142135623730951,82.38931969618392,8.0,13.038404810405298,21.095023109728988,21.213203435596427,27.16615541441225,49.25444142409901,36.22154055254967,35.5,40.0,32.0,9.0,13.0,0.0,3.0,10.04987562112089,11.045361017187261,10.5,27.0,37.0,45.09988913511872
456,47,1042,34.76806666666605,2.23606797749979,81.39410298049853,8.0,12.041594578792296,20.09975124224178,21.095023109728988,28.160255680657446,49.36598018878993,37.33630940518894,36.5,40.0,32.0,8.0,13.0,0.0,2.0,10.0,10.04987562112089,10.5,27.0,38.0,46.09772228646444
457,47,1043,34.80143333333272,2.23606797749979,83.38465086573187,9.055385138137417,12.165525060596439,23.08679276123039,23.194827009486403,27.073972741361768,50.35871324805669,38.2099463490856,37.0,40.0,32.0,9.0,14.0,1.0,2.0,10.04987562112089,10.04987562112089,10.5,27.0,38.0,45.17742799230607
458,47,1044,34.83479999999938,1.4142135623730951,83.2946576918352,8.06225774829855,14.035668847618199,22.090722034374522,23.08679276123039,29.154759474226502,52.3450093132096,38.3275357934736,37.5,41.0,34.0,8.5,14.5,0.5,2.5,10.0,11.0,11.0,26.0,38.0,46.09772228646444
459,47,1045,34.86816666666605,2.23606797749979,84.2140130857092,9.0,13.152946437965905,21.095023109728988,23.194827009486403,27.16615541441225,51.35172830587107,38.2099463490856,37.0,39.0,33.0,9.0,15.0,2.0,2.0,9.055385138137417,10.0,10.0,26.0,37.0,44.04543109109048
460,47,1046,34.901533333332715,3.605551275463989,85.21150157109074,10.0,12.041594578792296,23.08679276123039,23.194827009486403,25.079872407968907,49.36598018878993,37.33630940518894,36.0,39.0,33.0,11.0,13.0,1.0,3.0,10.04987562112089,10.0,10.0,26.0,37.0,45.09988913511872
461,47,1047,34.93489999999938,3.605551275463989,81.30190649671138,9.0,13.0,20.09975124224178,21.213203435596427,27.16615541441225,52.23983154643591,39.319206502675,37.5,39.0,32.0,8.5,16.5,2.5,1.5,10.04987562112089,10.04987562112089,10.5,28.0,39.0,44.181444068749045
462,47,1048,34.96826666666605,3.1622776601683795,82.29823813423954,9.0,13.038404810405298,22.090722034374522,22.20360331117452,28.160255680657446,53.23532661682466,40.19950248448356,38.5,41.0,34.0,9.5,15.5,2.5,2.5,10.0,10.0,10.0,28.0,39.0,43.104524124504614
463,47,1049,35.00163333333271,3.605551275463989,82.38931969618392,9.0,12.0,21.095023109728988,23.194827009486403,28.284271247461902,52.3450093132096,40.44749683231337,38.5,42.0,34.0,10.0,14.0,1.0,3.0,10.0,10.04987562112089,10.0,27.0,38.0,45.09988913511872
464,47,1050,35.03499999999938,4.123105625617661,83.38465086573187,9.055385138137417,13.038404810405298,21.095023109728988,22.20360331117452,28.160255680657446,54.3323108288245,41.30375285612676,39.0,43.0,35.0,11.0,15.0,1.0,4.0,10.0,11.045361017187261,11.0,26.0,39.0,43.18564576337837
465,47,1051,35.068366666666044,5.0990195135927845,88.45903006477066,11.045361017187261,13.038404810405298,24.08318915758459,25.179356624028344,26.1725046566048,55.326304774492215,42.2965719651132,39.5,43.0,34.0,12.5,16.5,3.5,3.5,9.055385138137417,9.0,9.5,26.0,39.0,44.181444068749045
466,47,1052,35.10173333333271,4.123105625617661,89.35882720806042,10.04987562112089,14.142135623730951,24.186773244895647,25.317977802344327,27.073972741361768,55.326304774492215,41.19465984809196,39.0,43.0,35.0,12.0,16.0,2.0,4.0,10.04987562112089,10.0,10.0,27.0,40.0,43.18564576337837
