,video_id,frame_seq,time_seconds,m1,m3,m4,m5,m6,m7,m8,m9,m10,m11,m12,m13,m14,m15,m16,m17,e1,e2,e3,b1,b2,b3,label_measures
0,279,0,0.0,60.98000465599068,171.90062506148644,13.541827381310668,24.92906204316794,45.19581366396144,52.35005725030461,29.340625992839705,128.64736012245123,103.84520598828551,73.35156498209938,49.65336706480571,60.93822321589789,25.95516914751215,73.35156498209938,41.75396775904119,12.413341766201484,13.72862003113382,15.79879861152915,14.670312996419966,67.70913690655328,67.70913690655328,74.5142392841583,"{'others': ['m1', 'm3', 'm12', 'e1', 'e2']}"
1,279,1,0.0333666666666666,65.88024123792363,170.65670610968135,13.622298275594972,25.077200389625677,47.73207009405642,52.66114199567506,29.514979597122533,133.95259971001747,109.0020334625418,76.05783203873875,52.21881005644752,63.57072528611002,28.37978807415618,76.05783203873875,44.27246939568374,14.75748979856121,11.576727454540077,15.892681321527448,15.892681321527448,65.8411083320425,68.11149137797503,70.4184839839508,"{'others': ['m1', 'm3', 'm12', 'e1', 'e2']}"
2,279,2,0.0667333333333332,68.39101104396764,167.32153446480075,13.859178573504815,27.341219068419377,45.79597516123899,50.94735368724949,29.70715685200205,139.00320470596918,111.66655811169542,77.46678736052183,50.12556829210234,68.35304767104856,29.61965399078781,79.74522228288993,43.290263524997386,13.670609534209802,13.859178573504852,13.670609534209689,13.670609534209689,63.79617782631203,66.0746127486803,68.50477493359489,"{'others': ['m1', 'm3', 'm12', 'e1', 'e2']}"
3,279,3,0.1000999999999998,64.16047091339681,168.54200034652666,13.748672338584925,27.59265638298274,48.60889721462672,53.49433125087111,29.78879006693421,135.2146956303686,107.69793331891594,75.61769786221748,48.12035318504752,68.74336169292508,28.643067372052087,76.76342055709961,40.10029432087288,12.602949643702914,12.339811070428617,16.040117728349173,14.894395033467047,68.74336169292508,64.16047091339675,71.18248875370936,"{'others': ['m1', 'm3', 'm12', 'e1', 'e2']}"
4,279,4,0.1334666666666664,63.79617782631203,167.5850453127559,13.670609534209689,27.43598960932093,48.063637341372456,53.19059883127579,29.619653990787697,134.44696780373064,107.08644135130942,75.1883524381534,45.568698447365705,66.07461274868024,26.202001607235275,78.60600482170582,42.15104606381328,12.531392073025586,12.269747559283898,15.949044456578008,14.809826995393903,68.35304767104856,61.51774290394371,72.94550937414894,"{'others': ['m1', 'm3', 'm12', 'e1', 'e2']}"
5,279,5,0.166833333333333,63.82413975717441,167.95264953417433,11.622876216432324,25.48484198258724,48.354087884674186,55.8810006851948,31.99337464699296,132.2857244456931,107.13337744954276,75.22130757095556,45.58867125512461,68.3830068826868,25.07376919031856,75.22130757095545,41.02980412961199,11.397167813781152,11.62287621643237,16.118029294891457,14.816318157915475,66.10357331993066,56.98583906890576,77.63470967127208,"{'others': ['m1', 'm3', 'm12', 'e1', 'e2']}"
6,279,6,0.2001999999999996,61.28356263390094,168.94102416563746,13.80642068565467,27.331548725239276,50.14067212672903,52.64672717845768,29.5069005274338,131.72441597217116,104.43370104288104,73.76725131858439,45.395231580667314,63.553324212934285,24.967377369367,77.17189368713457,40.85570842260074,11.348807895166829,12.223040175996504,16.049638042111834,15.888331053233628,63.55332421293434,56.744039475834256,79.47407381690147,"{'others': ['m1', 'm3', 'm12', 'e1', 'e2']}"
7,279,7,0.2335666666666662,56.79526737939421,161.6980313629891,13.630864171054554,29.53353903728498,45.66282984249735,50.18593858184707,29.53353903728509,129.49320962501884,99.95967058773384,71.56203689803681,49.97983529386693,61.33888876974584,26.12582299452129,73.83384759321245,39.756687165575954,12.494958823466732,16.064127481309136,15.902674866230312,17.038580213818136,63.6106994649216,63.6106994649216,79.64308628415117,"{'others': ['m1', 'm3', 'm12', 'e1', 'e2']}"
8,279,8,0.2669333333333328,52.27188353141685,154.60978939716207,15.908834118257232,29.54497764819212,45.5105935646861,47.94246048192601,27.36681866761615,125.01864147404216,95.4800567165229,69.31706294383537,56.81726470806177,61.36264588470669,31.817668236514574,65.90802706135162,31.817668236514574,15.908834118257346,16.070349265416553,16.070349265416585,17.04517941241852,65.90802706135173,65.90802706135173,72.76160095136561,"{'others': ['m1', 'm3', 'm12', 'e1', 'e2']}"
9,279,9,0.3002999999999994,50.05081834966367,147.72488824096058,15.908834118257346,31.817668236514574,40.90843058980454,45.45381176644946,25.102688028385312,122.80943664852732,91.02118712937256,65.90802706135162,59.08995529638423,59.08995529638423,34.09035882483715,63.63533647302916,29.54497764819212,18.181524706579808,13.824237153609268,13.63614352993477,13.63614352993477,70.4534082379966,70.4534082379966,70.49005500678847,"{'others': ['m1', 'm3', 'm12', 'e1', 'e2']}"
10,279,10,0.333666666666666,54.59190130792281,140.9801100135767,13.824237153609303,29.54497764819212,38.7025261187479,43.24088746441645,27.366818667616133,125.18379166688108,95.69619747237827,68.18071764967408,65.90802706135162,61.36264588470669,36.3630494131595,61.36264588470669,29.54497764819212,22.72690588322473,11.588493658214876,11.363452941612309,11.363452941612309,72.72609882631912,72.72609882631912,72.76160095136561,"{'others': ['m1', 'm3', 'm12', 'e1', 'e2']}"
11,279,11,0.3670333333333326,41.18949168322362,142.11637351668324,15.99347338337111,34.34780364169092,41.379160337992886,43.65069713672419,29.789911470976428,121.28727711061455,86.94188117051634,66.2586754453946,70.82823926921492,59.404329709664125,35.41411963460746,55.97715684179889,21.705428163146507,21.705428163146507,11.65014755313373,11.423909559550792,11.423909559550792,68.54345735730487,73.11302118112513,73.1487121870005,"{'others': ['m1', 'm3', 'm12', 'e1', 'e2']}"
12,279,12,0.4003999999999992,38.84764343235233,149.13615390730615,13.876071913753997,29.74336773606572,41.31450956951105,46.13466101799352,32.018338594855486,114.42502033814948,84.68184053064331,65.01454685632825,70.71757728232205,54.74909208953966,30.79636430036612,51.32727383394331,21.67151561877597,19.390303448378745,11.40606085198749,11.631945371502203,11.40606085198749,63.87394077112958,72.9987894527195,75.41813018261571,"{'others': ['m1', 'm3', 'm12', 'e1', 'e2']}"
13,279,13,0.4337666666666658,36.65775292722128,156.84803852628335,16.16904166908886,30.076156060884777,41.41295304296184,46.2445898619857,32.33808333817776,115.15264095518722,85.09894279813044,66.31278625510345,70.88608185890371,50.306251641802646,28.583097523751466,53.73622334465279,26.29644972185133,14.863210712350792,13.90913556938677,12.313975269104056,11.43323900950054,57.16619504750293,75.45937746270386,71.03345432954065,"{'others': ['m1', 'm3', 'm12', 'e1', 'e2']}"
14,279,14,0.4671333333333324,39.0664908678533,156.86481330108495,16.138218627393158,30.018821889120996,41.647861759044645,46.156433807304985,32.67740215972986,117.82004903586358,87.80140188960534,67.32751858343465,68.46866296620465,45.64577531080317,25.10517642094169,59.33950790404401,29.66975395202201,13.693732593240952,13.693732593240952,14.434461554641752,13.693732593240838,54.774930372963695,75.31552926282507,71.08147964857996,"{'others': ['m1', 'm3', 'm12', 'e1', 'e2']}"
15,279,15,0.5004999999999991,38.95000650032292,156.74432743082494,16.09009937869389,29.9293149125771,41.52368053036939,48.64428500726966,32.579968107206795,117.46874556351533,87.53960487277104,67.1267684457755,68.2645102838394,43.23418984643172,23.89257859934378,60.30031741739151,30.719029627727764,12.51516021870384,18.20386940902381,16.565771213475692,15.928385732896004,52.33612455094362,77.36644498835142,75.40061607465,"{'others': ['m1', 'm3', 'm12', 'e1', 'e2']}"
16,279,16,0.5338666666666656,36.98426858423301,157.64685270572411,16.218674675003307,30.168478788613587,41.85549448641754,46.78181052863484,32.84031323961045,116.14201880970148,85.97427505249448,66.5163420984095,66.5163420984095,43.5796724093027,22.93666968910668,59.63534119167741,29.817670595838763,11.468334844553397,18.349335751285366,18.914062365617983,17.202502266830038,55.0480072538561,75.69100997405212,76.24502292950281,"{'others': ['m1', 'm3', 'm12', 'e1', 'e2']}"
17,279,17,0.5672333333333321,36.38177503047534,153.41768402706035,16.0473130371923,29.849727716835165,41.41326192239457,45.89643746237375,32.49333236874817,114.57826458923816,84.73224421255671,65.81355043684744,63.54411766316309,43.11922270000355,21.559611350001774,60.13996850263629,30.63734244473926,10.21244748157983,18.1554621894752,18.714222072278456,17.020745802632973,54.46638656842549,74.89128153158504,72.94028957334788,"{'others': ['m1', 'm3', 'm12', 'e1', 'e2']}"
18,279,18,0.6005999999999987,36.50891856138547,153.41387967357835,16.103393644569543,29.9540436765554,41.55798901014416,45.77444524978368,34.462767356577444,116.94656553155905,87.01794743994631,68.3209130771487,63.76618553867206,47.82463915400399,21.63495580776373,60.350139884814666,28.46704711547864,10.2481369615723,18.218910153906226,16.579458497920747,15.94154638466796,59.211458000195535,72.87564061562523,70.74505096915875,"{'others': ['m1', 'm3', 'm12', 'e1', 'e2']}"
19,279,19,0.6339666666666652,34.43159741422212,146.8687860419372,13.93169038500735,32.14667542214948,41.48010757715439,45.864338967563015,36.71719651048431,117.1668660046902,85.02126472377945,67.56549582703622,61.83960635016865,52.67818318718071,20.61320211672285,59.54925055942181,25.19391369821699,11.451778953734788,18.46543872031032,16.674041842188046,16.032490535229044,59.54925055942158,71.0010295131566,68.86319482844422,"{'others': ['m1', 'm3', 'm12', 'e1', 'e2']}"
20,279,20,0.6673333333333318,29.720177529640083,137.06960129489934,13.86525306583778,31.912069878587204,39.01761766864704,41.09307294765571,36.75476180612629,112.06377905499284,80.29949783448997,64.96385653855248,63.82413975717429,54.7064055061494,22.79433562756219,52.42697194339337,20.514902064806165,11.39716781378104,18.37738090306313,16.594526822179617,15.95603493929366,61.54470619441816,70.66244044544305,68.4209868949917,"{'others': ['m1', 'm3', 'm12', 'e1', 'e2']}"
21,279,21,0.7006999999999983,27.17421333877155,136.34202500962363,13.774523890617484,31.78402163479394,36.51425200740487,40.82417481805763,36.30298165931412,108.90894497794228,77.12669635600868,63.40649779046703,65.67101556869795,54.3484266775431,23.777436671425107,48.68713223196573,14.719365558501297,12.45484778027037,18.11614222584774,16.012558771046166,16.98388333673222,61.1419800122361,70.20005112515992,68.08633382848119,"{'others': ['m1', 'm3', 'm12', 'e1', 'e2']}"
22,279,22,0.7340666666666649,25.14167620995645,134.6052905451278,15.933542886994928,34.21909608252992,36.70295131386346,38.76263685724214,34.44546522843427,109.63729351370986,75.42502862986923,62.59606134176568,66.01039196040745,56.90551031069606,27.314644949134163,47.80062866098467,13.65732247456708,13.65732247456708,16.095308891029706,16.57113473469815,17.07165309320885,59.18173072312391,68.2866123728353,70.70953321967839,"{'others': ['m1', 'm3', 'm12', 'e1', 'e2']}"
23,279,23,0.7674333333333314,25.00000000000001,134.0189000617841,13.580361906377789,34.02626757735715,36.28496052989096,40.80390932733596,36.4961260014642,109.01947487325076,74.99999999999999,62.24332540423143,67.90180953188894,56.58484127657414,26.029026987224142,46.39956984679077,12.44866508084624,14.712058731909224,20.49590122959009,16.477754502438255,16.975452382972207,61.111628578700106,70.16520318295193,68.05253515471409,"{'others': ['m1', 'm3', 'm12', 'e1', 'e2']}"
24,279,24,0.800799999999998,24.97282868487184,131.62052142937983,15.987215339548651,33.98928603979809,36.45646009184259,38.70095061202962,34.21413492628447,109.11201267460964,75.15691784739109,62.175676083864346,67.82801027330663,56.523341894422174,28.261670947210973,46.34914035342626,12.435135216772892,14.696068892549649,18.228230045921293,15.98721533954862,16.95700256832663,58.78427557019904,70.0889439490835,67.97857207959595,"{'others': ['m1', 'm3', 'm12', 'e1', 'e2']}"
25,279,25,0.8341666666666645,24.68083045816838,127.85543404312084,15.800282630083348,33.59186164804089,35.82171836078253,35.82171836078277,33.81408145806348,107.83620549172764,74.27813527082075,61.44867845817771,67.0349219543757,55.86243496197972,27.931217480989854,45.807196668823394,12.289735691635542,12.289735691635542,17.875979187833536,18.426137588195186,16.758730488593983,58.096932360458936,69.26941935285492,64.95434502109661,"{'others': ['m1', 'm3', 'm12', 'e1', 'e2']}"
26,279,26,0.867533333333331,22.59504649514109,128.64469747027127,15.89781923704799,31.556270162770936,33.79922731886389,38.2870187878916,36.252605613501125,106.26595189497644,74.73666107416228,62.952152416129934,67.44873473156781,56.207278942973176,25.855348313767536,43.84167757551904,12.365601367454133,12.36560136745402,18.12630280675052,18.53988384083466,16.862183682891896,58.45557010069206,69.69702588928669,67.59845463772756,"{'others': ['m1', 'm3', 'm12', 'e1', 'e2']}"
27,279,27,0.9008999999999976,20.26746639602401,128.28037545787868,13.429003462701644,31.41417425933307,36.0893624063648,38.3112520686252,38.31125206862529,103.3442066444126,71.93540551990867,61.54959920404906,67.14501731350822,53.716013850806576,22.381672437836187,42.52517763188837,11.190836218917866,11.190836218918092,20.143505194052523,18.456399907834594,17.90533795026863,58.19234833837379,71.62135180107532,67.29406304032985,"{'others': ['m1', 'm3', 'm12', 'e1', 'e2']}"
28,279,28,0.934266666666664,15.906615963171886,126.69497293896688,13.49721121594689,31.813231926343885,34.04164472835067,38.50584018045866,38.30820410981232,99.38771373690804,67.63585883027596,59.612682870431854,65.23652087707637,51.7393096611296,20.245816823920336,40.49163364784056,8.998140810631185,8.998140810631298,20.245816823920336,20.739689809148945,19.12104922259141,56.23838006644519,71.98512648504982,67.63585883027596,"{'others': ['m1', 'm3', 'm12', 'e1', 'e2']}"
29,279,29,0.9676333333333308,18.104580960200664,130.93967465570194,13.659432646481651,29.279001348185638,36.20916192040134,38.43842719929879,38.175147202204585,99.03566037179016,69.75823049685518,60.63111614467789,65.12230993317257,51.64872856768852,20.210372048225963,40.42074409645193,11.227984471236596,11.227984471236596,18.104580960200664,19.18638827492256,17.96477515397862,56.139922356183206,71.85910061591449,71.99931362849186,"{'others': ['m1', 'm3', 'm12', 'e1', 'e2']}"
30,279,30,1.0009999999999972,24.579471383271084,134.73852558260438,13.59191704951801,27.18383409903617,36.03018792888363,38.24843443562631,38.052119532359605,103.17475672839504,76.10423906471908,63.68317585665693,67.0349219543757,53.62793756350061,22.344973984791864,42.45545057110462,15.641481789354316,13.406984390875095,20.234234533395103,20.60104810498414,18.99322788707309,55.86243496197972,71.50391675133403,71.81745552716286,"{'others': ['m1', 'm3', 'm12', 'e1', 'e2']}"
