,frame_seq,m1,m3,m4,m5,m6,m7,m8,m9,m10,m11,m12,m13,m14,m15,m16,m17,e1,e2,e3,b1,b2,b3,label_measures
0,219,4.123105625617661,29.154759474226505,4.0,5.0,8.06225774829855,8.06225774829855,6.324555320336759,19.235384061671343,14.317821063276352,12.0,14.0,11.0,6.5,6.5,1.5,3.5,4.0,4.123105625617661,4.0,9.0,12.0,10.04987562112089,{}
1,220,3.1622776601683795,29.068883707497267,3.0,6.0,8.06225774829855,9.055385138137416,6.082762530298219,18.110770276274835,12.16552506059644,10.5,12.0,10.0,5.0,7.0,1.0,3.0,4.0,4.0,4.0,9.0,10.0,10.0,{}
2,221,2.0,29.068883707497267,3.0,5.0990195135927845,8.06225774829855,9.055385138137416,6.324555320336759,16.278820596099706,11.180339887498947,10.0,12.0,10.0,5.0,5.0,0.0,3.0,4.0,4.0,4.0,8.0,9.0,10.0,{}
3,222,1.0,26.0768096208106,3.0,5.0990195135927845,7.071067811865476,7.0,6.324555320336759,15.297058540778355,10.198039027185567,9.5,11.0,9.0,4.0,5.0,0.0,2.0,4.123105625617661,3.0,3.0,8.0,9.0,10.0,{}
4,223,1.0,26.0768096208106,3.0,5.0990195135927845,7.071067811865476,7.071067811865476,6.324555320336759,15.297058540778355,10.198039027185567,9.5,11.0,9.0,4.0,5.0,0.0,2.0,3.0,4.0,4.0,7.0,9.0,10.04987562112089,{}
5,224,2.23606797749979,25.079872407968907,3.0,4.0,7.0,8.0,5.0990195135927845,14.142135623730953,10.198039027185567,9.0,11.0,9.0,5.0,4.0,1.0,2.0,4.123105625617661,3.1622776601683795,3.5,8.0,9.0,8.0,{}
6,225,2.0,24.08318915758459,2.0,4.123105625617661,6.0,7.0,6.324555320336759,14.317821063276352,10.198039027185567,9.0,11.0,9.0,4.0,4.0,1.0,2.0,3.0,3.0,3.0,7.0,8.0,7.0,{}
7,226,2.0,23.08679276123039,3.0,4.0,6.0,7.0,5.385164807134504,14.142135623730953,10.198039027185567,9.0,11.0,9.0,5.0,4.0,0.0,2.0,3.0,3.0,3.0,8.0,8.0,7.0,{}
8,227,1.0,22.02271554554524,3.0,5.0990195135927845,6.0,7.0,5.0990195135927845,14.142135623730953,9.055385138137416,8.5,10.0,9.0,4.5,4.5,0.5,1.5,3.1622776601683795,3.1622776601683795,3.0,8.0,8.0,8.06225774829855,{}
9,228,2.0,22.02271554554524,3.0,4.123105625617661,6.082762530298219,7.0,5.385164807134504,14.317821063276352,10.198039027185567,9.0,10.0,9.0,4.5,4.5,0.5,2.5,4.0,3.0,3.5,7.0,8.0,8.06225774829855,{}
10,229,2.0,21.02379604162864,2.0,4.0,6.0,6.0,4.47213595499958,12.16552506059644,8.246211251235321,7.0,9.0,8.0,4.5,3.5,0.5,2.5,3.0,2.0,2.5,7.0,7.0,7.0,{}
11,230,2.0,20.024984394500787,3.0,4.123105625617661,6.082762530298219,6.0,3.1622776601683795,12.16552506059644,8.06225774829855,7.0,8.0,7.0,4.5,4.5,0.5,2.5,3.0,3.0,3.0,7.0,7.0,7.0,{}
12,231,2.23606797749979,18.110770276274835,2.0,4.0,6.0,6.082762530298219,4.123105625617661,12.16552506059644,8.246211251235321,7.0,9.0,7.0,4.0,4.0,1.0,2.0,2.0,2.0,2.5,6.0,7.0,6.082762530298219,{}
13,232,1.0,19.026297590440446,3.0,4.123105625617661,6.082762530298219,6.0,4.123105625617661,12.16552506059644,8.06225774829855,7.5,9.0,8.0,4.5,3.5,0.5,2.5,3.1622776601683795,3.0,3.0,6.0,6.0,6.0,{}
14,233,2.23606797749979,15.033296378372908,2.23606797749979,4.123105625617661,5.0,5.0990195135927845,7.071067811865476,11.180339887498947,7.071067811865476,8.0,12.0,11.0,4.5,0.5,4.5,2.5,3.0,2.0,2.5,6.0,6.0,6.0,{}
15,323,4.47213595499958,52.03844732503075,5.0,8.06225774829855,11.0,12.0,15.132745950421556,32.14031735997639,24.33105012119288,22.0,21.0,19.0,5.0,12.0,5.0,0.0,10.0,11.04536101718726,11.5,18.0,19.0,29.0,{}
16,324,4.123105625617661,48.16637831516918,6.082762530298219,9.0,10.04987562112089,11.180339887498947,13.038404810405298,32.01562118716424,23.021728866442675,21.0,22.0,18.0,7.0,12.0,4.0,2.0,10.04987562112089,10.04987562112089,10.5,17.0,19.0,28.0,{}
17,327,1.4142135623730951,46.52956049652737,6.082762530298219,7.071067811865476,9.219544457292889,11.180339887498947,14.0356688476182,28.0,21.02379604162864,20.5,23.0,16.0,5.5,8.5,2.5,1.5,10.0,9.055385138137416,9.5,16.0,23.0,30.01666203960727,{}
18,367,4.0,40.19950248448356,4.123105625617661,9.055385138137416,11.04536101718726,12.0,11.180339887498947,28.284271247461906,19.235384061671343,17.0,13.0,9.0,0.0,17.0,8.0,3.0,2.23606797749979,2.23606797749979,1.5,11.0,19.0,19.1049731745428,{}
19,368,4.123105625617661,37.33630940518894,4.0,8.06225774829855,9.219544457292889,10.04987562112089,11.40175425099138,27.459060435491963,19.4164878389476,17.0,14.0,9.0,0.5,15.5,6.5,1.5,2.23606797749979,2.23606797749979,1.5,11.0,19.0,18.110770276274835,{}
20,369,4.123105625617661,37.33630940518894,4.0,8.06225774829855,10.04987562112089,11.04536101718726,10.44030650891055,26.476404589747453,18.43908891458577,16.0,13.0,8.0,0.5,15.5,7.5,2.5,2.23606797749979,1.4142135623730951,1.5,10.0,18.0,19.1049731745428,{}
21,370,4.123105625617661,37.21558813185679,4.0,8.06225774829855,10.04987562112089,11.0,10.198039027185567,26.30589287593181,18.24828759089466,16.0,13.0,9.0,1.0,15.0,7.0,2.0,2.23606797749979,2.23606797749979,2.0,10.0,18.0,17.11724276862369,{}
22,370,5.0,30.59411708155671,3.1622776601683795,5.0990195135927845,7.280109889280518,8.06225774829855,7.0,20.09975124224178,15.033296378372908,12.5,6.0,12.0,2.0,11.0,4.0,1.0,2.8284271247461903,2.23606797749979,2.0,16.0,8.0,15.132745950421556,{}
23,371,3.0,35.22782990761707,4.0,7.071067811865476,10.198039027185567,11.04536101718726,9.219544457292889,23.194827009486403,16.1245154965971,14.5,11.0,7.0,0.0,14.0,6.0,2.0,2.23606797749979,2.23606797749979,2.0,10.0,17.0,16.1245154965971,{}
24,371,5.0990195135927845,29.8328677803526,3.1622776601683795,8.06225774829855,10.198039027185567,11.180339887498947,3.0,19.235384061671343,11.180339887498947,8.5,1.0,8.0,1.5,14.5,5.5,1.5,2.23606797749979,2.0,1.5,17.0,9.0,14.142135623730953,{}
25,372,3.1622776601683795,33.13608305156178,3.0,7.071067811865476,9.055385138137416,9.0,10.198039027185567,23.345235059857504,16.278820596099706,14.5,11.0,8.0,0.5,13.5,6.5,2.5,1.4142135623730951,2.23606797749979,2.0,9.0,16.0,16.0312195418814,{}
26,372,4.123105625617661,27.65863337187866,3.0,5.0,6.324555320336759,8.246211251235321,6.082762530298219,18.110770276274835,13.152946437965904,11.0,5.0,11.0,2.0,10.0,4.0,1.0,2.23606797749979,2.0,2.0,16.0,8.0,15.132745950421556,{}
27,373,3.1622776601683795,32.14031735997639,3.1622776601683795,7.071067811865476,8.06225774829855,9.055385138137416,10.04987562112089,23.345235059857504,16.278820596099706,14.5,11.0,8.0,0.5,13.5,6.5,2.5,2.23606797749979,2.23606797749979,1.5,9.0,15.0,16.1245154965971,{}
28,373,5.0,26.476404589747453,2.23606797749979,4.123105625617661,7.071067811865476,7.280109889280518,6.0,17.11724276862369,13.038404810405298,10.5,5.0,10.0,1.5,9.5,4.5,0.5,2.23606797749979,2.23606797749979,2.0,15.0,7.0,14.142135623730953,{}
29,374,4.0,32.14031735997639,3.1622776601683795,7.071067811865476,9.0,9.0,8.06225774829855,22.20360331117452,15.132745950421556,13.0,9.0,6.0,0.5,14.5,7.5,3.5,2.0,2.23606797749979,2.0,9.0,16.0,15.132745950421556,{}
30,374,3.1622776601683795,24.515301344262525,2.0,5.0990195135927845,6.082762530298219,7.280109889280518,5.0990195135927845,15.297058540778355,10.198039027185567,8.5,1.0,6.0,1.5,11.5,5.5,3.5,2.23606797749979,2.0,2.0,15.0,8.0,14.317821063276352,{}
31,375,3.0,29.27456233660889,3.0,7.071067811865476,8.06225774829855,8.06225774829855,9.219544457292889,22.20360331117452,15.132745950421556,13.5,12.0,8.0,1.0,12.0,5.0,1.0,1.4142135623730951,2.23606797749979,2.0,9.0,15.0,15.132745950421556,{}
32,375,4.123105625617661,29.61418578992169,3.0,6.0,9.055385138137416,10.44030650891055,4.0,17.029386365926403,11.04536101718726,9.0,3.0,9.0,2.0,11.0,3.0,1.0,1.4142135623730951,2.0,1.5,15.0,8.0,13.152946437965904,{}
33,376,2.23606797749979,29.154759474226505,3.0,7.0,8.0,8.06225774829855,9.219544457292889,21.213203435596427,14.317821063276352,13.0,10.0,7.0,0.5,12.5,5.5,2.5,2.0,2.8284271247461903,2.0,8.0,15.0,15.132745950421556,{}
34,376,4.0,24.515301344262525,2.23606797749979,4.123105625617661,6.082762530298219,7.071067811865476,6.0,16.1245154965971,12.041594578792296,10.0,4.0,9.0,0.5,9.5,4.5,1.5,2.23606797749979,2.23606797749979,1.5,13.0,7.0,13.038404810405298,{}
35,377,3.1622776601683795,29.27456233660889,3.0,7.071067811865476,8.06225774829855,8.06225774829855,8.246211251235321,21.37755832643195,14.317821063276352,12.5,11.0,7.0,1.0,12.0,5.0,1.0,2.23606797749979,2.23606797749979,2.0,8.0,15.0,14.0356688476182,{}
36,378,4.0,27.29468812791236,2.23606797749979,5.0990195135927845,7.071067811865476,8.06225774829855,8.246211251235321,19.4164878389476,14.317821063276352,12.0,10.0,6.0,0.0,11.0,5.0,1.0,1.0,1.4142135623730951,1.0,8.0,14.0,14.142135623730953,{}
37,379,3.1622776601683795,27.16615541441225,3.0,6.0,7.071067811865476,8.06225774829855,8.246211251235321,20.223748416156685,14.317821063276352,12.5,10.0,7.0,0.5,11.5,5.5,1.5,1.4142135623730951,1.4142135623730951,1.0,8.0,14.0,13.152946437965904,{}
38,380,3.0,27.073972741361768,3.1622776601683795,6.082762530298219,7.071067811865476,7.071067811865476,7.071067811865476,19.235384061671343,13.152946437965904,11.5,9.0,7.0,1.0,11.0,5.0,1.0,1.4142135623730951,1.4142135623730951,1.0,8.0,13.0,13.038404810405298,{}
39,381,4.0,28.16025568065745,3.0,5.0990195135927845,8.06225774829855,8.06225774829855,6.082762530298219,18.110770276274835,13.038404810405298,11.0,8.0,5.0,0.5,11.5,5.5,1.5,1.4142135623730951,1.4142135623730951,1.0,8.0,13.0,13.038404810405298,{}
40,382,3.0,25.179356624028344,2.0,5.0990195135927845,6.0,6.082762530298219,8.246211251235321,18.24828759089466,13.152946437965904,11.5,9.0,6.0,0.5,10.5,4.5,2.5,2.23606797749979,1.4142135623730951,1.0,7.0,13.0,12.041594578792296,{}
41,383,2.23606797749979,25.179356624028344,3.0,6.0,6.082762530298219,6.082762530298219,7.071067811865476,18.110770276274835,12.16552506059644,11.0,9.0,6.0,0.5,10.5,4.5,1.5,2.23606797749979,1.4142135623730951,1.0,7.0,12.0,12.041594578792296,{}
42,384,2.0,25.179356624028344,2.0,5.0990195135927845,6.0,7.0,7.071067811865476,16.1245154965971,11.04536101718726,10.0,8.0,5.0,0.5,9.5,4.5,2.5,1.0,1.4142135623730951,1.0,7.0,12.0,12.041594578792296,{}
43,385,2.0,23.194827009486403,3.0,5.0990195135927845,6.082762530298219,6.0,7.071067811865476,17.11724276862369,12.041594578792296,11.0,9.0,6.0,0.5,9.5,4.5,1.5,1.4142135623730951,1.4142135623730951,1.0,6.0,11.0,12.16552506059644,{}
44,386,2.0,22.09072203437452,2.23606797749979,5.0,6.082762530298219,7.0,7.071067811865476,16.1245154965971,11.180339887498947,10.0,8.0,6.0,0.0,9.0,4.0,1.0,2.23606797749979,2.23606797749979,1.5,7.0,12.0,12.041594578792296,{}
45,397,1.4142135623730951,51.35172830587107,4.123105625617661,7.071067811865476,14.142135623730953,15.033296378372908,16.278820596099706,28.635642126552707,21.587033144922906,20.5,13.0,19.0,0.0,12.0,3.0,4.0,3.0,4.0,4.0,15.0,10.0,17.11724276862369,{}
46,398,1.0,49.16299421312742,3.1622776601683795,8.06225774829855,14.0356688476182,15.033296378372908,16.1245154965971,28.284271247461906,20.223748416156685,19.5,14.0,18.0,0.0,12.0,3.0,3.0,3.0,4.0,4.0,13.0,8.0,14.142135623730953,{}
47,399,1.4142135623730951,47.16990566028302,3.1622776601683795,7.0,14.0356688476182,15.033296378372908,15.297058540778355,26.476404589747453,19.6468827043885,18.5,13.0,17.0,0.0,11.0,3.0,3.0,3.0,3.0,3.0,12.0,8.0,14.142135623730953,{}
48,400,1.0,40.19950248448356,3.1622776601683795,7.071067811865476,11.04536101718726,12.041594578792296,14.0356688476182,25.179356624028344,18.110770276274835,17.5,13.0,17.0,1.0,10.0,2.0,2.0,3.1622776601683795,4.0,3.5,13.0,8.0,15.033296378372908,{}
49,401,1.0,43.10452412450461,3.1622776601683795,6.082762530298219,12.041594578792296,13.0,13.152946437965904,23.345235059857504,17.26267650163207,16.5,12.0,15.0,0.5,9.5,2.5,2.5,2.0,3.1622776601683795,3.0,11.0,7.0,13.152946437965904,{}
50,402,1.0,40.19950248448356,3.0,7.071067811865476,11.04536101718726,12.041594578792296,13.152946437965904,23.345235059857504,16.278820596099706,16.0,11.0,15.0,0.0,10.0,2.0,3.0,3.0,3.0,3.0,10.0,6.0,12.041594578792296,{}
51,403,1.0,38.11823710509184,3.0,7.0,11.04536101718726,11.04536101718726,12.16552506059644,22.20360331117452,15.297058540778355,15.0,11.0,14.0,0.5,9.5,1.5,2.5,2.0,2.0,2.5,9.0,5.0,12.041594578792296,{}
52,403,0.0,22.0,2.0,3.0,6.0,6.0,6.0,11.0,8.0,8.0,8.0,8.0,2.0,3.0,0.0,0.0,3.0,4.0,4.0,8.0,8.0,10.04987562112089,{}
53,404,0.0,37.12142238654117,3.1622776601683795,6.082762530298219,11.04536101718726,11.04536101718726,11.180339887498947,20.39607805437113,14.317821063276352,14.0,10.0,13.0,0.5,8.5,1.5,2.5,2.0,3.0,2.5,10.0,6.0,11.04536101718726,{}
54,404,1.0,21.0,2.0,3.0,6.0,6.0,5.0,11.0,8.0,7.5,8.0,8.0,3.0,3.0,1.0,1.0,3.0,3.0,3.0,8.0,7.0,11.04536101718726,{}
55,405,0.0,35.12833614050059,3.0,5.0990195135927845,10.0,10.0,11.180339887498947,19.235384061671343,14.142135623730953,14.0,9.0,12.0,0.5,8.5,2.5,2.5,3.0,3.0,3.0,9.0,5.0,10.04987562112089,{}
56,405,0.0,21.02379604162864,2.0,3.0,5.0,6.0,6.0,11.0,8.0,8.0,9.0,8.0,2.5,2.5,0.5,0.5,3.0,3.0,3.0,7.0,7.0,9.0,{}
57,405,2.23606797749979,19.1049731745428,3.0,3.0,5.0,5.0,8.06225774829855,16.1245154965971,13.152946437965904,12.0,14.0,12.0,5.0,3.0,1.0,2.0,3.1622776601683795,3.0,3.0,6.0,8.0,7.071067811865476,{}
58,406,1.4142135623730951,34.132096331752024,3.0,4.0,9.055385138137416,9.0,10.198039027185567,18.24828759089466,14.317821063276352,13.5,9.0,12.0,0.5,7.5,2.5,2.5,2.0,2.0,2.5,8.0,4.0,11.180339887498947,{}
59,406,1.0,19.0,2.0,2.0,4.0,5.0,5.0,10.0,8.0,7.5,8.0,8.0,3.0,2.0,0.0,1.0,2.0,3.0,3.0,8.0,7.0,9.055385138137416,{}
60,407,1.4142135623730951,32.14031735997639,2.0,5.0990195135927845,9.055385138137416,10.04987562112089,10.198039027185567,18.43908891458577,13.341664064126334,12.5,9.0,12.0,0.5,7.5,1.5,1.5,2.0,2.0,2.0,9.0,5.0,10.04987562112089,{}
61,407,0.0,18.027756377319943,3.0,3.1622776601683795,5.0,5.0,5.0990195135927845,11.180339887498947,8.06225774829855,8.0,9.0,10.0,4.5,1.5,1.5,1.5,3.0,3.0,2.5,7.0,7.0,8.0,{}
62,408,1.0,32.0624390837628,3.1622776601683795,5.0,9.0,9.055385138137416,10.04987562112089,17.11724276862369,12.16552506059644,12.5,9.0,11.0,0.0,7.0,1.0,2.0,1.0,2.0,2.0,8.0,4.0,10.04987562112089,{}
63,408,1.0,19.026297590440446,2.0,2.0,5.0,6.0,4.0,9.0,7.0,6.5,8.0,7.0,3.5,1.5,0.5,1.5,2.0,3.0,2.5,6.0,6.0,8.06225774829855,{}
64,409,1.0,31.14482300479488,3.0,4.0,10.0,10.04987562112089,10.04987562112089,17.11724276862369,13.152946437965904,13.0,9.0,12.0,0.5,6.5,1.5,1.5,2.0,2.0,2.0,7.0,4.0,9.055385138137416,{}
65,409,0.0,18.0,2.0,3.0,5.0,6.0,4.0,9.0,6.0,6.0,7.0,7.0,3.0,2.0,1.0,1.0,1.0,2.0,1.5,6.0,6.0,8.0,{}
66,410,1.4142135623730951,29.154759474226505,2.0,4.0,9.055385138137416,9.055385138137416,9.219544457292889,16.278820596099706,12.36931687685298,11.5,8.0,11.0,0.5,6.5,1.5,1.5,2.23606797749979,2.0,2.0,8.0,4.0,9.055385138137416,{}
67,411,1.4142135623730951,28.16025568065745,2.0,4.0,8.0,9.055385138137416,8.06225774829855,15.132745950421556,11.180339887498947,10.5,7.0,10.0,0.5,6.5,1.5,1.5,1.4142135623730951,2.0,1.5,8.0,5.0,9.055385138137416,{}
68,412,1.0,28.16025568065745,2.0,4.123105625617661,8.06225774829855,8.0,9.219544457292889,16.278820596099706,12.16552506059644,11.5,8.0,11.0,0.5,6.5,1.5,1.5,2.0,1.0,1.5,7.0,4.0,8.06225774829855,{}
69,413,1.0,26.0768096208106,2.0,3.1622776601683795,8.06225774829855,8.0,8.246211251235321,14.317821063276352,11.180339887498947,10.5,7.0,9.0,0.0,6.0,2.0,2.0,2.0,2.0,1.5,7.0,4.0,8.06225774829855,{}
70,414,0.0,26.0768096208106,2.23606797749979,4.0,8.06225774829855,8.06225774829855,8.06225774829855,14.142135623730953,10.198039027185567,10.0,7.0,9.0,0.0,6.0,2.0,2.0,2.0,1.0,1.5,7.0,4.0,6.082762530298219,{}
71,415,1.0,26.0768096208106,2.0,3.0,8.0,8.06225774829855,8.246211251235321,13.341664064126334,10.44030650891055,10.0,7.0,9.0,0.0,5.0,1.0,1.0,1.0,2.0,2.0,6.0,3.0,8.246211251235321,{}
72,416,0.0,24.08318915758459,2.23606797749979,3.0,7.071067811865476,7.0,8.06225774829855,13.152946437965904,10.198039027185567,10.0,7.0,9.0,0.0,5.0,1.0,2.0,1.0,2.0,1.5,7.0,4.0,8.06225774829855,{}
73,417,1.0,24.08318915758459,2.0,3.0,7.071067811865476,7.0,7.071067811865476,12.16552506059644,9.219544457292889,9.0,6.0,8.0,0.0,5.0,2.0,2.0,1.4142135623730951,2.0,1.5,6.0,3.0,7.071067811865476,{}
74,664,6.0,94.19129471453292,8.0,12.041594578792296,24.020824298928627,26.019223662515376,20.024984394500787,46.04345773288535,34.0147027033899,31.0,28.0,22.0,5.0,21.0,8.0,1.0,8.246211251235321,7.280109889280518,7.5,22.0,34.0,28.284271247461906,{}
75,665,5.0,94.19129471453292,7.071067811865476,13.038404810405298,24.020824298928627,26.0768096208106,21.0,46.04345773288535,33.015148038438355,30.5,28.0,22.0,4.0,21.0,7.0,2.0,7.071067811865476,8.246211251235321,7.5,21.0,36.0,31.575306807693888,{}
76,666,4.0,91.19758768739445,7.071067811865476,12.041594578792296,24.020824298928627,24.08318915758459,21.02379604162864,44.10215414239989,32.0624390837628,30.0,28.0,22.0,4.0,19.0,7.0,1.0,6.324555320336759,6.082762530298219,6.0,21.0,35.0,31.400636936215164,{}
77,667,3.0,92.26592003551474,7.071067811865476,11.04536101718726,25.019992006393608,25.079872407968907,21.02379604162864,42.1070065428546,31.064449134018133,29.5,28.0,21.0,3.5,17.5,6.5,1.5,5.385164807134504,6.082762530298219,6.0,20.0,34.0,32.38826948140329,{}
78,668,3.0,89.20201791439474,6.082762530298219,10.04987562112089,23.021728866442675,24.08318915758459,22.0,41.04875150354759,31.016124838541646,29.5,29.0,23.0,4.0,15.0,4.0,1.0,3.605551275463989,4.123105625617661,4.0,23.0,35.0,31.25699921617557,{}
79,669,4.0,104.12012293500234,6.0,11.0,27.018512172212592,28.0713376952364,20.0,41.0,30.0,28.0,28.0,23.0,5.5,15.5,4.5,0.5,6.082762530298219,4.123105625617661,4.5,23.0,31.0,32.0624390837628,{}
80,670,3.0,91.02197536858888,7.0,10.04987562112089,24.0,25.0,22.0,42.01190307520001,32.0,30.5,31.0,29.0,8.0,12.0,1.0,2.0,3.1622776601683795,3.1622776601683795,3.5,25.0,33.0,32.2490309931942,{}
81,671,4.0,87.0,5.0,8.0,23.0,24.0,25.019992006393608,42.01190307520001,34.0147027033899,32.0,34.0,34.0,9.0,8.0,1.0,5.0,4.123105625617661,5.0,4.5,27.0,31.0,33.06055050963308,{}
82,672,6.082762530298219,88.02272433866155,5.0,8.06225774829855,24.020824298928627,24.0,25.019992006393608,44.10215414239989,36.05551275463989,33.0,35.0,37.0,11.0,8.0,1.0,6.0,5.0990195135927845,5.0,5.5,27.0,28.0,34.0147027033899,{}
83,673,7.071067811865476,84.09518416651456,4.123105625617661,8.06225774829855,22.09072203437452,22.02271554554524,26.019223662515376,45.17742799230607,37.12142238654117,33.5,35.0,39.0,11.0,8.0,1.0,7.0,5.0,5.0,5.0,27.0,25.0,32.01562118716424,{}
84,674,5.0990195135927845,84.29116205154607,3.1622776601683795,7.280109889280518,22.20360331117452,22.09072203437452,25.079872407968907,40.44749683231337,33.24154027718932,30.5,32.0,39.0,10.5,4.5,3.5,6.5,5.0,6.0,5.5,28.0,24.0,29.017236257093817,{}
85,675,3.605551275463989,79.40403012442127,5.0990195135927845,6.082762530298219,21.095023109728988,21.095023109728988,25.179356624028344,39.6232255123179,33.54101966249684,31.5,30.0,38.0,9.0,5.0,3.0,4.0,6.0,6.0,6.5,30.0,23.0,29.068883707497267,{}
86,676,2.23606797749979,73.55270219373317,5.0990195135927845,6.324555320336759,19.235384061671343,20.223748416156685,27.29468812791236,40.024992192379,33.734255586866,32.5,30.0,39.0,7.5,4.5,3.5,2.5,6.0,6.082762530298219,6.0,32.0,22.0,27.073972741361768,{}
87,677,1.4142135623730951,77.92945527847606,5.0990195135927845,7.615773105863909,21.37755832643195,20.223748416156685,26.476404589747453,38.3275357934736,30.80584360149873,30.5,26.0,38.0,6.0,5.0,5.0,1.0,6.082762530298219,6.082762530298219,6.0,31.0,20.0,28.284271247461906,{}
88,678,2.23606797749979,81.58431221748455,5.385164807134504,7.615773105863909,21.587033144922906,22.36067977499789,26.30589287593181,38.60051813123757,31.04834939252005,30.5,25.0,41.0,7.0,4.0,6.0,1.0,6.0,5.385164807134504,5.5,32.0,18.0,27.459060435491963,{}
89,679,2.23606797749979,80.4114419718985,5.385164807134504,7.280109889280518,21.587033144922906,21.587033144922906,27.459060435491963,41.48493702538308,34.20526275297414,32.5,27.0,42.0,7.5,5.5,4.5,1.5,6.082762530298219,7.071067811865476,6.5,33.0,18.0,29.42787793912432,{}
90,680,4.47213595499958,76.48529270389177,4.47213595499958,7.615773105863909,21.587033144922906,22.36067977499789,26.476404589747453,42.72001872658765,35.17101079013795,32.0,28.0,43.0,9.5,5.5,4.5,4.5,5.385164807134504,6.082762530298219,6.0,33.0,16.0,29.42787793912432,{}
91,681,3.605551275463989,74.14849964766651,4.47213595499958,8.54400374531753,20.39607805437113,21.37755832643195,25.495097567963924,41.7612260356422,33.24154027718932,30.5,28.0,41.0,9.5,5.5,5.5,4.5,6.082762530298219,6.324555320336759,6.0,34.0,19.0,25.317977802344327,{}
92,682,7.615773105863909,76.2954782408499,3.1622776601683795,7.615773105863909,21.587033144922906,22.36067977499789,25.96150997149434,44.27188724235731,36.68787265568828,31.5,28.0,42.0,10.0,7.0,2.0,5.0,6.082762530298219,6.324555320336759,6.0,32.0,17.0,26.30589287593181,{}
93,683,2.8284271247461903,75.95393340703298,4.47213595499958,9.486832980505138,21.37755832643195,21.213203435596427,25.70992026436488,42.05948168962618,32.57299494980466,30.0,29.0,41.0,10.0,5.0,6.0,4.0,6.324555320336759,6.082762530298219,6.0,33.0,19.0,26.1725046566048,{}
94,684,5.0,76.2954782408499,4.123105625617661,8.54400374531753,21.587033144922906,22.20360331117452,25.70992026436488,43.01162633521314,34.48187929913333,31.0,29.0,43.0,11.0,5.0,6.0,5.0,6.082762530298219,7.280109889280518,6.5,33.0,19.0,26.1725046566048,{}
95,685,5.830951894845301,76.11832893594026,3.605551275463989,7.615773105863909,20.615528128088304,20.39607805437113,25.70992026436488,42.37924020083418,34.785054261852174,30.5,28.0,41.0,9.5,5.5,3.5,4.5,5.0,6.082762530298219,5.5,32.0,18.0,26.30589287593181,{}
96,686,6.324555320336759,74.96665925596525,4.47213595499958,6.708203932499369,21.37755832643195,21.37755832643195,25.495097567963924,42.72001872658765,36.1386219991853,32.0,29.0,41.0,10.0,6.0,3.0,5.0,6.082762530298219,6.324555320336759,6.0,33.0,20.0,27.16615541441225,{}
97,687,5.0,75.13321502504735,4.123105625617661,6.324555320336759,20.615528128088304,21.213203435596427,25.70992026436488,40.80441152620633,34.48187929913333,31.0,28.0,41.0,9.5,4.5,4.5,3.5,5.0990195135927845,6.082762530298219,6.0,34.0,21.0,27.29468812791236,{}
98,688,3.605551275463989,75.95393340703298,4.123105625617661,6.708203932499369,20.39607805437113,21.37755832643195,25.70992026436488,39.21734310225516,32.57299494980466,30.0,27.0,39.0,8.0,4.0,4.0,3.0,5.0990195135927845,6.324555320336759,6.0,34.0,21.0,27.29468812791236,{}
99,689,3.605551275463989,72.99315036357864,4.47213595499958,7.615773105863909,19.4164878389476,21.213203435596427,25.495097567963924,40.80441152620633,33.24154027718932,30.5,26.0,38.0,7.0,7.0,2.0,2.0,5.385164807134504,5.0990195135927845,5.0,34.0,20.0,28.442925306655784,{}
100,690,2.8284271247461903,79.2464510246358,4.47213595499958,7.615773105863909,22.56102834535696,22.36067977499789,25.495097567963924,39.84971769034255,32.28002478313795,30.0,26.0,40.0,8.0,5.0,4.0,2.0,5.0990195135927845,6.082762530298219,5.5,33.0,20.0,27.29468812791236,{}
101,691,3.605551275463989,74.96665925596525,4.123105625617661,7.615773105863909,21.37755832643195,21.37755832643195,25.70992026436488,40.162171256046406,32.57299494980466,30.0,26.0,38.0,7.0,6.0,4.0,2.0,6.082762530298219,5.0990195135927845,5.0,33.0,20.0,28.284271247461906,{}
102,692,2.8284271247461903,77.27871634544663,5.0990195135927845,6.708203932499369,22.56102834535696,22.36067977499789,25.495097567963924,39.56008088970496,32.984845004941285,31.0,26.0,40.0,8.0,5.0,4.0,2.0,4.123105625617661,5.0990195135927845,4.5,33.0,21.0,25.179356624028344,{}
103,693,4.242640687119285,77.92945527847606,4.123105625617661,7.615773105863909,21.37755832643195,21.37755832643195,24.515301344262525,39.84971769034255,32.28002478313795,29.5,25.0,37.0,7.0,7.0,3.0,2.0,2.0,3.605551275463989,3.0,33.0,21.0,29.27456233660889,{}
104,694,2.8284271247461903,81.21576201698781,5.0990195135927845,7.615773105863909,22.56102834535696,22.36067977499789,24.515301344262525,39.56008088970496,32.01562118716424,30.0,25.0,39.0,8.0,6.0,4.0,2.0,3.1622776601683795,4.123105625617661,4.0,31.0,22.0,26.1725046566048,{}
105,695,2.8284271247461903,81.04936767180853,4.47213595499958,8.246211251235321,22.36067977499789,22.36067977499789,24.515301344262525,39.56008088970496,31.32091952673165,29.0,25.0,38.0,7.5,6.5,4.5,2.5,3.0,4.0,4.0,32.0,22.0,28.16025568065745,{}
106,696,2.23606797749979,80.06247560499239,4.123105625617661,8.246211251235321,22.56102834535696,22.36067977499789,24.515301344262525,38.3275357934736,30.083217912982647,28.5,24.0,37.0,6.5,6.5,4.5,0.5,4.0,5.0990195135927845,5.0,31.0,21.0,29.068883707497267,{}
107,697,2.0,77.10382610480494,4.123105625617661,7.615773105863909,23.345235059857504,23.345235059857504,24.186773244895647,36.1386219991853,28.635642126552707,28.0,24.0,37.0,6.5,4.5,5.5,1.5,5.0990195135927845,4.123105625617661,4.5,31.0,21.0,31.25699921617557,{}
108,698,1.0,82.87339742040264,4.123105625617661,8.54400374531753,23.345235059857504,24.33105012119288,23.194827009486403,35.90264614203248,27.459060435491963,27.0,24.0,36.0,7.0,5.0,6.0,2.0,6.082762530298219,6.082762530298219,6.5,30.0,22.0,30.14962686336267,{}
109,699,2.0,84.71717653463199,4.0,6.324555320336759,22.36067977499789,22.36067977499789,24.515301344262525,35.17101079013795,28.861739379323623,28.0,25.0,36.0,6.5,3.5,5.5,1.5,6.0,6.0,6.5,32.0,23.0,30.066592756745816,{}
110,700,2.23606797749979,89.67719888578144,4.123105625617661,8.246211251235321,26.1725046566048,26.30589287593181,22.09072203437452,35.6931365951495,27.459060435491963,26.5,22.0,33.0,5.5,7.5,3.5,1.5,6.0,7.0,6.5,29.0,22.0,33.015148038438355,{}
111,701,2.23606797749979,84.5931439302264,4.123105625617661,9.055385138137416,24.186773244895647,25.179356624028344,22.20360331117452,36.6742416417845,27.65863337187866,26.5,23.0,33.0,6.0,8.0,4.0,2.0,5.0,5.0990195135927845,5.0,31.0,24.0,32.0624390837628,{}
112,702,2.23606797749979,83.48652585896721,5.0990195135927845,8.06225774829855,24.33105012119288,25.179356624028344,22.02271554554524,36.345563690772494,28.284271247461906,27.5,24.0,33.0,6.5,7.5,3.5,0.5,3.1622776601683795,4.123105625617661,4.5,29.0,24.0,31.0,{}
113,703,2.23606797749979,87.36704184073076,5.0,8.246211251235321,26.1725046566048,25.179356624028344,22.20360331117452,37.48332962798263,29.27456233660889,28.0,25.0,33.0,7.0,8.0,3.0,2.0,3.0,4.123105625617661,4.0,28.0,24.0,32.0624390837628,{}
114,704,2.23606797749979,81.39410298049853,5.0990195135927845,8.246211251235321,24.08318915758459,24.08318915758459,22.36067977499789,37.8549864614954,29.61418578992169,28.0,25.0,33.0,7.0,8.0,2.0,2.0,4.0,4.123105625617661,4.0,29.0,24.0,30.01666203960727,{}
115,705,4.123105625617661,86.37129152675674,5.0990195135927845,10.04987562112089,24.186773244895647,26.0768096208106,22.09072203437452,41.30375285612676,31.25699921617557,29.0,25.0,33.0,7.0,12.0,0.0,2.0,5.0990195135927845,5.0990195135927845,4.5,29.0,25.0,28.0,{}
116,706,11.04536101718726,91.19758768739445,3.1622776601683795,9.219544457292889,26.1725046566048,26.0768096208106,22.09072203437452,45.39823785126467,36.22154055254967,30.5,26.0,32.0,7.0,16.0,5.0,3.0,1.4142135623730951,2.23606797749979,2.5,27.0,24.0,28.0178514522438,{}
117,707,11.04536101718726,89.08984229416954,3.1622776601683795,9.055385138137416,24.08318915758459,26.019223662515376,22.02271554554524,45.17742799230607,36.12478373637688,30.5,26.0,30.0,6.0,17.0,6.0,3.0,5.0,5.0990195135927845,5.0,28.0,27.0,28.0178514522438,{}
118,708,9.055385138137416,89.08984229416954,4.123105625617661,9.055385138137416,26.1725046566048,26.019223662515376,24.08318915758459,46.2709412050371,37.21558813185679,32.5,28.0,32.0,6.0,16.0,4.0,2.0,4.123105625617661,4.0,4.0,27.0,27.0,29.017236257093817,{}
119,709,10.198039027185567,88.05112151472007,4.0,7.071067811865476,24.08318915758459,25.019992006393608,22.09072203437452,43.28972164382672,36.22154055254967,31.0,27.0,30.0,6.5,14.5,5.5,2.5,3.0,3.0,2.5,27.0,28.0,27.0,{}
120,710,7.071067811865476,87.09190547921202,4.0,8.06225774829855,24.08318915758459,24.020824298928627,24.186773244895647,43.28972164382672,35.22782990761707,31.5,27.0,31.0,5.0,14.0,4.0,1.0,1.4142135623730951,1.0,1.0,25.0,27.0,24.020824298928627,{}
121,711,2.23606797749979,84.0535543567314,3.1622776601683795,7.0,23.08679276123039,23.0,26.0768096208106,38.2099463490856,31.25699921617557,30.0,28.0,31.0,3.5,8.5,0.5,0.5,8.06225774829855,8.06225774829855,8.0,23.0,25.0,25.019992006393608,{}
122,712,0.0,77.05841939723393,3.0,7.071067811865476,21.095023109728988,22.02271554554524,25.179356624028344,35.22782990761707,28.16025568065745,28.0,27.0,30.0,3.5,6.5,1.5,0.5,7.0,6.082762530298219,6.5,25.0,28.0,25.019992006393608,{}
123,713,0.0,80.05623023850174,4.123105625617661,7.071067811865476,22.02271554554524,22.02271554554524,25.179356624028344,36.345563690772494,29.27456233660889,29.0,28.0,31.0,4.5,6.5,2.5,1.5,8.0,7.0,7.5,28.0,29.0,21.0,{}
124,714,1.0,79.1012010022604,4.123105625617661,9.055385138137416,22.09072203437452,22.02271554554524,24.186773244895647,38.3275357934736,29.27456233660889,28.5,28.0,32.0,6.0,8.0,2.0,2.0,7.0,6.0,6.5,27.0,28.0,24.020824298928627,{}
125,715,1.0,79.1580697086532,5.0,9.055385138137416,22.09072203437452,23.08679276123039,25.179356624028344,39.319206502675,30.26549190084312,30.0,28.0,33.0,5.5,8.5,2.5,1.5,7.0,6.082762530298219,6.0,28.0,27.0,24.020824298928627,{}
126,716,1.4142135623730951,79.1012010022604,5.0,9.055385138137416,22.02271554554524,23.08679276123039,25.179356624028344,40.311288741492746,31.25699921617557,30.5,29.0,33.0,6.0,9.0,2.0,2.0,4.0,4.0,4.0,25.0,27.0,25.0,{}
127,717,2.23606797749979,85.09406559801923,4.0,8.06225774829855,23.08679276123039,24.08318915758459,24.186773244895647,37.48332962798263,29.42787793912432,28.5,26.0,30.0,4.0,9.0,1.0,1.0,6.0,6.0,6.0,28.0,27.0,25.019992006393608,{}
128,718,1.0,87.14355971613737,4.0,9.055385138137416,24.08318915758459,25.079872407968907,24.186773244895647,37.33630940518894,28.284271247461906,28.0,25.0,30.0,3.5,9.5,1.5,0.5,8.06225774829855,7.0,6.5,27.0,26.0,27.018512172212592,{}
129,719,2.0,84.1486779456457,4.0,9.055385138137416,23.08679276123039,24.08318915758459,24.08318915758459,37.33630940518894,28.284271247461906,28.0,25.0,30.0,3.5,9.5,1.5,0.5,3.0,3.0,2.5,26.0,26.0,28.0713376952364,{}
130,720,2.0,88.2779700718135,4.0,9.219544457292889,24.08318915758459,24.08318915758459,24.186773244895647,37.65634076752546,28.442925306655784,28.0,24.0,31.0,3.5,9.5,1.5,0.5,3.1622776601683795,4.0,3.5,26.0,26.0,27.0,{}
131,721,1.4142135623730951,78.23042886243178,5.0,10.04987562112089,23.08679276123039,23.08679276123039,25.179356624028344,41.30375285612676,31.25699921617557,30.5,27.0,33.0,5.0,11.0,1.0,1.0,4.123105625617661,5.0,5.0,27.0,26.0,30.01666203960727,{}
132,722,5.0990195135927845,82.21921916437786,4.0,10.04987562112089,25.079872407968907,26.0768096208106,24.186773244895647,43.28972164382672,33.24154027718932,30.5,27.0,33.0,6.0,13.0,0.0,2.0,4.0,4.123105625617661,4.0,25.0,24.0,24.0,{}
133,723,2.8284271247461903,80.22468448052632,4.0,9.055385138137416,23.08679276123039,24.08318915758459,25.079872407968907,40.311288741492746,31.25699921617557,30.0,27.0,33.0,5.0,10.0,1.0,1.0,5.0990195135927845,6.0,6.5,26.0,27.0,31.016124838541646,{}
134,724,1.4142135623730951,80.15609770940699,5.0,9.055385138137416,24.020824298928627,25.079872407968907,25.179356624028344,40.311288741492746,31.25699921617557,30.5,28.0,33.0,5.5,9.5,1.5,1.5,6.082762530298219,6.0,6.5,27.0,25.0,33.0,{}
135,725,2.23606797749979,82.15229759416349,4.0,9.055385138137416,23.021728866442675,24.08318915758459,27.073972741361768,41.30375285612676,32.2490309931942,31.5,29.0,34.0,4.5,9.5,1.5,1.5,6.082762530298219,7.0,6.5,27.0,25.0,31.0,{}
136,726,1.0,81.09870529176159,5.0990195135927845,9.219544457292889,22.02271554554524,23.08679276123039,27.073972741361768,41.43669871020132,32.2490309931942,32.0,31.0,35.0,6.0,8.0,3.0,2.0,5.0990195135927845,6.082762530298219,6.0,25.0,25.0,30.01666203960727,{}
137,727,6.082762530298219,79.1012010022604,5.0,9.055385138137416,21.02379604162864,22.02271554554524,27.16615541441225,47.265209192385896,38.2099463490856,35.0,32.0,36.0,7.0,13.0,2.0,3.0,4.0,5.0990195135927845,5.0,27.0,28.0,30.01666203960727,{}
138,728,7.071067811865476,81.05553651663777,5.0990195135927845,11.04536101718726,22.09072203437452,23.021728866442675,25.079872407968907,48.25971404805462,37.21558813185679,33.5,32.0,35.0,8.5,14.5,1.5,3.5,3.0,3.1622776601683795,3.5,28.0,29.0,31.064449134018133,{}
139,729,9.055385138137416,83.05419917138447,4.0,10.04987562112089,23.021728866442675,23.021728866442675,26.1725046566048,49.25444142409901,39.20459156782532,34.5,32.0,35.0,7.5,15.5,4.5,3.5,3.0,4.123105625617661,4.0,27.0,29.0,32.0624390837628,{}
140,730,9.055385138137416,84.0535543567314,4.0,8.06225774829855,22.09072203437452,24.020824298928627,25.079872407968907,46.17358552246078,38.11823710509184,33.5,31.0,34.0,7.5,13.5,3.5,3.5,5.0990195135927845,6.0,6.0,28.0,30.0,33.06055050963308,{}
141,731,8.06225774829855,86.02325267042627,4.0,9.055385138137416,23.021728866442675,24.020824298928627,25.079872407968907,46.17358552246078,37.12142238654117,33.0,32.0,34.0,8.0,13.0,3.0,4.0,6.082762530298219,6.082762530298219,6.0,26.0,29.0,33.015148038438355,{}
142,732,5.0990195135927845,87.00574693662483,5.0,10.0,23.021728866442675,25.019992006393608,26.0768096208106,46.09772228646444,36.12478373637688,33.5,33.0,34.0,7.5,12.5,1.5,3.5,6.0,7.071067811865476,7.0,26.0,29.0,32.0624390837628,{}
143,733,5.0990195135927845,85.05292469985967,4.0,9.055385138137416,23.08679276123039,23.021728866442675,25.079872407968907,43.18564576337837,34.132096331752024,31.5,31.0,34.0,7.5,10.5,0.5,3.5,6.0,6.0,6.5,25.0,28.0,31.064449134018133,{}
144,734,1.4142135623730951,80.02499609497022,4.0,8.06225774829855,21.095023109728988,22.09072203437452,25.079872407968907,38.2099463490856,30.14962686336267,29.5,31.0,33.0,7.0,6.0,4.0,3.0,6.082762530298219,6.0,6.5,26.0,29.0,33.13608305156178,{}
145,735,1.0,85.05292469985967,3.0,7.071067811865476,24.020824298928627,24.0,25.0,35.05709628591621,28.0178514522438,28.0,29.0,32.0,5.5,4.5,3.5,3.5,6.082762530298219,6.0,6.0,25.0,28.0,29.068883707497267,{}
146,736,2.0,79.05694150420949,4.123105625617661,7.071067811865476,22.09072203437452,22.02271554554524,25.019992006393608,38.11823710509184,31.064449134018133,30.0,31.0,34.0,7.5,5.5,2.5,3.5,6.082762530298219,6.0,6.0,25.0,29.0,30.066592756745816,{}
147,737,5.0990195135927845,82.02438661763951,4.0,8.06225774829855,23.021728866442675,24.020824298928627,25.079872407968907,42.190046219457976,34.132096331752024,31.5,32.0,34.0,8.0,9.0,1.0,5.0,5.0990195135927845,6.0,6.0,25.0,29.0,29.068883707497267,{}
148,738,1.0,82.05485969764375,4.123105625617661,7.071067811865476,24.08318915758459,23.021728866442675,25.0,37.05401462729781,30.01666203960727,29.5,31.0,34.0,7.5,4.5,3.5,3.5,6.0,6.0,6.5,25.0,29.0,31.064449134018133,{}
149,739,1.0,80.02499609497022,5.0,8.0,23.021728866442675,23.021728866442675,24.0,37.01351104664349,29.017236257093817,29.0,31.0,33.0,8.0,5.0,4.0,4.0,6.082762530298219,7.0,7.0,25.0,30.0,32.14031735997639,{}
150,740,2.0,81.02468759581859,4.0,8.06225774829855,23.021728866442675,23.021728866442675,25.079872407968907,39.11521443121589,31.064449134018133,30.0,31.0,33.0,7.0,7.0,3.0,4.0,6.0,6.082762530298219,6.5,23.0,29.0,32.0624390837628,{}
151,741,3.1622776601683795,82.05485969764375,5.0,7.071067811865476,24.08318915758459,24.020824298928627,25.019992006393608,40.11234224026316,33.06055050963308,31.5,32.0,35.0,8.5,6.5,2.5,3.5,5.0990195135927845,6.082762530298219,6.0,23.0,29.0,28.0713376952364,{}
152,742,5.0990195135927845,85.0235261559999,4.123105625617661,7.0,22.02271554554524,23.021728866442675,24.08318915758459,40.049968789001575,33.06055050963308,30.5,32.0,34.0,9.0,7.0,1.0,5.0,7.071067811865476,7.0,7.0,25.0,30.0,30.14962686336267,{}
153,743,6.324555320336759,85.0235261559999,4.0,6.0,23.08679276123039,24.0,24.020824298928627,40.11234224026316,34.132096331752024,31.0,32.0,34.0,9.0,7.0,1.0,5.0,7.071067811865476,7.071067811865476,7.0,24.0,30.0,29.154759474226505,{}
154,744,6.082762530298219,83.02409288875127,5.0,8.0,23.021728866442675,23.0,23.08679276123039,42.1070065428546,34.132096331752024,31.0,32.0,34.0,10.0,9.0,1.0,6.0,6.082762530298219,7.071067811865476,6.5,23.0,30.0,31.25699921617557,{}
155,745,4.123105625617661,85.00588214941364,5.0,7.0,23.021728866442675,23.021728866442675,23.021728866442675,39.05124837953327,32.0624390837628,30.0,32.0,33.0,9.5,6.5,1.5,5.5,6.082762530298219,7.071067811865476,7.0,23.0,30.0,30.26549190084312,{}
156,746,2.23606797749979,80.0,6.0,10.0,22.0,22.0,24.08318915758459,42.1070065428546,32.14031735997639,31.0,32.0,32.0,8.0,10.0,1.0,3.0,7.071067811865476,7.071067811865476,7.5,24.0,31.0,29.154759474226505,{}
157,747,0.0,80.00624975587844,4.123105625617661,8.0,21.02379604162864,22.0,26.019223662515376,38.0,30.0,30.0,32.0,31.0,5.5,6.5,2.5,2.5,7.071067811865476,7.0,7.5,22.0,31.0,30.26549190084312,{}
158,748,1.4142135623730951,80.02499609497022,4.0,8.0,21.0,22.0,26.0,39.01281840626232,31.016124838541646,30.5,32.0,30.0,5.0,8.0,2.0,2.0,7.071067811865476,7.071067811865476,7.5,23.0,31.0,29.27456233660889,{}
159,749,3.1622776601683795,75.02666192761077,5.0,9.0,21.0,22.0,26.0768096208106,43.10452412450461,34.132096331752024,32.5,34.0,32.0,7.0,10.0,0.0,3.0,7.071067811865476,6.082762530298219,6.5,24.0,31.0,30.14962686336267,{}
160,750,8.06225774829855,81.02468759581859,4.0,11.0,21.0,23.0,25.0,48.010415536631214,37.01351104664349,33.0,36.0,34.0,10.0,13.0,1.0,6.0,7.071067811865476,7.071067811865476,7.5,23.0,31.0,29.154759474226505,{}
161,751,14.0356688476182,83.00602387778854,5.0,11.0,25.0,27.0,26.019223662515376,56.0357029044876,45.044422518220834,38.0,38.0,37.0,11.5,18.5,5.5,7.5,7.071067811865476,8.0,7.5,25.0,31.0,31.064449134018133,{}
162,752,8.06225774829855,84.00595217006948,5.0,11.0,23.0,23.0,25.079872407968907,49.09175083453431,38.11823710509184,34.0,37.0,36.0,11.5,12.5,1.5,6.5,6.082762530298219,6.082762530298219,6.0,23.0,29.0,29.154759474226505,{}
163,753,6.082762530298219,83.0,4.0,9.055385138137416,22.02271554554524,23.021728866442675,25.079872407968907,44.04543109109048,35.12833614050059,32.0,35.0,35.0,10.0,9.0,1.0,6.0,7.071067811865476,6.0,6.5,24.0,30.0,29.154759474226505,{}
164,754,4.123105625617661,83.02409288875127,4.0,9.0,23.08679276123039,24.020824298928627,25.079872407968907,42.1070065428546,33.13608305156178,31.0,34.0,36.0,10.0,7.0,4.0,6.0,6.082762530298219,7.071067811865476,6.5,25.0,30.0,31.14482300479488,{}
165,755,2.0,80.02499609497022,4.0,9.055385138137416,24.08318915758459,24.020824298928627,25.019992006393608,40.049968789001575,31.016124838541646,30.0,32.0,34.0,8.0,7.0,4.0,4.0,6.082762530298219,5.0,6.0,23.0,29.0,29.068883707497267,{}
166,756,2.0,79.00632886041473,5.0990195135927845,9.055385138137416,23.021728866442675,23.021728866442675,25.019992006393608,41.10960958218893,32.0624390837628,31.0,33.0,34.0,8.5,7.5,2.5,4.5,6.082762530298219,6.0,7.0,24.0,30.0,30.14962686336267,{}
167,757,5.385164807134504,80.05623023850174,5.0,7.0,22.09072203437452,23.021728866442675,24.08318915758459,41.19465984809196,34.23448553724738,31.5,32.0,35.0,9.5,7.5,1.5,4.5,6.0,6.082762530298219,6.0,25.0,30.0,30.066592756745816,{}
168,758,5.0990195135927845,81.05553651663777,5.0,7.071067811865476,22.09072203437452,23.021728866442675,24.08318915758459,41.19465984809196,34.132096331752024,31.5,32.0,35.0,9.5,7.5,1.5,4.5,5.0990195135927845,6.082762530298219,6.5,25.0,30.0,30.14962686336267,{}
169,759,3.1622776601683795,79.05694150420949,5.0990195135927845,7.071067811865476,22.09072203437452,22.02271554554524,24.08318915758459,39.319206502675,32.2490309931942,30.5,31.0,34.0,8.5,6.5,2.5,3.5,6.082762530298219,6.082762530298219,6.5,25.0,29.0,28.16025568065745,{}
170,760,1.4142135623730951,81.09870529176159,6.0,8.06225774829855,23.08679276123039,23.08679276123039,24.08318915758459,39.20459156782532,31.14482300479488,30.5,30.0,34.0,8.0,7.0,3.0,2.0,6.0,7.071067811865476,7.5,25.0,29.0,31.064449134018133,{}
171,761,1.4142135623730951,80.05623023850174,6.082762530298219,8.06225774829855,22.09072203437452,23.021728866442675,23.08679276123039,38.3275357934736,30.26549190084312,29.5,30.0,33.0,8.5,6.5,3.5,2.5,6.082762530298219,7.0,7.0,25.0,29.0,31.064449134018133,{}
172,762,2.23606797749979,81.09870529176159,5.0,7.071067811865476,23.08679276123039,22.09072203437452,24.186773244895647,38.3275357934736,31.25699921617557,30.0,30.0,34.0,8.0,6.0,3.0,3.0,6.0,6.0,6.5,25.0,28.0,29.017236257093817,{}
173,763,1.4142135623730951,81.09870529176159,5.0990195135927845,7.071067811865476,22.09072203437452,22.02271554554524,25.079872407968907,38.3275357934736,31.25699921617557,30.5,30.0,34.0,7.0,6.0,3.0,2.0,6.082762530298219,6.0,6.5,25.0,28.0,30.066592756745816,{}
174,764,1.0,81.05553651663777,6.0,7.071067811865476,23.08679276123039,23.021728866442675,24.08318915758459,37.21558813185679,30.14962686336267,30.0,30.0,33.0,7.5,5.5,3.5,2.5,5.0990195135927845,6.082762530298219,6.5,24.0,28.0,31.064449134018133,{}
175,765,1.4142135623730951,81.05553651663777,5.0,8.06225774829855,22.09072203437452,23.021728866442675,25.079872407968907,39.20459156782532,31.14482300479488,30.5,31.0,34.0,7.5,6.5,2.5,2.5,6.0,6.0,6.0,26.0,28.0,32.0624390837628,{}
176,766,2.23606797749979,84.02380615040002,5.0990195135927845,8.0,23.08679276123039,24.020824298928627,24.08318915758459,39.20459156782532,31.25699921617557,30.0,31.0,33.0,8.0,7.0,2.0,3.0,6.082762530298219,7.0,7.0,25.0,29.0,31.064449134018133,{}
177,767,4.123105625617661,87.02298546935747,5.0,8.0,23.021728866442675,24.0,24.08318915758459,41.10960958218893,33.13608305156178,31.0,30.0,32.0,7.0,10.0,0.0,3.0,5.0990195135927845,6.0,6.0,24.0,29.0,31.14482300479488,{}
178,768,2.23606797749979,87.05170877128145,6.0,9.0,23.021728866442675,24.0,25.019992006393608,42.04759208325728,33.06055050963308,32.0,31.0,34.0,7.5,9.5,0.5,2.5,6.0,7.0,7.0,25.0,29.0,32.0624390837628,{}
179,769,3.1622776601683795,88.02272433866155,5.0,7.0,23.021728866442675,24.020824298928627,24.08318915758459,39.11521443121589,32.14031735997639,30.5,30.0,32.0,7.0,8.0,0.0,3.0,6.082762530298219,7.071067811865476,6.5,25.0,29.0,26.30589287593181,{}
180,770,2.23606797749979,87.02298546935747,7.0,7.0,24.020824298928627,25.019992006393608,23.08679276123039,39.11521443121589,32.14031735997639,31.0,29.0,31.0,7.0,9.0,0.0,1.0,7.0,7.071067811865476,7.0,25.0,30.0,30.14962686336267,{}
181,771,1.4142135623730951,84.02380615040002,6.0,8.06225774829855,24.020824298928627,23.0,24.0,39.05124837953327,31.016124838541646,30.5,29.0,31.0,6.0,9.0,1.0,1.0,6.082762530298219,6.082762530298219,6.0,25.0,31.0,31.064449134018133,{}
182,772,1.0,88.0056816347672,7.0,9.055385138137416,23.021728866442675,24.0,23.021728866442675,40.049968789001575,31.016124838541646,30.5,29.0,30.0,6.5,10.5,0.5,0.5,6.082762530298219,6.082762530298219,6.5,24.0,31.0,31.25699921617557,{}
183,773,1.4142135623730951,82.02438661763951,5.0990195135927845,8.06225774829855,23.021728866442675,24.020824298928627,23.0,37.12142238654117,29.068883707497267,28.5,28.0,30.0,6.0,8.0,1.0,2.0,6.082762530298219,7.071067811865476,7.0,24.0,30.0,30.14962686336267,{}
184,774,1.4142135623730951,87.0,5.0,8.0,25.019992006393608,25.0,24.020824298928627,38.05259518088089,30.066592756745816,29.5,30.0,30.0,6.0,8.0,1.0,2.0,5.0990195135927845,6.082762530298219,6.0,22.0,28.0,28.16025568065745,{}
185,775,3.1622776601683795,87.00574693662483,4.0,8.0,24.020824298928627,24.020824298928627,24.0,39.01281840626232,31.016124838541646,29.5,30.0,29.0,5.5,9.5,0.5,1.5,6.082762530298219,7.071067811865476,7.0,22.0,30.0,31.25699921617557,{}
186,776,1.4142135623730951,87.0,5.0990195135927845,8.0,23.021728866442675,24.0,23.0,37.0,29.0,28.5,28.0,28.0,5.0,9.0,0.0,1.0,6.082762530298219,6.082762530298219,6.5,23.0,30.0,29.27456233660889,{}
187,777,2.23606797749979,90.00555538409837,5.0,9.0,25.019992006393608,25.0,23.0,39.01281840626232,30.01666203960727,29.0,29.0,28.0,5.5,10.5,0.5,1.5,6.082762530298219,6.082762530298219,6.5,22.0,30.0,30.14962686336267,{}
188,778,2.23606797749979,90.00555538409837,5.0990195135927845,8.0,25.0,25.019992006393608,23.021728866442675,38.01315561749642,30.01666203960727,29.0,29.0,28.0,5.5,9.5,0.5,1.5,5.0990195135927845,6.082762530298219,6.5,20.0,29.0,28.284271247461906,{}
189,779,2.23606797749979,90.00555538409837,4.0,8.0,25.019992006393608,25.0,24.020824298928627,38.05259518088089,30.066592756745816,29.0,30.0,29.0,5.5,8.5,1.5,2.5,6.082762530298219,6.082762530298219,6.0,22.0,30.0,28.16025568065745,{}
190,780,2.23606797749979,89.02246907382428,4.0,7.0,25.0,25.0,24.0,37.01351104664349,30.01666203960727,29.0,30.0,28.0,5.0,8.0,0.0,2.0,6.0,7.071067811865476,7.0,22.0,30.0,28.16025568065745,{}
191,781,2.23606797749979,89.02246907382428,4.0,7.0,24.0,24.0,24.020824298928627,37.0,30.0,29.0,30.0,28.0,5.0,8.0,0.0,2.0,5.0990195135927845,6.082762530298219,6.0,20.0,28.0,30.14962686336267,{}
192,782,2.23606797749979,88.05112151472007,4.0,8.06225774829855,25.0,25.0,23.021728866442675,37.01351104664349,29.068883707497267,28.0,30.0,27.0,5.5,8.5,0.5,2.5,6.082762530298219,6.082762530298219,6.0,21.0,30.0,30.14962686336267,{}
193,783,2.23606797749979,91.0494371207203,4.123105625617661,7.0,25.0,24.0,23.0,36.0,29.0,28.0,29.0,26.0,4.5,8.5,0.5,1.5,6.082762530298219,5.0990195135927845,5.5,22.0,30.0,27.16615541441225,{}
194,784,2.23606797749979,90.0499861188218,4.0,8.0,24.0,25.0,23.021728866442675,37.0,29.0,28.0,30.0,27.0,5.5,8.5,0.5,2.5,6.324555320336759,6.082762530298219,6.0,20.0,29.0,29.27456233660889,{}
195,785,2.23606797749979,88.05112151472007,4.123105625617661,6.0,25.019992006393608,25.019992006393608,23.0,35.0,29.0,28.0,30.0,27.0,5.5,6.5,0.5,3.5,6.324555320336759,6.082762530298219,6.5,21.0,30.0,25.317977802344327,{}
196,786,1.4142135623730951,91.0494371207203,4.123105625617661,8.06225774829855,25.0,26.0,23.0,36.013886210738214,28.0,27.5,29.0,26.0,4.5,8.5,0.5,2.5,7.280109889280518,6.082762530298219,6.5,22.0,31.0,29.27456233660889,{}
197,787,1.4142135623730951,90.0499861188218,4.123105625617661,8.06225774829855,25.0,25.019992006393608,23.0,36.013886210738214,28.0,27.5,29.0,26.0,4.5,8.5,0.5,2.5,6.082762530298219,6.0,6.0,21.0,31.0,30.26549190084312,{}
198,788,2.0,90.08884503644168,3.0,7.0,24.020824298928627,24.020824298928627,24.08318915758459,36.05551275463989,29.068883707497267,28.0,30.0,26.0,4.0,8.0,0.0,2.0,5.0990195135927845,6.082762530298219,6.0,20.0,31.0,27.29468812791236,{}
199,789,2.0,85.14693182963201,4.123105625617661,8.06225774829855,23.021728866442675,23.021728866442675,22.0,36.05551275463989,28.0178514522438,27.0,30.0,25.0,5.5,8.5,0.5,2.5,4.47213595499958,5.0990195135927845,5.5,21.0,34.0,27.459060435491963,{}
200,790,3.0,83.2946576918352,4.123105625617661,8.06225774829855,23.08679276123039,23.08679276123039,23.021728866442675,38.11823710509184,30.066592756745816,28.5,31.0,24.0,4.5,10.5,1.5,2.5,4.47213595499958,4.123105625617661,4.0,19.0,36.0,27.65863337187866,{}
201,791,2.23606797749979,89.67719888578144,6.324555320336759,9.219544457292889,26.1725046566048,25.179356624028344,21.095023109728988,38.63935817272331,29.42787793912432,28.0,31.0,20.0,4.5,12.5,3.5,1.5,4.242640687119285,3.605551275463989,3.0,15.0,37.0,30.80584360149873,{}
202,792,2.23606797749979,91.2414379544733,6.082762530298219,9.219544457292889,26.1725046566048,26.30589287593181,22.36067977499789,39.05124837953327,29.8328677803526,28.5,32.0,17.0,2.5,13.5,4.5,0.5,4.242640687119285,4.47213595499958,4.0,12.0,37.0,32.01562118716424,{}
203,793,3.1622776601683795,91.59148432032316,5.385164807134504,9.486832980505138,24.186773244895647,25.317977802344327,22.36067977499789,40.26164427839479,30.80584360149873,28.5,33.0,16.0,2.5,14.5,6.5,0.5,3.605551275463989,3.605551275463989,2.0,13.0,39.0,29.120439557122072,{}
204,794,2.23606797749979,91.78235124467012,6.324555320336759,7.615773105863909,26.30589287593181,26.476404589747453,22.56102834535696,38.60051813123757,31.04834939252005,29.0,34.0,16.0,3.0,12.0,5.0,1.0,5.0,3.605551275463989,2.5,11.0,37.0,26.570660511172846,{}
205,795,2.23606797749979,91.98369420718,6.082762530298219,8.246211251235321,25.317977802344327,26.476404589747453,22.56102834535696,38.3275357934736,30.083217912982647,28.5,33.0,14.0,1.5,13.5,5.5,0.5,5.0,3.605551275463989,2.5,14.0,41.0,31.6227766016838,{}
206,796,3.605551275463989,91.21951545584967,5.0990195135927845,7.615773105863909,25.317977802344327,26.476404589747453,21.840329667841555,37.33630940518894,29.73213749463701,27.0,33.0,13.0,2.0,12.0,6.0,1.0,4.47213595499958,3.605551275463989,2.5,11.0,40.0,30.675723300355934,{}
207,797,2.23606797749979,92.19544457292888,5.385164807134504,8.54400374531753,25.495097567963924,26.476404589747453,22.80350850198276,38.27531841800928,29.73213749463701,27.5,34.0,14.0,2.0,12.0,5.0,1.0,6.4031242374328485,5.0,4.0,13.0,41.0,29.73213749463701,{}
208,798,3.1622776601683795,89.05054744357274,5.0990195135927845,8.246211251235321,25.317977802344327,25.495097567963924,22.80350850198276,37.94733192202055,29.73213749463701,27.5,34.0,15.0,2.5,11.5,4.5,0.5,5.0,4.47213595499958,4.0,11.0,39.0,30.083217912982647,{}
209,799,2.23606797749979,90.02777349240623,3.605551275463989,6.324555320336759,25.317977802344327,25.495097567963924,24.73863375370596,34.17601498127012,27.85677655436824,26.5,35.0,16.0,1.5,6.5,1.5,1.5,5.830951894845301,5.385164807134504,5.0,12.0,40.0,30.364452901377952,{}
210,800,2.23606797749979,88.64536084872124,3.605551275463989,8.246211251235321,25.317977802344327,26.476404589747453,24.515301344262525,35.73513677041127,27.51363298439521,26.5,35.0,18.0,2.5,7.5,0.5,2.5,5.830951894845301,5.0990195135927845,5.0,12.0,40.0,31.32091952673165,{}
211,801,3.1622776601683795,87.66413177577246,4.47213595499958,8.54400374531753,25.179356624028344,26.30589287593181,23.53720459187964,39.56008088970496,31.04834939252005,28.5,36.0,19.0,4.5,10.5,3.5,3.5,6.708203932499369,6.324555320336759,5.5,12.0,39.0,30.364452901377952,{}
212,802,12.16552506059644,86.88498144098322,3.605551275463989,9.486832980505138,25.317977802344327,25.495097567963924,23.53720459187964,48.507731342539614,39.05124837953327,32.0,38.0,20.0,6.0,18.0,9.0,6.0,6.708203932499369,6.708203932499369,5.5,14.0,41.0,32.57299494980466,{}
213,803,12.36931687685298,88.64536084872124,4.123105625617661,10.44030650891055,25.495097567963924,26.476404589747453,22.80350850198276,49.72926703662542,39.293765408777,32.0,37.0,20.0,6.5,19.5,10.5,6.5,6.4031242374328485,6.324555320336759,5.5,13.0,41.0,30.083217912982647,{}
214,804,13.341664064126334,87.86353054595519,3.1622776601683795,9.219544457292889,26.1725046566048,26.476404589747453,23.53720459187964,49.24428900898052,40.024992192379,32.5,38.0,20.0,6.0,19.0,10.0,6.0,4.242640687119285,3.605551275463989,3.0,14.0,40.0,31.78049716414141,{}
215,805,13.152946437965904,89.44271909999159,3.1622776601683795,9.486832980505138,25.317977802344327,26.30589287593181,23.53720459187964,49.24428900898052,39.81205847478876,32.5,36.0,20.0,5.0,20.0,12.0,5.0,4.242640687119285,3.605551275463989,3.0,15.0,39.0,30.80584360149873,{}
216,806,14.0356688476182,92.39588735436226,3.605551275463989,8.54400374531753,25.179356624028344,26.30589287593181,22.36067977499789,48.05205510693585,39.6232255123179,32.0,38.0,22.0,8.0,17.0,9.0,7.0,5.385164807134504,5.0990195135927845,5.0,14.0,40.0,29.410882339705484,{}
217,807,8.246211251235321,87.96590248499699,5.0990195135927845,8.246211251235321,25.079872407968907,24.33105012119288,23.194827009486403,44.7213595499958,36.49657518178932,32.0,38.0,25.0,8.5,12.5,4.5,6.5,4.242640687119285,5.0,4.0,15.0,38.0,30.364452901377952,{}
218,808,2.0,87.69264507357501,4.47213595499958,8.54400374531753,24.08318915758459,25.079872407968907,23.194827009486403,37.8549864614954,29.42787793912432,28.0,35.0,24.0,6.5,7.5,0.5,4.5,4.242640687119285,4.47213595499958,4.0,15.0,37.0,28.16025568065745,{}
219,809,0.0,84.5931439302264,5.385164807134504,8.06225774829855,23.194827009486403,23.194827009486403,24.08318915758459,37.33630940518894,29.27456233660889,29.0,35.0,25.0,6.0,7.0,1.0,4.0,5.830951894845301,4.47213595499958,4.0,16.0,37.0,28.861739379323623,{}
220,810,2.23606797749979,83.72574275573791,4.123105625617661,7.071067811865476,23.08679276123039,24.186773244895647,24.020824298928627,37.21558813185679,30.14962686336267,29.0,36.0,25.0,6.5,6.5,0.5,4.5,5.0,4.123105625617661,4.0,17.0,38.0,31.575306807693888,{}
221,811,1.0,81.49846624323675,5.0990195135927845,9.055385138137416,24.020824298928627,24.186773244895647,24.020824298928627,39.11521443121589,30.066592756745816,29.5,35.0,26.0,6.5,8.5,0.5,3.5,5.0,5.385164807134504,5.0,17.0,36.0,30.80584360149873,{}
222,812,1.0,85.47514258543241,5.0990195135927845,8.06225774829855,23.08679276123039,24.186773244895647,23.0,37.05401462729781,29.017236257093817,28.5,36.0,27.0,8.5,5.5,2.5,5.5,5.385164807134504,4.123105625617661,4.5,18.0,33.0,29.27456233660889,{}
223,813,1.4142135623730951,83.48652585896721,5.0990195135927845,8.06225774829855,23.08679276123039,22.20360331117452,22.02271554554524,36.0,28.0178514522438,27.5,35.0,26.0,8.5,5.5,1.5,5.5,7.280109889280518,7.071067811865476,7.0,18.0,33.0,29.42787793912432,{}
224,814,2.23606797749979,85.37564055396598,4.0,8.06225774829855,24.08318915758459,24.186773244895647,24.020824298928627,38.01315561749642,30.066592756745816,29.0,34.0,26.0,6.0,8.0,0.0,4.0,6.324555320336759,6.082762530298219,6.0,19.0,32.0,29.42787793912432,{}
225,815,0.0,85.05292469985967,4.0,9.055385138137416,23.0,23.021728866442675,24.0,37.01351104664349,28.0,28.0,33.0,30.0,7.5,5.5,3.5,4.5,6.324555320336759,6.082762530298219,6.0,20.0,31.0,30.26549190084312,{}
226,816,1.0,77.0,4.0,8.0,22.02271554554524,22.02271554554524,26.019223662515376,39.01281840626232,31.016124838541646,30.5,33.0,33.0,7.0,6.0,3.0,4.0,6.324555320336759,7.071067811865476,7.0,24.0,30.0,32.2490309931942,{}
227,817,6.324555320336759,79.05694150420949,4.0,8.0,22.09072203437452,24.020824298928627,25.079872407968907,43.18564576337837,35.22782990761707,32.0,33.0,36.0,9.5,8.5,1.5,5.5,5.0990195135927845,6.0,6.0,25.0,28.0,31.016124838541646,{}
228,818,2.23606797749979,80.39900496896712,5.0990195135927845,8.246211251235321,22.09072203437452,22.20360331117452,25.079872407968907,40.44749683231337,32.2490309931942,31.0,30.0,38.0,9.0,6.0,4.0,4.0,7.0,7.071067811865476,7.5,28.0,25.0,30.01666203960727,{}
229,819,1.4142135623730951,75.66372975210778,5.0990195135927845,9.219544457292889,23.194827009486403,23.194827009486403,25.317977802344327,40.79215610874228,31.575306807693888,30.5,28.0,38.0,8.0,7.0,4.0,3.0,4.0,4.123105625617661,4.0,29.0,23.0,31.016124838541646,{}
230,820,1.0,77.92945527847606,5.385164807134504,9.219544457292889,22.36067977499789,23.345235059857504,25.317977802344327,40.024992192379,30.80584360149873,30.0,26.0,38.0,7.0,7.0,4.0,1.0,3.0,3.605551275463989,3.0,32.0,23.0,29.154759474226505,{}
231,821,2.23606797749979,78.44743462982075,5.385164807134504,9.219544457292889,22.56102834535696,23.53720459187964,25.179356624028344,41.0,31.78049716414141,30.5,26.0,41.0,8.5,6.5,5.5,2.5,2.23606797749979,2.8284271247461903,2.0,33.0,21.0,29.27456233660889,{}
232,822,2.23606797749979,78.64477096412705,5.385164807134504,9.486832980505138,21.587033144922906,22.56102834535696,26.476404589747453,42.72001872658765,33.24154027718932,31.5,26.0,42.0,8.0,7.0,5.0,2.0,4.123105625617661,5.385164807134504,4.5,33.0,18.0,29.27456233660889,{}
233,823,2.0,76.68767828015137,4.47213595499958,8.94427190999916,21.37755832643195,21.587033144922906,27.459060435491963,41.10960958218893,32.28002478313795,31.0,26.0,42.0,7.0,5.0,6.0,2.0,6.0,6.324555320336759,6.0,34.0,19.0,26.30589287593181,{}
234,824,2.0,80.8084154033477,6.324555320336759,9.486832980505138,22.56102834535696,22.56102834535696,27.459060435491963,43.68065933568311,34.20526275297414,33.0,26.0,43.0,7.5,7.5,5.5,1.5,4.47213595499958,5.385164807134504,5.0,35.0,18.0,28.442925306655784,{}
235,825,2.23606797749979,77.87810988975015,5.385164807134504,10.44030650891055,22.80350850198276,22.56102834535696,26.476404589747453,43.68065933568311,33.24154027718932,31.5,25.0,42.0,7.5,8.5,5.5,0.5,5.385164807134504,6.324555320336759,6.0,35.0,18.0,28.635642126552707,{}
236,826,2.8284271247461903,82.22530024268686,5.385164807134504,10.770329614269007,21.840329667841555,21.840329667841555,26.476404589747453,44.9221548904324,34.20526275297414,32.0,24.0,43.0,7.5,9.5,4.5,1.5,5.0990195135927845,6.082762530298219,6.0,36.0,17.0,27.65863337187866,{}
237,827,7.615773105863909,78.33900688673555,3.605551275463989,9.848857801796104,20.8806130178211,22.13594362117865,26.92582403567252,47.75981574503821,37.94733192202055,32.5,25.0,44.0,8.5,10.5,2.5,3.5,6.324555320336759,7.280109889280518,7.0,35.0,16.0,27.459060435491963,{}
238,828,8.94427190999916,79.30952023559341,3.605551275463989,9.486832980505138,20.8806130178211,22.80350850198276,26.68332812825267,48.38388161361178,38.897300677553446,33.0,26.0,45.0,9.5,10.5,2.5,3.5,6.324555320336759,7.280109889280518,6.5,35.0,17.0,27.459060435491963,{}
239,829,9.486832980505138,81.49233092751734,3.605551275463989,8.94427190999916,21.18962010041709,21.840329667841555,26.92582403567252,48.70318264754368,39.84971769034255,33.5,23.0,43.0,7.0,13.0,1.0,1.0,5.0990195135927845,6.324555320336759,6.5,38.0,18.0,27.65863337187866,{}
240,830,9.486832980505138,81.49233092751734,4.47213595499958,9.848857801796104,21.840329667841555,22.80350850198276,26.92582403567252,50.59644256269407,40.80441152620633,34.5,24.0,44.0,8.0,14.0,1.0,2.0,7.071067811865476,7.280109889280518,7.0,37.0,17.0,29.61418578992169,{}
241,831,7.615773105863909,82.71033792700887,4.47213595499958,9.848857801796104,21.840329667841555,24.04163056034261,26.92582403567252,48.70318264754368,38.897300677553446,33.5,23.0,44.0,7.5,12.5,0.5,1.5,5.0990195135927845,6.082762530298219,5.5,36.0,16.0,26.476404589747453,{}
242,832,8.94427190999916,81.74350127074322,3.605551275463989,8.54400374531753,20.8806130178211,23.08679276123039,26.68332812825267,47.43416490252569,38.897300677553446,33.0,22.0,43.0,6.5,12.5,0.5,1.5,6.082762530298219,7.280109889280518,6.5,36.0,15.0,28.861739379323623,{}
243,833,8.54400374531753,81.04319835741924,4.242640687119285,8.06225774829855,21.18962010041709,22.13594362117865,25.70992026436488,45.880278987817846,37.94733192202055,32.0,21.0,43.0,7.0,11.0,0.0,1.0,6.082762530298219,7.280109889280518,6.5,36.0,15.0,28.635642126552707,{}
244,834,3.0,81.32035415564789,5.385164807134504,7.615773105863909,24.04163056034261,24.04163056034261,27.892651361962702,41.78516483155236,34.17601498127012,32.0,21.0,44.0,5.5,6.5,4.5,1.5,7.280109889280518,7.071067811865476,6.5,39.0,16.0,33.734255586866,{}
245,835,3.1622776601683795,81.32035415564789,3.1622776601683795,8.94427190999916,23.769728648009423,25.0,26.92582403567252,40.85339643163099,31.95309061734092,29.5,19.0,42.0,4.5,7.5,5.5,0.5,5.385164807134504,6.324555320336759,6.0,36.0,15.0,27.892651361962702,{}
246,836,3.0,75.0,4.47213595499958,9.486832980505138,21.840329667841555,22.80350850198276,25.70992026436488,40.49691346263317,31.016124838541646,29.0,19.0,40.0,4.5,8.5,4.5,1.5,6.324555320336759,6.324555320336759,6.0,37.0,16.0,26.68332812825267,{}
247,837,3.0,76.24303246854758,5.0990195135927845,9.486832980505138,23.08679276123039,24.04163056034261,25.96150997149434,41.43669871020132,31.95309061734092,30.0,19.0,41.0,5.0,9.0,5.0,2.0,4.47213595499958,5.0,3.5,37.0,16.0,30.80584360149873,{}
248,838,2.0,81.60882305241266,4.47213595499958,8.94427190999916,23.40939982143925,24.35159132377184,25.96150997149434,39.92492955535426,31.016124838541646,29.0,18.0,42.0,5.0,7.0,6.0,2.0,2.8284271247461903,3.605551275463989,2.5,38.0,15.0,27.892651361962702,{}
249,839,3.1622776601683795,82.28000972289685,5.385164807134504,8.94427190999916,24.35159132377184,25.29822128134704,25.70992026436488,39.92492955535426,31.016124838541646,29.5,19.0,42.0,5.5,6.5,6.5,1.5,4.47213595499958,5.0,4.0,38.0,15.0,31.78049716414141,{}
250,840,2.0,81.60882305241266,4.47213595499958,8.94427190999916,23.08679276123039,24.35159132377184,26.68332812825267,40.49691346263317,31.6227766016838,30.0,19.0,43.0,5.0,7.0,6.0,1.0,5.385164807134504,5.385164807134504,5.0,37.0,14.0,30.083217912982647,{}
251,841,3.1622776601683795,83.24061508662703,5.385164807134504,8.94427190999916,24.04163056034261,25.29822128134704,25.70992026436488,39.92492955535426,31.016124838541646,29.5,19.0,42.0,5.5,6.5,6.5,1.5,5.0990195135927845,5.385164807134504,5.0,36.0,14.0,31.32091952673165,{}
252,842,2.0,73.76313442364011,4.47213595499958,9.486832980505138,21.840329667841555,22.80350850198276,25.96150997149434,40.49691346263317,31.016124838541646,29.0,19.0,39.0,4.0,9.0,5.0,2.0,6.324555320336759,5.385164807134504,5.0,38.0,15.0,29.8328677803526,{}
253,843,3.1622776601683795,78.16009211867653,4.47213595499958,9.486832980505138,24.04163056034261,24.73863375370596,25.70992026436488,39.56008088970496,30.083217912982647,28.5,18.0,40.0,4.0,8.0,5.0,2.0,5.385164807134504,6.324555320336759,6.0,38.0,15.0,28.861739379323623,{}
254,844,2.0,79.12016177940993,4.47213595499958,8.94427190999916,23.08679276123039,24.04163056034261,25.70992026436488,39.56008088970496,30.675723300355934,29.0,19.0,41.0,5.0,7.0,6.0,1.0,5.385164807134504,6.324555320336759,6.5,38.0,15.0,31.04834939252005,{}
255,845,3.1622776601683795,77.88452991448301,5.385164807134504,8.94427190999916,21.840329667841555,23.08679276123039,25.495097567963924,39.56008088970496,30.675723300355934,29.5,20.0,41.0,5.5,6.5,6.5,0.5,6.324555320336759,7.280109889280518,6.5,36.0,14.0,30.80584360149873,{}
256,846,3.1622776601683795,80.77747210701756,4.47213595499958,8.94427190999916,24.04163056034261,25.0,25.70992026436488,39.0,30.083217912982647,28.5,20.0,41.0,5.5,5.5,7.5,0.5,6.324555320336759,7.280109889280518,7.0,36.0,14.0,27.892651361962702,{}
257,847,3.1622776601683795,82.96987405076617,3.605551275463989,8.06225774829855,24.04163056034261,25.0,25.70992026436488,39.0,31.016124838541646,28.5,20.0,42.0,6.0,5.0,7.0,1.0,5.385164807134504,6.708203932499369,6.0,36.0,15.0,28.861739379323623,{}
258,848,2.23606797749979,79.81227975693966,5.385164807134504,8.94427190999916,23.769728648009423,23.769728648009423,25.70992026436488,39.56008088970496,30.675723300355934,29.5,21.0,42.0,6.5,5.5,7.5,0.5,6.082762530298219,6.708203932499369,6.0,36.0,15.0,29.61418578992169,{}
259,849,2.23606797749979,75.43208866258443,5.385164807134504,9.848857801796104,20.615528128088304,22.80350850198276,24.73863375370596,39.56008088970496,29.73213749463701,28.5,20.0,39.0,5.5,7.5,4.5,0.5,7.280109889280518,7.280109889280518,7.0,37.0,16.0,31.78049716414141,{}
260,850,2.23606797749979,81.49233092751734,5.385164807134504,8.06225774829855,22.80350850198276,22.80350850198276,24.73863375370596,37.69615364994153,29.73213749463701,28.5,20.0,40.0,6.0,5.0,6.0,0.0,6.324555320336759,6.324555320336759,6.0,35.0,14.0,30.083217912982647,{}
261,851,3.0,77.62087348130012,4.123105625617661,8.06225774829855,22.80350850198276,22.80350850198276,24.73863375370596,37.69615364994153,29.73213749463701,28.0,20.0,40.0,6.0,5.0,6.0,0.0,6.082762530298219,6.324555320336759,6.0,36.0,17.0,30.59411708155671,{}
262,852,2.23606797749979,77.3692445355388,5.385164807134504,8.06225774829855,20.8806130178211,22.13594362117865,24.33105012119288,37.0,29.120439557122072,28.5,20.0,39.0,5.5,5.5,5.5,0.5,5.0990195135927845,5.385164807134504,5.5,35.0,16.0,29.61418578992169,{}
263,853,3.0,79.30952023559341,3.605551275463989,7.615773105863909,21.840329667841555,21.840329667841555,24.33105012119288,36.05551275463989,28.46049894151541,27.0,19.0,38.0,4.5,5.5,5.5,0.5,6.082762530298219,6.324555320336759,6.5,36.0,17.0,29.61418578992169,{}
264,854,3.0,79.30952023559341,4.123105625617661,8.54400374531753,22.80350850198276,22.80350850198276,24.515301344262525,37.94733192202055,29.410882339705484,28.0,20.0,39.0,5.5,6.5,5.5,0.5,6.324555320336759,6.324555320336759,6.0,34.0,15.0,29.61418578992169,{}
265,855,2.23606797749979,79.30952023559341,4.47213595499958,8.54400374531753,22.80350850198276,23.769728648009423,24.73863375370596,37.33630940518894,28.792360097775937,27.5,19.0,38.0,4.5,6.5,5.5,0.5,6.082762530298219,6.324555320336759,6.0,36.0,18.0,28.635642126552707,{}
266,856,3.1622776601683795,81.49233092751734,5.0990195135927845,6.708203932499369,22.80350850198276,23.769728648009423,24.515301344262525,36.05551275463989,29.410882339705484,28.5,21.0,41.0,7.0,3.0,7.0,1.0,6.324555320336759,6.324555320336759,6.0,35.0,16.0,26.68332812825267,{}
267,857,3.1622776601683795,81.25269226308751,5.0990195135927845,7.615773105863909,22.80350850198276,22.80350850198276,23.53720459187964,36.05551275463989,28.46049894151541,27.5,20.0,39.0,6.5,4.5,6.5,0.5,6.324555320336759,7.280109889280518,7.0,35.0,16.0,26.476404589747453,{}
268,858,3.1622776601683795,79.30952023559341,5.0990195135927845,7.615773105863909,22.80350850198276,22.80350850198276,24.515301344262525,37.0,29.410882339705484,28.5,21.0,40.0,6.5,4.5,6.5,0.5,6.324555320336759,6.324555320336759,6.0,35.0,15.0,31.78049716414141,{}
269,859,3.0,78.587530817554,4.47213595499958,7.615773105863909,21.840329667841555,23.08679276123039,25.317977802344327,37.94733192202055,30.364452901377952,29.0,22.0,42.0,7.0,4.0,7.0,1.0,7.071067811865476,6.324555320336759,6.5,36.0,16.0,31.78049716414141,{}
270,860,3.1622776601683795,79.55501241279521,4.47213595499958,7.615773105863909,21.840329667841555,21.840329667841555,25.495097567963924,37.33630940518894,29.73213749463701,28.5,22.0,42.0,7.0,3.0,8.0,1.0,6.082762530298219,6.324555320336759,6.0,35.0,14.0,29.8328677803526,{}
271,861,2.23606797749979,80.52328855678958,4.47213595499958,7.615773105863909,23.08679276123039,23.08679276123039,24.515301344262525,36.05551275463989,28.46049894151541,27.5,20.0,40.0,6.0,4.0,7.0,0.0,5.0990195135927845,6.324555320336759,6.0,35.0,16.0,27.65863337187866,{}
272,862,3.0,80.2807573457052,5.0990195135927845,7.615773105863909,23.08679276123039,23.769728648009423,22.56102834535696,36.05551275463989,28.46049894151541,27.0,20.0,39.0,7.5,4.5,6.5,0.5,6.082762530298219,6.324555320336759,6.5,36.0,17.0,27.892651361962702,{}
273,863,3.1622776601683795,77.87810988975015,4.123105625617661,8.54400374531753,20.8806130178211,21.840329667841555,24.515301344262525,37.0,28.46049894151541,27.5,22.0,39.0,6.5,4.5,6.5,0.5,5.0990195135927845,6.082762530298219,6.0,34.0,15.0,29.42787793912432,{}
274,864,2.23606797749979,77.87810988975015,4.47213595499958,6.708203932499369,20.615528128088304,20.8806130178211,25.495097567963924,37.94733192202055,31.32091952673165,29.5,23.0,40.0,6.5,4.5,4.5,1.5,6.082762530298219,7.280109889280518,7.0,35.0,18.0,30.59411708155671,{}
275,865,4.47213595499958,78.587530817554,5.385164807134504,6.708203932499369,20.248456731316587,19.92485884517128,25.70992026436488,42.05948168962618,35.4400902933387,32.0,25.0,45.0,10.0,5.0,5.0,3.0,3.1622776601683795,5.385164807134504,5.0,34.0,16.0,28.635642126552707,{}
276,866,7.615773105863909,74.46475676452586,3.605551275463989,7.615773105863909,19.6468827043885,20.615528128088304,25.495097567963924,43.965895873961216,36.40054944640259,31.5,24.0,43.0,8.5,8.5,1.5,3.5,3.605551275463989,3.605551275463989,3.0,37.0,19.0,32.55764119219941,{}
277,867,5.385164807134504,74.21590126111789,4.123105625617661,8.246211251235321,20.615528128088304,21.840329667841555,25.96150997149434,43.68065933568311,35.4400902933387,31.5,24.0,42.0,8.0,9.0,2.0,2.0,3.1622776601683795,4.47213595499958,3.5,37.0,20.0,27.29468812791236,{}
278,868,2.23606797749979,76.6550715869472,5.385164807134504,7.615773105863909,19.6468827043885,20.8806130178211,26.68332812825267,41.10960958218893,33.52610922848042,31.5,22.0,42.0,6.0,7.0,4.0,0.0,4.47213595499958,5.385164807134504,4.5,35.0,18.0,29.42787793912432,{}
279,869,2.23606797749979,78.587530817554,4.47213595499958,6.708203932499369,20.615528128088304,21.840329667841555,26.68332812825267,39.21734310225516,32.57299494980466,30.5,22.0,42.0,6.0,5.0,5.0,0.0,6.082762530298219,7.071067811865476,6.5,35.0,17.0,32.55764119219941,{}
280,870,2.23606797749979,80.049984384758,4.47213595499958,8.54400374531753,20.615528128088304,20.615528128088304,29.61418578992169,42.05948168962618,33.52610922848042,32.5,25.0,43.0,5.0,6.0,5.0,1.0,5.0990195135927845,6.082762530298219,6.5,34.0,17.0,29.27456233660889,{}
281,871,4.242640687119285,78.85429601486528,4.47213595499958,9.486832980505138,21.587033144922906,21.587033144922906,28.442925306655784,45.880278987817846,36.40054944640259,33.5,26.0,43.0,6.5,9.5,2.5,0.5,5.0990195135927845,6.324555320336759,6.5,34.0,18.0,30.4138126514911,{}
282,872,7.615773105863909,82.76472678623425,4.47213595499958,11.180339887498947,21.587033144922906,22.56102834535696,27.459060435491963,50.44799302251776,39.293765408777,34.5,29.0,46.0,10.5,11.5,1.5,4.5,6.082762530298219,7.280109889280518,7.0,33.0,18.0,29.42787793912432,{}
283,873,5.830951894845301,85.5102333057278,5.0990195135927845,10.44030650891055,23.53720459187964,24.515301344262525,25.70992026436488,46.84015371452148,36.40054944640259,32.5,29.0,45.0,12.0,8.0,5.0,5.0,6.082762530298219,7.071067811865476,7.0,34.0,20.0,28.284271247461906,{}
284,874,6.708203932499369,82.76472678623425,4.123105625617661,8.54400374531753,22.56102834535696,23.53720459187964,25.495097567963924,44.64302857109943,36.1386219991853,32.0,26.0,43.0,9.5,8.5,2.5,3.5,6.082762530298219,7.071067811865476,7.0,35.0,20.0,29.27456233660889,{}
285,875,3.605551275463989,77.87810988975015,4.47213595499958,7.615773105863909,20.8806130178211,20.615528128088304,26.30589287593181,40.80441152620633,33.24154027718932,31.0,25.0,42.0,7.5,5.5,4.5,1.5,6.082762530298219,7.071067811865476,6.5,33.0,19.0,33.37663853655727,{}
286,876,2.0,78.64477096412705,4.47213595499958,6.708203932499369,20.8806130178211,20.615528128088304,25.495097567963924,37.0,30.364452901377952,29.0,24.0,40.0,7.0,3.0,6.0,1.0,6.082762530298219,7.071067811865476,7.0,34.0,21.0,31.400636936215164,{}
287,877,3.1622776601683795,79.62411694957753,4.123105625617661,5.385164807134504,21.587033144922906,21.587033144922906,25.317977802344327,34.48187929913333,29.120439557122072,28.5,23.0,39.0,6.0,2.0,7.0,1.0,5.0990195135927845,6.082762530298219,6.0,32.0,20.0,30.26549190084312,{}
288,878,2.23606797749979,77.46612162745726,4.123105625617661,6.708203932499369,19.4164878389476,20.615528128088304,25.495097567963924,37.64306044943742,31.04834939252005,29.5,25.0,40.0,7.5,3.5,5.5,2.5,6.0,6.324555320336759,6.5,33.0,21.0,31.25699921617557,{}
289,879,4.242640687119285,76.68767828015137,4.123105625617661,7.615773105863909,20.615528128088304,21.587033144922906,26.30589287593181,41.48493702538308,33.95585369269929,31.5,27.0,43.0,9.0,5.0,5.0,3.0,6.082762530298219,7.071067811865476,7.0,34.0,21.0,31.25699921617557,{}
290,880,7.280109889280518,81.39410298049853,4.47213595499958,8.54400374531753,21.587033144922906,21.587033144922906,25.317977802344327,45.35416188179427,36.87817782917155,32.5,28.0,43.0,10.5,8.5,2.5,4.5,7.0,7.280109889280518,6.5,32.0,19.0,30.26549190084312,{}
291,881,6.324555320336759,81.21576201698781,5.0990195135927845,10.44030650891055,23.345235059857504,25.495097567963924,25.495097567963924,47.29693436154187,36.87817782917155,33.0,30.0,44.0,12.0,9.0,4.0,6.0,6.082762530298219,6.324555320336759,6.0,34.0,20.0,29.42787793912432,{}
292,882,5.385164807134504,83.18653737234169,6.324555320336759,12.36931687685298,23.53720459187964,24.33105012119288,25.317977802344327,49.24428900898052,36.87817782917155,33.5,30.0,44.0,12.0,11.0,4.0,5.0,5.0,6.324555320336759,6.0,32.0,20.0,29.27456233660889,{}
293,883,5.830951894845301,84.17244204607586,6.082762530298219,11.180339887498947,23.53720459187964,23.345235059857504,25.495097567963924,48.27007354458868,37.10795063055895,33.5,31.0,45.0,13.0,9.0,5.0,5.0,5.0,7.071067811865476,7.0,32.0,20.0,28.284271247461906,{}
294,884,5.830951894845301,83.54639429682169,4.123105625617661,8.246211251235321,22.56102834535696,22.36067977499789,26.30589287593181,44.14748010928823,35.90264614203248,32.5,28.0,44.0,10.0,7.0,4.0,4.0,6.082762530298219,6.082762530298219,6.5,32.0,20.0,30.26549190084312,{}
295,885,2.8284271247461903,78.44743462982075,5.0990195135927845,7.615773105863909,21.587033144922906,21.587033144922906,25.317977802344327,40.26164427839479,32.7566787083184,31.0,26.0,41.0,8.5,5.5,4.5,2.5,6.0,7.071067811865476,7.0,32.0,20.0,30.26549190084312,{}
296,886,1.4142135623730951,80.23091673413684,5.385164807134504,7.615773105863909,20.39607805437113,21.587033144922906,25.317977802344327,39.293765408777,31.78049716414141,30.5,26.0,40.0,8.0,5.0,5.0,2.0,5.0990195135927845,6.082762530298219,6.0,32.0,21.0,31.14482300479488,{}
297,887,2.0,80.4114419718985,4.123105625617661,7.615773105863909,21.587033144922906,22.36067977499789,26.68332812825267,38.897300677553446,31.32091952673165,30.0,26.0,41.0,7.5,3.5,6.5,2.5,6.082762530298219,7.071067811865476,7.0,32.0,20.0,29.27456233660889,{}
298,888,2.8284271247461903,80.23091673413684,4.123105625617661,6.708203932499369,21.37755832643195,22.36067977499789,25.495097567963924,38.60051813123757,32.01562118716424,30.0,27.0,41.0,9.0,3.0,6.0,4.0,5.0,7.071067811865476,7.0,31.0,20.0,29.27456233660889,{}
299,889,4.242640687119285,80.4114419718985,5.0990195135927845,7.615773105863909,21.587033144922906,22.56102834535696,25.495097567963924,41.7612260356422,34.20526275297414,31.5,27.0,42.0,9.5,5.5,4.5,3.5,5.0990195135927845,6.082762530298219,6.5,32.0,21.0,28.16025568065745,{}
300,890,5.830951894845301,82.20097323024831,5.0990195135927845,7.280109889280518,22.56102834535696,22.56102834535696,25.317977802344327,43.17406628984581,35.90264614203248,32.5,28.0,42.0,10.0,7.0,3.0,4.0,5.0990195135927845,5.385164807134504,6.0,31.0,21.0,30.26549190084312,{}
301,891,4.242640687119285,83.02409288875127,5.0990195135927845,8.246211251235321,22.36067977499789,22.36067977499789,25.317977802344327,42.20189569201838,33.95585369269929,31.5,28.0,41.0,9.5,6.5,4.5,3.5,5.0990195135927845,6.082762530298219,6.0,32.0,22.0,28.16025568065745,{}
302,892,3.605551275463989,80.06247560499239,5.0990195135927845,7.280109889280518,22.36067977499789,22.56102834535696,25.495097567963924,41.23105625617661,33.95585369269929,31.5,27.0,40.0,8.5,6.5,3.5,2.5,6.082762530298219,7.071067811865476,6.5,31.0,22.0,28.16025568065745,{}
303,893,2.8284271247461903,82.03657720797473,4.123105625617661,6.708203932499369,22.36067977499789,22.36067977499789,26.1725046566048,39.05124837953327,32.55764119219941,31.0,27.0,40.0,7.5,4.5,4.5,2.5,6.0,6.082762530298219,6.0,31.0,23.0,28.0713376952364,{}
304,894,2.23606797749979,87.69264507357501,4.123105625617661,6.324555320336759,23.194827009486403,23.345235059857504,25.495097567963924,38.07886552931954,31.78049716414141,30.0,28.0,39.0,8.5,3.5,4.5,3.5,2.0,2.23606797749979,2.5,31.0,25.0,30.01666203960727,{}
305,895,2.23606797749979,79.51100552753688,5.0990195135927845,6.082762530298219,22.20360331117452,21.213203435596427,26.1725046566048,38.63935817272331,32.55764119219941,31.5,30.0,39.0,8.5,3.5,5.5,3.5,3.0,3.1622776601683795,3.0,29.0,26.0,29.017236257093817,{}
306,896,1.4142135623730951,78.16009211867653,4.0,5.0990195135927845,21.095023109728988,21.095023109728988,25.179356624028344,35.35533905932738,30.26549190084312,29.5,30.0,35.0,7.5,2.5,4.5,3.5,3.1622776601683795,4.123105625617661,4.0,25.0,28.0,29.017236257093817,{}
307,897,0.0,82.00609733428362,4.0,8.0,23.021728866442675,23.0,24.0,36.0,28.0,28.0,31.0,30.0,6.5,5.5,3.5,3.5,4.123105625617661,4.123105625617661,4.5,22.0,31.0,33.24154027718932,{}
308,898,1.0,81.15417426109393,4.123105625617661,7.071067811865476,22.0,22.02271554554524,24.0,35.0142828000232,28.0,28.0,33.0,28.0,6.5,4.5,2.5,3.5,5.0990195135927845,5.0990195135927845,5.0,20.0,35.0,30.59411708155671,{}
309,899,2.0,81.39410298049853,3.1622776601683795,6.082762530298219,23.021728866442675,23.08679276123039,24.020824298928627,35.12833614050059,29.068883707497267,28.0,34.0,26.0,6.0,5.0,1.0,5.0,5.385164807134504,5.0990195135927845,5.5,18.0,37.0,32.55764119219941,{}
310,900,2.0,87.82368700982668,4.123105625617661,8.06225774829855,24.08318915758459,24.186773244895647,22.02271554554524,36.12478373637688,28.0713376952364,27.0,36.0,24.0,8.0,6.0,2.0,6.0,6.324555320336759,6.324555320336759,6.0,16.0,35.0,34.132096331752024,{}
311,901,1.4142135623730951,78.63841300535,5.0990195135927845,8.246211251235321,22.09072203437452,22.36067977499789,23.0,37.21558813185679,29.068883707497267,28.5,35.0,25.0,7.0,7.0,1.0,5.0,6.708203932499369,6.708203932499369,6.0,16.0,38.0,30.083217912982647,{}
312,902,3.0,81.74350127074322,5.0990195135927845,8.246211251235321,22.09072203437452,22.20360331117452,23.021728866442675,39.20459156782532,31.064449134018133,29.5,36.0,25.0,7.5,8.5,0.5,4.5,6.324555320336759,6.708203932499369,6.5,16.0,38.0,30.083217912982647,{}
313,903,4.0,78.91767862779544,5.0990195135927845,6.324555320336759,22.09072203437452,22.20360331117452,22.0,37.12142238654117,31.016124838541646,29.0,36.0,24.0,8.0,7.0,1.0,5.0,6.708203932499369,6.324555320336759,6.5,17.0,38.0,31.78049716414141,{}
314,904,4.123105625617661,83.02409288875127,4.123105625617661,7.071067811865476,22.20360331117452,23.194827009486403,22.02271554554524,37.21558813185679,30.14962686336267,28.0,37.0,24.0,8.5,6.5,0.5,6.5,6.324555320336759,6.324555320336759,6.0,16.0,38.0,27.892651361962702,{}
315,905,3.0,80.89499366462674,5.0990195135927845,7.280109889280518,22.20360331117452,23.194827009486403,23.0,38.11823710509184,31.016124838541646,29.5,37.0,25.0,8.0,7.0,1.0,5.0,7.280109889280518,6.324555320336759,6.0,16.0,38.0,32.55764119219941,{}
316,906,2.23606797749979,81.88406438373708,5.0990195135927845,8.06225774829855,22.09072203437452,22.20360331117452,23.021728866442675,38.2099463490856,30.14962686336267,29.0,36.0,24.0,7.0,8.0,1.0,4.0,5.830951894845301,5.385164807134504,5.5,14.0,35.0,31.04834939252005,{}
317,907,4.123105625617661,82.73451516749222,5.0990195135927845,8.06225774829855,22.09072203437452,22.36067977499789,23.021728866442675,40.19950248448356,32.14031735997639,30.0,37.0,26.0,8.5,8.5,0.5,5.5,7.280109889280518,7.280109889280518,7.0,16.0,38.0,30.083217912982647,{}
318,908,7.0,84.71717653463199,4.123105625617661,7.280109889280518,23.08679276123039,24.186773244895647,23.021728866442675,41.19465984809196,34.058772731852805,30.5,38.0,27.0,9.5,8.5,1.5,7.5,6.324555320336759,6.082762530298219,6.5,17.0,36.0,28.635642126552707,{}
319,909,7.0,82.87339742040264,5.0990195135927845,7.071067811865476,23.08679276123039,23.194827009486403,22.09072203437452,41.19465984809196,34.132096331752024,30.5,38.0,26.0,10.0,9.0,2.0,7.0,7.280109889280518,7.280109889280518,7.0,17.0,37.0,33.37663853655727,{}
320,910,6.0,86.83317338436964,5.0990195135927845,8.246211251235321,23.194827009486403,23.194827009486403,22.02271554554524,41.19465984809196,33.06055050963308,30.0,38.0,26.0,10.0,9.0,1.0,7.0,6.324555320336759,6.324555320336759,6.0,15.0,35.0,32.38826948140329,{}
321,911,6.0,85.47514258543241,5.0990195135927845,7.071067811865476,24.08318915758459,23.194827009486403,23.08679276123039,41.19465984809196,34.132096331752024,31.0,37.0,28.0,9.5,8.5,1.5,6.5,7.615773105863909,6.324555320336759,6.5,18.0,36.0,30.26549190084312,{}
322,912,3.1622776601683795,80.39900496896712,5.0990195135927845,7.071067811865476,23.08679276123039,23.08679276123039,23.021728866442675,38.2099463490856,31.14482300479488,29.5,35.0,27.0,8.0,7.0,0.0,5.0,7.280109889280518,6.324555320336759,6.5,18.0,38.0,32.7566787083184,{}
323,913,1.0,81.39410298049853,5.0990195135927845,8.246211251235321,23.021728866442675,23.08679276123039,23.0,37.12142238654117,29.017236257093817,28.5,35.0,27.0,8.0,6.0,2.0,5.0,6.324555320336759,6.324555320336759,6.5,17.0,36.0,33.734255586866,{}
324,914,1.0,82.38931969618392,4.123105625617661,8.06225774829855,24.020824298928627,24.08318915758459,24.0,37.05401462729781,29.017236257093817,28.5,35.0,27.0,7.0,6.0,2.0,5.0,6.324555320336759,6.082762530298219,6.5,18.0,36.0,32.55764119219941,{}
325,915,1.0,83.2946576918352,4.123105625617661,8.06225774829855,23.021728866442675,24.08318915758459,24.0,36.013886210738214,28.0,28.0,34.0,27.0,6.5,5.5,2.5,4.5,6.324555320336759,6.324555320336759,6.5,18.0,35.0,32.55764119219941,{}
326,916,1.0,82.21921916437786,4.123105625617661,7.071067811865476,23.021728866442675,23.021728866442675,24.0,36.05551275463989,29.017236257093817,28.5,34.0,28.0,7.0,5.0,3.0,5.0,6.324555320336759,6.082762530298219,6.5,18.0,34.0,30.80584360149873,{}
327,917,1.0,83.21658488546619,4.0,7.071067811865476,23.021728866442675,24.08318915758459,23.0,35.0142828000232,28.0,27.5,33.0,27.0,7.0,5.0,3.0,5.0,6.324555320336759,6.324555320336759,6.0,20.0,35.0,33.54101966249684,{}
328,918,1.0,80.15609770940699,4.0,8.06225774829855,21.02379604162864,22.02271554554524,23.0,36.013886210738214,28.0,27.5,33.0,28.0,7.5,5.5,2.5,4.5,6.324555320336759,6.324555320336759,6.5,20.0,35.0,31.575306807693888,{}
329,919,4.0,82.15229759416349,6.082762530298219,9.0,24.0,25.019992006393608,23.021728866442675,42.0,33.0,31.0,35.0,30.0,9.5,9.5,0.5,4.5,7.280109889280518,7.280109889280518,7.0,21.0,36.0,29.42787793912432,{}
330,920,9.055385138137416,87.14355971613737,4.123105625617661,9.055385138137416,24.020824298928627,25.019992006393608,23.0,45.0111097397076,36.0,31.5,36.0,31.0,10.5,11.5,1.5,7.5,6.708203932499369,7.280109889280518,7.0,18.0,35.0,34.52535300326414,{}
331,921,11.0,88.14193099768123,5.0,10.04987562112089,23.0,25.019992006393608,23.0,49.01020301937138,39.0,33.5,36.0,31.0,10.5,15.5,5.5,6.5,6.324555320336759,7.280109889280518,7.0,20.0,35.0,30.59411708155671,{}
332,922,14.0,90.13878188659972,5.0,9.0,24.020824298928627,25.019992006393608,23.021728866442675,51.0098029794274,42.01190307520001,35.0,36.0,31.0,10.5,17.5,8.5,7.5,7.071067811865476,6.0,6.5,20.0,33.0,29.154759474226505,{}
333,923,13.0,88.09086218218096,6.0,10.04987562112089,25.0,26.019223662515376,23.0,52.009614495783374,42.0,35.5,36.0,32.0,11.0,18.0,7.0,6.0,6.082762530298219,6.082762530298219,6.5,21.0,34.0,30.26549190084312,{}
334,924,7.0,88.09086218218096,5.0990195135927845,11.0,25.0,26.0,25.019992006393608,48.0,37.0,33.5,37.0,33.0,10.0,13.0,2.0,6.0,5.0990195135927845,6.082762530298219,6.5,21.0,33.0,28.284271247461906,{}
335,925,11.0,88.09086218218096,5.0,10.04987562112089,25.0,26.019223662515376,24.020824298928627,50.0,40.01249804748511,34.5,36.0,32.0,10.0,16.0,6.0,6.0,6.324555320336759,6.082762530298219,6.5,22.0,33.0,30.4138126514911,{}
336,926,10.0,88.05112151472007,4.0,10.04987562112089,26.019223662515376,27.018512172212592,24.020824298928627,48.0,38.01315561749642,33.0,35.0,32.0,9.5,14.5,3.5,6.5,6.082762530298219,6.082762530298219,6.5,21.0,33.0,30.4138126514911,{}
337,927,9.0,87.09190547921202,4.123105625617661,9.0,24.020824298928627,25.019992006393608,24.020824298928627,46.0,37.0,32.5,35.0,31.0,9.0,13.0,4.0,6.0,5.385164807134504,6.082762530298219,6.0,21.0,33.0,30.26549190084312,{}
338,928,8.0,88.05112151472007,4.0,8.0,24.0,25.0,24.0,44.0,36.0,32.0,34.0,31.0,8.5,11.5,2.5,5.5,5.385164807134504,5.0,5.5,21.0,32.0,29.42787793912432,{}
339,929,5.0,86.02325267042627,5.0,8.0,24.0,24.020824298928627,24.0,42.0,34.0,31.5,33.0,31.0,8.0,10.0,2.0,4.0,5.385164807134504,6.082762530298219,6.0,21.0,32.0,30.26549190084312,{}
340,930,4.123105625617661,84.02380615040002,5.0,9.055385138137416,23.0,23.0,24.020824298928627,42.01190307520001,33.0,31.0,33.0,31.0,8.0,10.0,1.0,4.0,5.385164807134504,6.082762530298219,6.5,22.0,33.0,31.25699921617557,{}
341,931,2.0,85.0235261559999,5.0,9.0,24.0,24.020824298928627,24.020824298928627,40.01249804748511,31.016124838541646,30.0,32.0,30.0,7.0,9.0,1.0,3.0,5.0990195135927845,6.082762530298219,6.0,21.0,33.0,30.4138126514911,{}
342,932,1.4142135623730951,83.00602387778854,5.0990195135927845,9.0,23.0,23.0,24.020824298928627,39.01281840626232,30.01666203960727,29.5,31.0,30.0,6.5,8.5,1.5,2.5,6.082762530298219,6.082762530298219,6.5,21.0,32.0,29.42787793912432,{}
343,933,2.0,83.00602387778854,5.0,7.0,22.0,23.021728866442675,24.0,38.0,31.0,30.0,31.0,30.0,6.5,7.5,0.5,2.5,6.082762530298219,6.082762530298219,6.5,22.0,33.0,30.26549190084312,{}
344,934,1.0,83.02409288875127,5.0,8.0,23.0,23.021728866442675,24.020824298928627,38.01315561749642,30.01666203960727,29.5,32.0,30.0,7.0,7.0,1.0,3.0,6.324555320336759,6.082762530298219,6.5,22.0,33.0,33.24154027718932,{}
345,935,2.23606797749979,83.02409288875127,4.0,8.0,22.0,22.0,24.0,38.01315561749642,30.01666203960727,29.0,31.0,29.0,6.0,8.0,0.0,3.0,5.385164807134504,6.082762530298219,6.5,21.0,33.0,30.26549190084312,{}
346,936,1.0,84.00595217006948,5.0,8.0,24.020824298928627,24.0,24.020824298928627,38.01315561749642,30.01666203960727,29.5,30.0,29.0,5.5,8.5,0.5,2.5,6.082762530298219,7.071067811865476,7.0,23.0,34.0,31.25699921617557,{}
347,937,2.0,84.02380615040002,4.123105625617661,8.0,23.021728866442675,23.021728866442675,24.020824298928627,38.0,30.0,29.0,31.0,29.0,6.0,8.0,0.0,3.0,6.082762530298219,7.071067811865476,7.0,22.0,34.0,30.14962686336267,{}
348,938,2.23606797749979,83.05419917138447,5.0990195135927845,8.06225774829855,23.0,23.021728866442675,24.0,39.01281840626232,31.0,30.0,32.0,29.0,6.5,8.5,0.5,2.5,7.280109889280518,7.071067811865476,7.0,23.0,33.0,29.27456233660889,{}
349,939,2.23606797749979,83.05419917138447,4.123105625617661,7.0,23.0,22.02271554554524,24.0,37.0,30.0,29.0,31.0,28.0,5.5,7.5,0.5,2.5,7.071067811865476,6.082762530298219,6.5,21.0,32.0,30.14962686336267,{}
350,940,2.23606797749979,85.0235261559999,5.0990195135927845,7.0,23.0,24.020824298928627,24.020824298928627,38.01315561749642,31.016124838541646,30.0,31.0,29.0,6.0,8.0,0.0,2.0,7.071067811865476,7.0,7.0,22.0,33.0,31.14482300479488,{}
351,941,1.4142135623730951,83.02409288875127,6.0,8.0,22.02271554554524,23.021728866442675,24.020824298928627,39.05124837953327,31.064449134018133,30.5,32.0,30.0,7.0,8.0,0.0,3.0,7.071067811865476,6.082762530298219,6.5,24.0,34.0,29.154759474226505,{}
352,942,2.0,83.02409288875127,5.0,8.0,22.0,23.021728866442675,23.0,38.0,30.0,29.0,31.0,29.0,7.0,8.0,0.0,3.0,7.071067811865476,7.071067811865476,7.0,22.0,33.0,28.284271247461906,{}
353,943,1.0,85.0235261559999,5.0,9.0,24.020824298928627,24.020824298928627,24.020824298928627,39.01281840626232,30.01666203960727,29.5,31.0,29.0,6.0,9.0,0.0,3.0,7.071067811865476,7.071067811865476,7.0,23.0,34.0,27.29468812791236,{}
354,944,2.0,82.02438661763951,4.0,8.0,22.0,23.08679276123039,24.0,38.0,30.0,29.0,30.0,28.0,5.0,9.0,0.0,2.0,6.082762530298219,7.071067811865476,7.0,22.0,34.0,30.4138126514911,{}
355,945,1.0,83.02409288875127,5.0990195135927845,8.0,22.02271554554524,23.021728866442675,24.020824298928627,38.0,30.0,29.5,31.0,29.0,6.0,8.0,0.0,3.0,7.071067811865476,7.0,7.0,22.0,34.0,29.42787793912432,{}
356,946,2.23606797749979,81.02468759581859,4.0,8.0,22.0,23.021728866442675,24.0,38.01315561749642,30.01666203960727,29.0,30.0,28.0,5.0,9.0,0.0,2.0,7.071067811865476,6.082762530298219,6.5,22.0,34.0,31.14482300479488,{}
357,947,1.4142135623730951,84.0535543567314,5.0990195135927845,9.0,24.020824298928627,25.019992006393608,24.020824298928627,39.01281840626232,30.01666203960727,29.5,31.0,28.0,5.5,9.5,0.5,2.5,6.082762530298219,7.071067811865476,7.0,23.0,34.0,32.2490309931942,{}
358,948,1.0,83.05419917138447,5.0990195135927845,8.0,23.021728866442675,24.020824298928627,24.020824298928627,38.0,30.0,29.5,32.0,29.0,6.5,7.5,1.5,3.5,7.280109889280518,6.082762530298219,6.5,23.0,33.0,31.25699921617557,{}
359,949,1.0,82.05485969764375,5.0990195135927845,8.0,23.021728866442675,24.020824298928627,24.020824298928627,38.0,30.0,29.5,31.0,28.0,5.5,8.5,0.5,2.5,7.071067811865476,7.0,7.0,22.0,33.0,31.25699921617557,{}
360,950,1.4142135623730951,84.0535543567314,5.0990195135927845,8.06225774829855,23.021728866442675,25.019992006393608,24.020824298928627,38.0,30.01666203960727,29.5,31.0,28.0,5.5,8.5,0.5,2.5,7.071067811865476,6.082762530298219,7.0,22.0,34.0,34.23448553724738,{}
361,951,2.23606797749979,84.09518416651456,5.0990195135927845,8.06225774829855,24.020824298928627,25.019992006393608,23.0,38.01315561749642,30.0,29.0,31.0,27.0,6.0,9.0,1.0,3.0,6.082762530298219,6.082762530298219,6.0,20.0,33.0,28.284271247461906,{}
362,952,2.0,87.09190547921202,5.0,7.071067811865476,24.020824298928627,24.020824298928627,23.021728866442675,37.05401462729781,30.01666203960727,29.0,31.0,27.0,6.0,8.0,0.0,3.0,5.0990195135927845,6.082762530298219,6.0,20.0,32.0,29.42787793912432,{}
363,953,3.1622776601683795,88.14193099768123,4.123105625617661,8.06225774829855,25.019992006393608,26.019223662515376,24.020824298928627,39.05124837953327,31.016124838541646,29.5,32.0,27.0,5.5,9.5,0.5,2.5,6.324555320336759,6.0,6.0,19.0,31.0,27.29468812791236,{}
364,954,4.123105625617661,88.14193099768123,6.0,8.06225774829855,25.079872407968907,25.019992006393608,23.021728866442675,41.01219330881976,33.0,31.0,32.0,27.0,6.5,11.5,2.5,2.5,5.830951894845301,5.0990195135927845,5.5,19.0,32.0,29.27456233660889,{}
365,955,4.0,88.14193099768123,6.082762530298219,7.0,24.020824298928627,24.020824298928627,23.0,40.01249804748511,33.015148038438355,31.0,32.0,27.0,6.5,10.5,2.5,2.5,5.385164807134504,6.082762530298219,6.0,18.0,32.0,27.16615541441225,{}
366,956,4.123105625617661,89.20201791439474,6.082762530298219,7.071067811865476,25.019992006393608,25.019992006393608,23.0,40.01249804748511,33.0,31.0,33.0,27.0,7.0,10.0,2.0,3.0,5.0990195135927845,6.082762530298219,5.5,21.0,33.0,30.4138126514911,{}
367,957,4.0,91.19758768739445,7.071067811865476,8.06225774829855,25.019992006393608,26.019223662515376,23.021728866442675,42.1070065428546,34.058772731852805,32.0,33.0,27.0,7.0,12.0,3.0,2.0,3.605551275463989,4.123105625617661,4.5,21.0,34.0,28.284271247461906,{}
368,958,4.0,89.20201791439474,6.082762530298219,7.071067811865476,25.019992006393608,25.079872407968907,23.0,40.049968789001575,33.015148038438355,31.0,32.0,26.0,6.0,11.0,3.0,2.0,2.23606797749979,1.0,1.5,19.0,34.0,30.14962686336267,{}
369,959,4.0,89.27485648266257,5.0990195135927845,8.06225774829855,24.020824298928627,23.021728866442675,24.020824298928627,41.10960958218893,33.06055050963308,31.0,34.0,27.0,6.5,10.5,1.5,3.5,3.605551275463989,3.1622776601683795,3.0,19.0,33.0,31.14482300479488,{}
370,960,3.0,84.2140130857092,5.0990195135927845,8.0,22.02271554554524,22.09072203437452,24.020824298928627,40.049968789001575,32.0624390837628,30.5,33.0,27.0,6.0,10.0,1.0,2.0,5.385164807134504,5.385164807134504,5.5,19.0,34.0,30.4138126514911,{}
371,961,2.0,88.36288813749809,4.123105625617661,9.055385138137416,23.08679276123039,23.08679276123039,25.019992006393608,40.11234224026316,31.064449134018133,30.0,34.0,26.0,5.0,10.0,1.0,3.0,5.385164807134504,6.324555320336759,5.5,19.0,35.0,30.59411708155671,{}
372,962,2.0,87.28115489611719,5.0990195135927845,7.071067811865476,23.021728866442675,24.08318915758459,25.079872407968907,39.20459156782532,32.14031735997639,31.0,33.0,26.0,4.5,9.5,1.5,1.5,6.324555320336759,6.082762530298219,6.0,19.0,35.0,28.442925306655784,{}
373,963,2.23606797749979,88.2779700718135,5.0990195135927845,7.071067811865476,23.021728866442675,24.08318915758459,23.021728866442675,37.21558813185679,30.14962686336267,29.0,32.0,25.0,5.5,8.5,0.5,2.5,6.324555320336759,6.324555320336759,6.0,19.0,36.0,33.37663853655727,{}
374,964,1.0,85.47514258543241,3.605551275463989,7.280109889280518,23.08679276123039,24.186773244895647,25.0,36.22154055254967,29.068883707497267,28.5,34.0,25.0,4.5,6.5,0.5,3.5,6.708203932499369,5.385164807134504,5.5,18.0,35.0,26.68332812825267,{}
375,965,1.4142135623730951,87.46427842267951,3.1622776601683795,7.071067811865476,24.020824298928627,24.08318915758459,24.186773244895647,35.510561809129406,28.442925306655784,27.5,33.0,24.0,4.5,6.5,1.5,3.5,6.324555320336759,6.324555320336759,6.0,15.0,34.0,27.892651361962702,{}
376,966,2.23606797749979,88.56635930193812,3.1622776601683795,6.324555320336759,24.08318915758459,25.079872407968907,24.33105012119288,35.90264614203248,29.61418578992169,28.0,34.0,24.0,5.0,6.0,0.0,4.0,6.324555320336759,6.082762530298219,6.0,15.0,34.0,27.65863337187866,{}
377,967,2.0,82.60750571225353,5.385164807134504,9.055385138137416,23.08679276123039,23.194827009486403,23.021728866442675,39.20459156782532,30.14962686336267,29.0,35.0,25.0,7.0,9.0,0.0,4.0,8.54400374531753,8.246211251235321,8.0,15.0,36.0,30.083217912982647,{}
378,968,4.0,83.72574275573791,5.0990195135927845,8.246211251235321,24.08318915758459,24.33105012119288,24.08318915758459,41.30375285612676,33.13608305156178,31.0,37.0,26.0,7.5,9.5,1.5,4.5,7.615773105863909,7.280109889280518,7.0,16.0,37.0,28.861739379323623,{}
379,969,3.1622776601683795,91.0823802938856,5.0990195135927845,8.246211251235321,26.0768096208106,26.30589287593181,23.345235059857504,39.81205847478876,31.575306807693888,29.5,37.0,23.0,7.0,9.0,2.0,4.0,8.54400374531753,7.280109889280518,7.0,14.0,37.0,28.16025568065745,{}
380,970,3.1622776601683795,89.94442728707543,5.0990195135927845,7.280109889280518,25.179356624028344,25.179356624028344,23.345235059857504,38.8329756778952,31.575306807693888,29.5,35.0,22.0,5.5,9.5,2.5,3.5,6.324555320336759,6.324555320336759,6.0,14.0,37.0,26.92582403567252,{}
381,971,2.23606797749979,88.11923740024082,5.0990195135927845,8.246211251235321,24.186773244895647,24.186773244895647,22.56102834535696,38.07886552931954,29.8328677803526,28.0,35.0,21.0,6.0,9.0,2.0,4.0,6.708203932499369,7.280109889280518,7.0,12.0,37.0,28.16025568065745,{}
382,972,4.0,89.94442728707543,4.47213595499958,8.246211251235321,24.186773244895647,25.317977802344327,22.36067977499789,38.8329756778952,30.59411708155671,28.0,35.0,22.0,6.5,9.5,1.5,5.5,6.324555320336759,7.280109889280518,7.0,13.0,37.0,26.248809496813376,{}
383,973,2.23606797749979,90.09439494219384,3.605551275463989,7.280109889280518,24.186773244895647,25.179356624028344,23.345235059857504,36.1386219991853,28.861739379323623,27.0,35.0,21.0,5.0,7.0,0.0,5.0,6.708203932499369,7.280109889280518,7.0,12.0,36.0,26.92582403567252,{}
384,974,1.4142135623730951,89.26925562588724,3.605551275463989,6.324555320336759,24.186773244895647,25.317977802344327,22.20360331117452,32.984845004941285,26.68332812825267,25.5,34.0,19.0,4.5,5.5,0.5,3.5,6.708203932499369,7.280109889280518,7.0,13.0,38.0,29.120439557122072,{}
385,975,3.1622776601683795,85.15867542417507,3.1622776601683795,8.246211251235321,24.186773244895647,25.317977802344327,22.20360331117452,36.6742416417845,28.442925306655784,26.5,35.0,21.0,6.0,8.0,1.0,6.0,7.280109889280518,7.280109889280518,7.0,12.0,37.0,34.713109915419565,{}
386,976,1.4142135623730951,88.45903006477066,4.47213595499958,9.486832980505138,24.186773244895647,24.33105012119288,23.345235059857504,38.3275357934736,28.861739379323623,27.5,36.0,20.0,5.0,9.0,1.0,4.0,7.615773105863909,7.280109889280518,7.0,14.0,39.0,27.892651361962702,{}
387,977,4.123105625617661,87.29833904490967,5.385164807134504,8.246211251235321,25.179356624028344,25.317977802344327,22.20360331117452,39.81205847478876,31.575306807693888,29.0,37.0,22.0,7.5,9.5,1.5,5.5,8.54400374531753,7.280109889280518,7.0,13.0,38.0,28.16025568065745,{}
388,978,2.23606797749979,90.60905032059436,5.385164807134504,8.246211251235321,24.186773244895647,25.495097567963924,22.36067977499789,38.07886552931954,29.8328677803526,28.0,36.0,19.0,5.5,9.5,2.5,3.5,6.324555320336759,5.385164807134504,5.5,14.0,38.0,31.78049716414141,{}
389,979,3.1622776601683795,88.45903006477066,5.385164807134504,9.219544457292889,23.345235059857504,24.515301344262525,21.37755832643195,39.05124837953327,29.8328677803526,27.5,35.0,19.0,6.0,11.0,3.0,4.0,5.0,4.47213595499958,4.0,13.0,40.0,30.083217912982647,{}
390,980,3.605551275463989,89.44271909999159,4.123105625617661,8.246211251235321,24.186773244895647,24.33105012119288,21.213203435596427,36.87817782917155,28.635642126552707,26.5,34.0,18.0,5.0,10.0,3.0,4.0,5.0,4.47213595499958,4.0,12.0,39.0,27.202941017470888,{}
391,981,3.1622776601683795,87.29833904490967,5.385164807134504,8.246211251235321,24.186773244895647,25.317977802344327,22.20360331117452,38.8329756778952,30.59411708155671,28.5,36.0,21.0,6.5,9.5,2.5,4.5,4.242640687119285,2.8284271247461903,2.0,11.0,37.0,28.16025568065745,{}
392,982,2.23606797749979,88.45903006477066,5.385164807134504,9.219544457292889,24.33105012119288,25.495097567963924,22.20360331117452,38.8329756778952,29.61418578992169,28.0,36.0,20.0,6.0,10.0,2.0,4.0,4.47213595499958,3.605551275463989,3.5,13.0,39.0,30.083217912982647,{}
393,983,3.1622776601683795,91.59148432032316,6.324555320336759,8.54400374531753,24.186773244895647,25.495097567963924,22.20360331117452,40.024992192379,31.575306807693888,29.5,35.0,18.0,4.5,12.5,4.5,1.5,5.0,3.605551275463989,2.0,15.0,40.0,27.202941017470888,{}
394,984,2.23606797749979,89.62700485902673,6.324555320336759,8.54400374531753,24.186773244895647,25.495097567963924,22.36067977499789,39.293765408777,30.80584360149873,29.0,36.0,19.0,5.5,10.5,3.5,2.5,4.242640687119285,5.0,3.5,13.0,40.0,29.120439557122072,{}
395,985,3.605551275463989,90.60905032059436,6.324555320336759,8.54400374531753,25.317977802344327,25.495097567963924,21.213203435596427,39.293765408777,30.80584360149873,28.5,35.0,18.0,5.5,11.5,3.5,2.5,4.242640687119285,3.605551275463989,2.5,13.0,40.0,28.46049894151541,{}
396,986,2.8284271247461903,89.62700485902673,5.385164807134504,9.219544457292889,24.33105012119288,25.317977802344327,22.36067977499789,39.293765408777,30.083217912982647,28.0,35.0,18.0,4.5,11.5,2.5,2.5,4.47213595499958,4.242640687119285,2.5,15.0,40.0,29.410882339705484,{}
397,987,2.23606797749979,91.78235124467012,5.385164807134504,9.219544457292889,24.33105012119288,25.317977802344327,22.20360331117452,38.8329756778952,29.61418578992169,28.0,36.0,18.0,5.0,11.0,3.0,3.0,5.0,4.47213595499958,4.0,13.0,40.0,27.51363298439521,{}
398,988,3.1622776601683795,90.60905032059436,5.385164807134504,7.280109889280518,24.186773244895647,25.317977802344327,23.345235059857504,39.05124837953327,31.78049716414141,29.5,36.0,19.0,4.5,10.5,3.5,2.5,3.605551275463989,3.605551275463989,2.5,14.0,39.0,29.120439557122072,{}
399,989,6.324555320336759,93.74433316206373,4.123105625617661,8.54400374531753,25.317977802344327,26.476404589747453,22.56102834535696,41.48493702538308,32.984845004941285,29.0,37.0,19.0,6.0,12.0,5.0,5.0,3.605551275463989,3.605551275463989,3.0,15.0,39.0,25.6320112359526,{}
400,990,11.40175425099138,94.36630754670864,3.1622776601683795,8.246211251235321,26.30589287593181,27.29468812791236,22.56102834535696,45.35416188179427,37.10795063055895,30.5,36.0,20.0,6.0,16.0,9.0,6.0,5.0,4.47213595499958,4.0,14.0,40.0,25.6320112359526,{}
401,991,13.038404810405298,93.38094023943002,4.47213595499958,8.54400374531753,26.30589287593181,27.29468812791236,23.345235059857504,49.03060268852505,40.60788100849391,33.5,38.0,22.0,7.0,18.0,11.0,6.0,4.242640687119285,4.47213595499958,3.5,13.0,38.0,27.202941017470888,{}
402,992,11.180339887498947,90.60905032059436,4.123105625617661,9.486832980505138,26.30589287593181,27.459060435491963,23.53720459187964,48.27007354458868,38.8329756778952,32.5,38.0,21.0,6.5,17.5,8.5,5.5,5.0,3.605551275463989,3.0,14.0,39.0,31.04834939252005,{}
403,993,9.219544457292889,91.59148432032316,4.123105625617661,9.219544457292889,25.317977802344327,26.476404589747453,22.36067977499789,44.91102314577124,35.6931365951495,30.5,37.0,20.0,6.5,15.5,7.5,5.5,3.605551275463989,3.605551275463989,3.0,14.0,39.0,27.51363298439521,{}
404,994,8.06225774829855,89.44271909999159,4.47213595499958,9.219544457292889,24.33105012119288,25.495097567963924,22.20360331117452,43.73785545725808,34.52535300326414,30.0,36.0,20.0,6.0,15.0,7.0,5.0,4.242640687119285,3.605551275463989,3.0,13.0,36.0,29.120439557122072,{}
405,995,4.47213595499958,91.41115905621152,6.082762530298219,9.219544457292889,24.186773244895647,25.317977802344327,23.345235059857504,42.95346318982906,33.734255586866,31.0,36.0,20.0,5.0,14.0,6.0,2.0,4.47213595499958,4.47213595499958,4.0,15.0,39.0,29.120439557122072,{}
406,996,3.605551275463989,90.4267659490264,7.071067811865476,8.54400374531753,25.317977802344327,25.317977802344327,22.20360331117452,41.0,32.55764119219941,30.5,35.0,19.0,5.0,13.0,5.0,1.0,3.605551275463989,3.605551275463989,3.5,13.0,38.0,27.202941017470888,{}
407,997,3.1622776601683795,89.44271909999159,5.385164807134504,8.246211251235321,23.194827009486403,24.33105012119288,22.20360331117452,38.8329756778952,30.59411708155671,28.5,35.0,19.0,5.0,11.0,4.0,2.0,3.605551275463989,2.8284271247461903,2.0,13.0,39.0,30.675723300355934,{}
408,998,4.123105625617661,88.45903006477066,5.0990195135927845,8.54400374531753,24.186773244895647,24.515301344262525,22.36067977499789,40.024992192379,31.575306807693888,29.0,35.0,19.0,5.0,12.0,4.0,3.0,3.605551275463989,3.605551275463989,3.5,16.0,41.0,28.16025568065745,{}
409,999,3.605551275463989,91.78235124467012,6.082762530298219,9.486832980505138,24.515301344262525,25.495097567963924,22.36067977499789,41.23105625617661,31.78049716414141,29.5,36.0,18.0,5.0,13.0,5.0,2.0,3.605551275463989,3.605551275463989,3.0,14.0,40.0,29.120439557122072,{}
410,1000,3.1622776601683795,91.98369420718,8.246211251235321,10.44030650891055,23.345235059857504,24.73863375370596,21.37755832643195,43.17406628984581,32.7566787083184,30.5,37.0,18.0,6.5,14.5,5.5,1.5,4.242640687119285,5.0,4.5,13.0,41.0,31.32091952673165,{}
411,1001,10.198039027185567,92.41753080449618,4.47213595499958,8.94427190999916,25.495097567963924,26.68332812825267,22.36067977499789,45.60701700396552,36.87817782917155,31.0,40.0,19.0,7.5,14.5,7.5,6.5,5.0,3.605551275463989,3.5,14.0,42.0,29.410882339705484,{}
412,1002,9.219544457292889,91.00549433962765,4.47213595499958,8.54400374531753,25.317977802344327,26.68332812825267,22.56102834535696,44.64302857109943,36.1386219991853,30.5,38.0,19.0,6.5,14.5,7.5,5.5,3.605551275463989,2.23606797749979,1.5,13.0,40.0,28.792360097775937,{}
413,1003,9.219544457292889,91.98369420718,4.47213595499958,7.615773105863909,26.30589287593181,26.476404589747453,23.345235059857504,44.384682042344295,36.87817782917155,31.5,38.0,19.0,5.5,14.5,7.5,4.5,5.0,3.605551275463989,3.5,13.0,41.0,31.32091952673165,{}
414,1004,7.280109889280518,91.78235124467012,5.385164807134504,8.54400374531753,25.317977802344327,26.476404589747453,22.36067977499789,43.41658669218482,34.92849839314596,30.5,36.0,18.0,5.0,15.0,8.0,3.0,4.242640687119285,3.605551275463989,3.5,12.0,40.0,29.73213749463701,{}
415,1005,7.071067811865476,90.60905032059436,5.385164807134504,8.54400374531753,24.33105012119288,24.33105012119288,22.20360331117452,42.95346318982906,34.52535300326414,30.5,36.0,19.0,5.5,14.5,6.5,3.5,3.605551275463989,2.8284271247461903,2.5,13.0,40.0,28.46049894151541,{}
416,1006,3.1622776601683795,90.4267659490264,7.071067811865476,8.54400374531753,25.179356624028344,24.515301344262525,22.20360331117452,40.79215610874228,32.38826948140329,30.5,35.0,19.0,5.0,13.0,5.0,1.0,4.47213595499958,3.605551275463989,2.5,15.0,39.0,30.364452901377952,{}
417,1007,4.123105625617661,90.09439494219384,5.0990195135927845,9.219544457292889,24.186773244895647,25.317977802344327,24.186773244895647,42.579337712087536,33.37663853655727,31.0,35.0,21.0,4.0,14.0,6.0,1.0,5.830951894845301,5.830951894845301,5.0,16.0,39.0,32.01562118716424,{}
418,1008,3.1622776601683795,88.81441324469807,6.082762530298219,10.198039027185567,23.08679276123039,24.33105012119288,23.08679276123039,42.42640687119285,32.2490309931942,30.5,34.0,22.0,5.0,14.0,5.0,1.0,6.708203932499369,6.324555320336759,6.0,16.0,38.0,32.984845004941285,{}
419,1009,6.0,89.67719888578144,5.385164807134504,7.071067811865476,24.020824298928627,25.079872407968907,24.020824298928627,42.190046219457976,35.12833614050059,32.0,35.0,24.0,5.5,12.5,4.5,2.5,6.324555320336759,7.071067811865476,7.0,19.0,37.0,33.54101966249684,{}
420,1010,4.0,90.448880590088,7.071067811865476,8.246211251235321,24.08318915758459,25.079872407968907,23.08679276123039,42.2965719651132,34.132096331752024,32.0,33.0,24.0,5.5,13.5,4.5,0.5,6.324555320336759,6.324555320336759,6.5,20.0,36.0,30.59411708155671,{}
421,1011,7.0,87.36704184073076,6.082762530298219,8.246211251235321,24.020824298928627,25.079872407968907,23.021728866442675,44.181444068749045,36.05551275463989,32.5,33.0,25.0,6.0,15.0,6.0,2.0,5.830951894845301,5.0990195135927845,5.0,18.0,35.0,29.61418578992169,{}
422,1012,7.0,88.36288813749809,5.0990195135927845,9.055385138137416,24.08318915758459,25.079872407968907,23.021728866442675,44.10215414239989,35.05709628591621,31.5,33.0,25.0,6.0,15.0,6.0,3.0,6.324555320336759,6.324555320336759,6.0,20.0,36.0,29.61418578992169,{}
423,1013,4.0,90.35485598461214,6.0,8.06225774829855,24.020824298928627,25.079872407968907,24.020824298928627,42.04759208325728,34.0147027033899,32.0,33.0,25.0,5.0,13.0,5.0,1.0,5.385164807134504,6.082762530298219,6.5,19.0,34.0,27.65863337187866,{}
424,1014,6.0,88.45903006477066,5.0990195135927845,9.055385138137416,24.020824298928627,25.079872407968907,24.0,44.04543109109048,35.0142828000232,32.0,34.0,25.0,5.5,14.5,5.5,2.5,5.385164807134504,6.324555320336759,6.0,19.0,34.0,27.892651361962702,{}
425,1015,9.0,88.45903006477066,4.123105625617661,8.06225774829855,24.08318915758459,25.079872407968907,24.020824298928627,45.09988913511872,37.05401462729781,32.5,36.0,27.0,7.5,13.5,5.5,5.5,6.324555320336759,5.0990195135927845,6.0,19.0,35.0,27.65863337187866,{}
426,1016,11.0,89.56003573022959,4.123105625617661,8.06225774829855,25.079872407968907,25.079872407968907,23.08679276123039,46.17358552246078,38.11823710509184,32.5,36.0,26.0,8.0,15.0,7.0,6.0,5.0990195135927845,6.324555320336759,6.5,19.0,35.0,29.61418578992169,{}
427,1017,11.04536101718726,90.55385138137416,4.123105625617661,8.06225774829855,23.08679276123039,24.186773244895647,23.021728866442675,46.17358552246078,38.11823710509184,32.5,36.0,26.0,8.0,15.0,7.0,6.0,5.385164807134504,6.082762530298219,6.0,18.0,35.0,29.61418578992169,{}
428,1018,11.04536101718726,89.56003573022959,4.123105625617661,8.246211251235321,25.079872407968907,25.179356624028344,24.020824298928627,47.265209192385896,39.11521443121589,33.5,37.0,27.0,8.0,15.0,7.0,6.0,3.605551275463989,2.23606797749979,2.0,18.0,36.0,30.80584360149873,{}
429,1019,11.04536101718726,90.55385138137416,4.123105625617661,7.071067811865476,25.079872407968907,25.079872407968907,23.08679276123039,45.27692569068709,38.2099463490856,32.5,36.0,26.0,8.0,14.0,7.0,6.0,2.8284271247461903,3.605551275463989,3.0,20.0,36.0,30.59411708155671,{}
430,1020,11.04536101718726,90.55385138137416,4.123105625617661,7.280109889280518,25.019992006393608,25.179356624028344,23.021728866442675,45.27692569068709,38.11823710509184,32.5,36.0,26.0,8.0,14.0,7.0,5.0,3.605551275463989,4.123105625617661,4.0,18.0,35.0,29.61418578992169,{}
431,1021,8.06225774829855,89.56003573022959,4.123105625617661,8.06225774829855,24.08318915758459,24.08318915758459,24.020824298928627,44.181444068749045,36.12478373637688,32.0,37.0,27.0,8.0,12.0,4.0,6.0,4.242640687119285,4.123105625617661,3.5,18.0,34.0,31.78049716414141,{}
432,1022,4.123105625617661,89.45389874119518,5.0990195135927845,8.246211251235321,24.08318915758459,25.079872407968907,24.08318915758459,41.19465984809196,33.06055050963308,31.0,34.0,25.0,5.5,11.5,3.5,2.5,5.830951894845301,4.123105625617661,4.5,18.0,34.0,26.68332812825267,{}
433,1023,5.0,90.448880590088,6.0,8.246211251235321,23.021728866442675,24.08318915758459,23.08679276123039,42.190046219457976,34.058772731852805,31.5,34.0,25.0,6.5,12.5,4.5,2.5,5.385164807134504,5.385164807134504,5.0,19.0,34.0,28.635642126552707,{}
434,1024,11.0,91.54780172128658,4.123105625617661,8.06225774829855,25.079872407968907,26.0768096208106,23.08679276123039,46.17358552246078,38.11823710509184,32.5,36.0,26.0,8.0,15.0,7.0,6.0,5.385164807134504,6.082762530298219,6.0,17.0,33.0,29.61418578992169,{}
435,1025,10.0,88.45903006477066,4.123105625617661,8.06225774829855,24.020824298928627,24.08318915758459,24.08318915758459,46.17358552246078,38.11823710509184,33.0,37.0,28.0,8.5,13.5,4.5,5.5,5.0990195135927845,6.082762530298219,6.5,19.0,35.0,33.54101966249684,{}
436,1026,11.04536101718726,89.35882720806042,4.123105625617661,8.06225774829855,24.08318915758459,26.0768096208106,24.020824298928627,47.16990566028302,39.11521443121589,33.5,36.0,28.0,8.0,15.0,7.0,6.0,7.280109889280518,7.071067811865476,7.0,19.0,35.0,31.575306807693888,{}
437,1027,9.0,88.45903006477066,4.123105625617661,8.06225774829855,23.08679276123039,24.08318915758459,25.019992006393608,46.09772228646444,38.05259518088089,33.5,37.0,28.0,7.5,13.5,5.5,5.5,7.280109889280518,7.071067811865476,7.0,20.0,34.0,32.55764119219941,{}
438,1028,9.055385138137416,89.45389874119518,3.0,8.06225774829855,23.08679276123039,23.08679276123039,25.079872407968907,45.17742799230607,37.12142238654117,32.5,36.0,27.0,6.5,13.5,5.5,5.5,6.082762530298219,6.082762530298219,7.0,20.0,34.0,30.4138126514911,{}
439,1029,11.0,90.35485598461214,3.0,8.06225774829855,24.020824298928627,26.0768096208106,24.08318915758459,46.09772228646444,38.05259518088089,32.5,36.0,28.0,8.0,14.0,5.0,6.0,6.082762530298219,6.082762530298219,6.0,20.0,34.0,30.4138126514911,{}
440,1030,10.0,89.20201791439474,4.123105625617661,8.0,24.020824298928627,25.079872407968907,24.020824298928627,46.04345773288535,38.05259518088089,33.0,34.0,28.0,7.0,15.0,7.0,5.0,6.324555320336759,6.082762530298219,6.5,21.0,34.0,28.442925306655784,{}
441,1031,8.0,88.09086218218096,3.0,8.06225774829855,24.0,24.020824298928627,24.0,43.01162633521314,35.0,31.0,33.0,29.0,7.0,12.0,4.0,5.0,7.071067811865476,8.06225774829855,8.0,22.0,33.0,33.37663853655727,{}
442,1032,6.0,89.05054744357274,5.0,8.0,25.0,25.0,23.0,42.0,34.0,31.0,32.0,29.0,7.5,11.5,2.5,3.5,6.324555320336759,6.082762530298219,6.5,22.0,30.0,31.064449134018133,{}
443,1033,5.0,87.00574693662483,4.123105625617661,8.0,23.0,23.021728866442675,25.019992006393608,42.0,34.0,31.5,32.0,31.0,6.5,10.5,2.5,3.5,6.0,7.071067811865476,7.0,24.0,30.0,30.14962686336267,{}
444,1034,3.0,87.0,5.0,7.071067811865476,24.020824298928627,24.0,26.019223662515376,41.04875150354759,34.0147027033899,32.5,31.0,31.0,5.0,10.0,1.0,1.0,7.0,6.082762530298219,6.0,25.0,31.0,28.16025568065745,{}
445,1035,2.0,85.0,6.0,9.055385138137416,24.020824298928627,24.0,25.079872407968907,42.1070065428546,33.06055050963308,32.0,31.0,31.0,6.0,11.0,1.0,1.0,6.0,7.071067811865476,7.0,24.0,30.0,32.0624390837628,{}
446,1036,2.0,86.00581375697809,5.0,8.06225774829855,22.02271554554524,24.0,25.079872407968907,40.11234224026316,32.0624390837628,31.0,30.0,31.0,5.5,9.5,0.5,1.5,6.0,7.071067811865476,6.5,25.0,30.0,29.017236257093817,{}
447,1037,3.1622776601683795,86.05230967266364,4.0,7.071067811865476,23.08679276123039,24.020824298928627,25.079872407968907,39.20459156782532,32.14031735997639,30.5,29.0,32.0,5.5,8.5,0.5,1.5,6.0,7.0,7.0,26.0,29.0,30.066592756745816,{}
448,1038,1.4142135623730951,85.09406559801923,5.0990195135927845,7.071067811865476,23.021728866442675,24.08318915758459,26.019223662515376,39.20459156782532,32.14031735997639,31.5,29.0,33.0,5.0,8.0,1.0,1.0,5.0,7.0,7.0,26.0,27.0,28.0713376952364,{}
449,1039,1.0,81.2219182240853,5.0,7.071067811865476,23.194827009486403,23.021728866442675,26.1725046566048,38.3275357934736,31.25699921617557,31.0,28.0,34.0,5.0,7.0,2.0,0.0,6.0,7.0,7.0,28.0,28.0,28.0178514522438,{}
450,1040,2.0,82.21921916437786,5.0,7.071067811865476,22.09072203437452,22.09072203437452,26.1725046566048,38.47076812334269,31.400636936215164,31.0,27.0,33.0,4.0,8.0,1.0,0.0,6.082762530298219,6.082762530298219,6.0,28.0,27.0,33.015148038438355,{}
451,1041,2.23606797749979,82.21921916437786,4.0,6.324555320336759,22.20360331117452,23.194827009486403,25.179356624028344,37.48332962798263,31.25699921617557,30.0,27.0,33.0,5.0,7.0,2.0,0.0,6.0,7.0,7.0,29.0,27.0,33.015148038438355,{}
452,1042,2.8284271247461903,86.20904824900923,3.1622776601683795,7.071067811865476,23.08679276123039,23.08679276123039,25.179356624028344,37.65634076752546,30.59411708155671,29.0,26.0,32.0,4.0,8.0,1.0,1.0,5.0,6.0,6.0,27.0,25.0,30.0,{}
453,1043,2.23606797749979,84.29116205154607,4.123105625617661,6.082762530298219,23.194827009486403,23.194827009486403,24.08318915758459,35.510561809129406,29.42787793912432,28.5,25.0,32.0,4.5,6.5,1.5,0.5,6.0,6.0,6.0,26.0,24.0,30.0,{}
454,1044,3.1622776601683795,85.28774824088158,4.123105625617661,6.082762530298219,22.20360331117452,23.08679276123039,24.08318915758459,35.6931365951495,29.61418578992169,28.5,26.0,33.0,5.5,5.5,2.5,0.5,5.0990195135927845,6.082762530298219,6.0,26.0,25.0,29.0,{}
455,1045,2.0,86.28441342444185,5.0990195135927845,6.082762530298219,23.194827009486403,24.186773244895647,24.186773244895647,35.6931365951495,29.61418578992169,29.0,26.0,33.0,5.5,5.5,2.5,0.5,5.0,6.082762530298219,6.5,26.0,24.0,27.018512172212592,{}
456,1046,1.4142135623730951,80.30566605165541,5.0990195135927845,7.071067811865476,21.095023109728988,22.02271554554524,24.186773244895647,37.48332962798263,30.4138126514911,29.5,26.0,33.0,5.5,7.5,1.5,0.5,7.0,7.071067811865476,7.5,29.0,27.0,31.016124838541646,{}
457,1047,2.8284271247461903,87.36704184073076,4.123105625617661,7.280109889280518,24.186773244895647,24.186773244895647,23.194827009486403,36.87817782917155,29.61418578992169,28.0,24.0,32.0,5.0,8.0,1.0,0.0,6.0,6.0,6.0,28.0,26.0,30.0,{}
458,1048,2.23606797749979,84.29116205154607,4.123105625617661,6.082762530298219,24.08318915758459,24.186773244895647,24.186773244895647,35.6931365951495,29.61418578992169,28.5,25.0,32.0,4.5,6.5,1.5,0.5,6.0,7.0,6.5,28.0,25.0,33.0,{}
459,1049,2.23606797749979,86.28441342444185,4.123105625617661,7.071067811865476,23.08679276123039,23.08679276123039,24.186773244895647,36.6742416417845,29.61418578992169,28.5,25.0,32.0,4.5,7.5,1.5,0.5,7.0,7.0,7.0,28.0,25.0,29.017236257093817,{}
460,1050,2.0,82.38931969618392,4.123105625617661,7.071067811865476,23.194827009486403,23.194827009486403,24.186773244895647,35.6931365951495,28.635642126552707,28.0,25.0,33.0,5.0,6.0,3.0,0.0,6.0,7.0,7.0,28.0,24.0,31.0,{}
461,1051,3.1622776601683795,87.28115489611719,4.0,7.071067811865476,24.186773244895647,24.186773244895647,25.179356624028344,37.65634076752546,30.59411708155671,29.5,26.0,33.0,4.5,7.5,1.5,0.5,5.0,6.0,6.5,27.0,24.0,29.0,{}
462,1052,2.23606797749979,86.20904824900923,4.123105625617661,7.071067811865476,23.194827009486403,24.186773244895647,25.079872407968907,37.48332962798263,30.4138126514911,29.5,26.0,32.0,4.0,8.0,1.0,0.0,6.0,6.0,6.0,28.0,25.0,30.0,{}
463,1053,2.23606797749979,87.28115489611719,4.123105625617661,7.280109889280518,23.08679276123039,24.08318915758459,24.33105012119288,37.8549864614954,30.59411708155671,29.0,25.0,32.0,4.5,8.5,0.5,0.5,6.0,7.071067811865476,7.0,28.0,25.0,31.016124838541646,{}
464,1054,2.0,80.30566605165541,4.0,7.071067811865476,22.20360331117452,22.09072203437452,26.30589287593181,37.65634076752546,30.59411708155671,30.0,27.0,34.0,4.5,6.5,2.5,0.5,6.0,6.0,6.0,29.0,27.0,31.016124838541646,{}
465,1055,2.23606797749979,86.28441342444185,4.123105625617661,6.082762530298219,24.186773244895647,23.08679276123039,24.08318915758459,35.510561809129406,29.42787793912432,28.5,25.0,32.0,4.5,6.5,1.5,0.5,6.0,6.082762530298219,6.5,28.0,25.0,29.0,{}
466,1056,2.23606797749979,87.20665112249179,4.0,7.071067811865476,24.08318915758459,24.186773244895647,25.179356624028344,37.48332962798263,30.4138126514911,29.5,26.0,32.0,4.0,8.0,1.0,0.0,4.0,4.0,4.0,28.0,26.0,30.01666203960727,{}
467,1057,2.23606797749979,87.20665112249179,4.0,8.06225774829855,23.08679276123039,24.186773244895647,24.186773244895647,37.48332962798263,29.42787793912432,28.5,25.0,31.0,4.0,9.0,0.0,0.0,2.0,3.0,3.0,28.0,27.0,28.0178514522438,{}
468,1058,3.1622776601683795,88.2779700718135,4.0,7.071067811865476,23.08679276123039,23.08679276123039,25.179356624028344,37.65634076752546,30.59411708155671,29.5,25.0,32.0,3.5,8.5,0.5,0.5,2.0,3.0,3.0,28.0,26.0,26.019223662515376,{}
469,1059,2.8284271247461903,87.20665112249179,3.0,7.280109889280518,23.194827009486403,24.08318915758459,25.179356624028344,37.65634076752546,30.4138126514911,29.0,25.0,31.0,3.0,9.0,0.0,1.0,3.0,4.0,4.0,28.0,25.0,29.017236257093817,{}
470,1060,2.8284271247461903,88.20430828479978,5.0,8.06225774829855,24.08318915758459,25.079872407968907,24.186773244895647,39.45883931389772,31.400636936215164,30.0,25.0,31.0,4.0,11.0,1.0,1.0,5.0990195135927845,5.0,5.0,28.0,26.0,31.0,{}
471,1061,6.082762530298219,88.14193099768123,5.0990195135927845,8.06225774829855,24.186773244895647,25.019992006393608,25.079872407968907,44.28317965096906,36.22154055254967,33.0,29.0,34.0,6.5,12.5,2.5,1.5,6.0,6.0,6.5,29.0,26.0,32.0,{}
472,1062,8.06225774829855,89.1403387922662,3.0,8.06225774829855,24.08318915758459,25.019992006393608,25.179356624028344,44.28317965096906,36.22154055254967,32.0,29.0,34.0,6.5,12.5,2.5,3.5,6.0,6.0,6.0,28.0,27.0,30.01666203960727,{}
473,1063,8.06225774829855,90.13878188659972,4.0,8.246211251235321,26.1725046566048,27.018512172212592,24.186773244895647,44.40720662234904,36.22154055254967,32.0,30.0,35.0,8.5,11.5,1.5,3.5,6.0,7.0,6.5,29.0,27.0,30.0,{}
474,1064,1.4142135623730951,86.14522621712709,7.0,7.071067811865476,23.08679276123039,23.08679276123039,25.317977802344327,40.44749683231337,33.37663853655727,32.5,29.0,34.0,6.5,8.5,0.5,0.5,7.0,7.0,7.0,29.0,27.0,33.0,{}
475,1065,1.4142135623730951,81.49846624323675,6.082762530298219,7.071067811865476,21.095023109728988,22.20360331117452,24.33105012119288,38.63935817272331,31.575306807693888,30.5,27.0,36.0,7.5,6.5,2.5,1.5,6.082762530298219,7.0,7.0,29.0,26.0,29.0,{}
476,1066,2.23606797749979,76.53103945458993,4.0,8.06225774829855,24.186773244895647,24.33105012119288,26.30589287593181,39.6232255123179,31.575306807693888,30.5,28.0,37.0,6.5,6.5,4.5,2.5,6.0,6.082762530298219,6.0,30.0,25.0,30.01666203960727,{}
477,1067,2.23606797749979,79.51100552753688,5.0990195135927845,8.246211251235321,24.186773244895647,25.179356624028344,25.179356624028344,40.60788100849391,32.38826948140329,31.0,29.0,38.0,8.5,6.5,4.5,3.5,6.0,6.0,6.5,30.0,23.0,29.068883707497267,{}
478,1068,2.0,77.64663547121665,4.123105625617661,9.219544457292889,23.194827009486403,24.186773244895647,26.30589287593181,41.593268686170845,32.38826948140329,31.0,27.0,37.0,6.0,9.0,3.0,2.0,5.0,5.0990195135927845,5.5,30.0,22.0,29.068883707497267,{}
479,1069,1.4142135623730951,79.76214641043707,4.123105625617661,9.219544457292889,25.179356624028344,25.179356624028344,27.16615541441225,41.593268686170845,32.38826948140329,31.5,28.0,39.0,6.5,7.5,4.5,2.5,5.0,5.0990195135927845,5.5,29.0,21.0,27.16615541441225,{}
480,1070,2.23606797749979,77.78174593052023,5.0990195135927845,10.198039027185567,24.33105012119288,24.33105012119288,26.30589287593181,43.73785545725808,33.54101966249684,32.0,29.0,40.0,8.5,8.5,4.5,2.5,6.0,6.082762530298219,6.5,31.0,21.0,29.154759474226505,{}
481,1071,5.385164807134504,79.76214641043707,4.123105625617661,9.219544457292889,25.317977802344327,26.476404589747453,25.317977802344327,43.93176527297759,34.713109915419565,31.5,28.0,39.0,8.5,9.5,2.5,4.5,6.082762530298219,6.082762530298219,6.5,33.0,22.0,32.0624390837628,{}
482,1072,7.280109889280518,77.46612162745726,3.605551275463989,9.486832980505138,23.345235059857504,24.515301344262525,25.495097567963924,45.60701700396552,36.1386219991853,31.5,26.0,41.0,8.5,10.5,1.5,4.5,7.071067811865476,7.071067811865476,7.0,33.0,21.0,31.14482300479488,{}
483,1073,9.219544457292889,76.48529270389177,3.605551275463989,9.486832980505138,23.53720459187964,24.73863375370596,25.495097567963924,47.53945729601885,38.07886552931954,32.5,26.0,41.0,8.5,12.5,0.5,3.5,6.082762530298219,6.082762530298219,6.0,34.0,21.0,32.14031735997639,{}
484,1074,9.219544457292889,79.62411694957753,3.605551275463989,9.486832980505138,23.769728648009423,24.515301344262525,26.476404589747453,48.507731342539614,39.05124837953327,33.5,26.0,42.0,8.0,13.0,1.0,3.0,4.123105625617661,4.47213595499958,4.5,33.0,20.0,27.459060435491963,{}
485,1075,10.198039027185567,80.8084154033477,3.605551275463989,9.486832980505138,23.53720459187964,24.73863375370596,25.495097567963924,48.507731342539614,39.05124837953327,33.0,24.0,41.0,7.5,14.5,2.5,2.5,3.1622776601683795,4.47213595499958,4.0,35.0,20.0,30.4138126514911,{}
486,1076,8.246211251235321,80.60397012554654,4.47213595499958,10.44030650891055,23.53720459187964,23.769728648009423,25.70992026436488,48.76474136094644,38.3275357934736,33.0,25.0,41.0,8.0,14.0,1.0,2.0,5.0990195135927845,5.385164807134504,5.0,35.0,19.0,29.42787793912432,{}
487,1077,7.280109889280518,82.97590011563598,4.47213595499958,8.94427190999916,22.56102834535696,24.73863375370596,24.73863375370596,45.22167621838005,36.40054944640259,31.5,23.0,41.0,8.0,11.0,0.0,3.0,5.385164807134504,5.0990195135927845,5.5,35.0,19.0,30.26549190084312,{}
488,1078,9.486832980505138,82.76472678623425,4.47213595499958,7.615773105863909,22.80350850198276,22.80350850198276,24.73863375370596,46.17358552246078,38.60051813123757,32.5,24.0,41.0,8.5,11.5,0.5,3.5,5.0990195135927845,6.324555320336759,6.0,35.0,20.0,30.59411708155671,{}
489,1079,6.708203932499369,81.78630692236935,4.123105625617661,6.708203932499369,21.840329667841555,21.840329667841555,24.73863375370596,42.05948168962618,35.4400902933387,31.0,23.0,40.0,7.5,8.5,0.5,1.5,6.082762530298219,6.324555320336759,6.5,34.0,19.0,29.61418578992169,{}
490,1080,6.324555320336759,80.8084154033477,4.47213595499958,6.708203932499369,22.80350850198276,23.769728648009423,24.73863375370596,42.05948168962618,35.4400902933387,31.0,23.0,40.0,7.5,8.5,1.5,1.5,5.0990195135927845,6.324555320336759,6.0,34.0,18.0,29.42787793912432,{}
