,video_id,frame_seq,time_seconds,m1,m3,m4,m5,m6,m7,m8,m9,m10,m11,m12,m13,m14,m15,m16,m17,e1,e2,e3,b1,b2,b3,label_measures
0,144,0,0.0,1.8238430103501744,148.13602784023436,16.515600890221112,20.145004487991727,38.47401045185552,38.34410346155296,59.07111891099653,95.9556377055794,75.85959237089106,74.77756342435873,91.19215051751064,80.24909245540937,27.35764515525318,9.119215051751098,10.943058062101272,14.590744082801734,13.277777536145734,14.70429244187618,13.678822577626647,34.653017196654105,56.53913332085665,42.578043788903855,"{'others': ['m1', 'm3', 'm12', 'e1', 'e2']}"
1,144,1,0.0333666666666666,1.7564821274186215,149.80640547289548,15.905622152031482,17.912673285969976,38.80195843515364,38.6825062529765,58.6254690627776,92.69500556705704,74.7898456886075,73.77224935158608,89.58058849835447,77.28521360642344,25.468990847571376,7.904169573384252,11.417133828221608,13.173615955640344,11.108968384042482,12.420204233307482,11.417133828221722,31.616678293536893,52.69446382256149,37.26061269992249,"{'others': ['m1', 'm3', 'm12', 'e1', 'e2']}"
2,144,2,0.0667333333333332,1.7497806076700044,144.16323388350676,14.107182262010024,23.014770610875004,35.17015494266575,37.11845199816543,60.41179315807271,95.79149924919771,72.77909495666954,72.61589521830501,85.73924977582999,71.74100491446995,19.24758668437005,15.74802546903004,6.999122430680018,8.748903038350022,17.844330926031187,17.58507747133275,16.622915772864985,36.74539276107004,55.99297944544003,51.22406147462482,"{'others': ['m1', 'm3', 'm12', 'e1', 'e2']}"
3,144,3,0.1000999999999998,2.4906291244237644,134.4132336516187,12.45314562211916,16.707648086857457,33.64654665735625,35.39849084292292,64.0096530540538,94.987383540291,78.46470024579524,76.60962233358498,86.29589642173937,73.96791121863373,16.730837061357647,13.20855557475602,4.402851858252006,7.925133344853634,14.522738612416136,14.522738612416026,14.089125946406398,31.700533379414424,54.59536304232489,46.09346430497688,"{'others': ['m1', 'm3', 'm12', 'e1', 'e2']}"
4,144,4,0.1334666666666664,2.4962486946744997,138.59239295324818,15.983790519529467,19.73457870348307,35.478359942703264,33.72246287096454,62.680203274565166,96.93676484626704,77.20231759751178,76.78247550965534,93.55106211521228,77.66503269942154,23.82904412368612,9.708129087427665,9.708129087427778,11.47324346696007,12.850226650144396,10.736771609509711,10.590686277193868,37.067401970178366,58.248774524566045,47.95137155858844,"{'others': ['m1', 'm3', 'm12', 'e1', 'e2']}"
5,144,5,0.166833333333333,3.925456770337538,142.8887832683885,14.476369283723422,17.902837367311673,37.032685106068406,37.03268510606841,64.07038139407472,100.18762374395834,82.28491508188907,78.99829363090419,93.04243472084272,78.99829363090419,22.82172927115016,12.288623453696118,7.022070544969324,12.288623453696232,11.102868406241374,10.67839689901249,9.655346999332778,36.86587036108864,57.93208199599644,44.44615654600683,"{'others': ['m1', 'm3', 'm12', 'e1', 'e2']}"
6,144,6,0.2001999999999996,5.280878938140654,134.63652377250258,15.122135938624686,18.67072653892242,36.890634301049,35.227856377996815,57.655977463124415,96.64152742030136,77.9712431241605,74.31324444000529,90.17786965753442,73.4782641653984,25.049408238204023,13.35968439370879,5.009881647640782,13.35968439370879,10.561757876281307,10.157973455832773,8.349802746068008,31.729250435058415,53.438737574835216,40.39095713175082,"{'others': ['m1', 'm3', 'm12', 'e1', 'e2']}"
7,144,7,0.2335666666666662,16.282181004231642,137.6078673444399,14.827232872323954,20.501107755047293,39.92354632561338,41.51157933221355,59.770486555360336,111.14608532164029,90.78008183348156,81.81200737364998,98.89363528682976,82.71104042171214,31.466156682173164,18.87969400930376,0.8990330480621651,20.67776010542809,10.484436910252436,10.937209076503738,9.88936352868302,28.769057537986896,55.74004897984952,44.080132183385714,"{'others': ['m1', 'm3', 'm12', 'e1', 'e2']}"
8,144,8,0.2669333333333328,14.046166201766782,135.2769386549164,16.062405568594247,19.86427874188517,36.957908123336736,40.22209886038737,54.70658207876021,104.56178265309084,84.77971916437843,76.65734986061022,97.56389982259486,80.14177485427433,34.84424993664095,13.937699974656423,5.226637490496159,22.64876245881669,10.158757259626022,10.59746489554732,9.582168732576292,33.102037439808896,55.75079989862559,47.83951824198047,"{'others': ['m1', 'm3', 'm12', 'e1', 'e2']}"
9,144,9,0.3002999999999994,18.301852012355464,130.3016347832251,15.276525413351894,16.897863347458514,38.43317486130555,39.90516591189881,53.66645002028941,104.05994143714472,87.17624670103956,77.04918990427439,94.4473940762074,77.87767581722358,33.13943651796751,16.5697182589837,1.6569718258983812,21.54063373667884,11.11530491853218,10.078966136334442,9.11334504244104,33.139436517967454,53.02309842874797,49.06987150082021,"{'others': ['m1', 'm3', 'm12', 'e1', 'e2']}"
10,144,10,0.333666666666666,23.66720262207816,124.02591747637771,13.594727105062976,17.19612072817035,37.249781263133166,38.92937401887276,54.89929260645553,109.22738983328507,92.0496089560216,79.2522633095922,92.74201025590573,77.56604494130295,31.19503981335015,22.76394797190403,4.215545920723002,19.391511235325765,10.664581352413103,11.923364427786044,10.96041939387976,35.410585734073095,55.64520615354343,46.6384956334381,"{'others': ['m1', 'm3', 'm12', 'e1', 'e2']}"
11,144,11,0.3670333333333326,22.26572086658217,128.9965761171938,15.4639068779533,19.092698128984576,36.22584765937579,39.31427166590783,53.37766619417553,110.14352334561433,91.08637841731024,79.40818185594378,95.63135879425488,80.26203327374958,35.00790813003971,21.34628544514624,0.8538514178059131,23.053988280757835,9.196261211379888,12.075282553125284,11.100068431476018,32.4463538766222,58.0618964107976,46.89191536892244,"{'others': ['m1', 'm3', 'm12', 'e1', 'e2']}"
12,144,12,0.4003999999999992,19.41363327404117,129.66214370797906,17.45068591128598,19.413633274041057,38.5545176964969,40.27568660237981,54.27490810975397,110.504337849363,91.10766593181172,80.74297886527427,98.97526441549758,81.61118293909442,36.46457110044639,19.100489624043465,1.7364081476401907,22.57330591932396,12.641242127463556,15.723844533882732,14.759469254942587,38.20097924808681,64.24710146269143,53.12387417027648,"{'others': ['m1', 'm3', 'm12', 'e1', 'e2']}"
13,144,13,0.4337666666666658,13.709716856932568,129.78358666710332,15.398511204946145,19.38846751536903,39.4423647535579,39.25865455714871,53.69321218930446,102.05720291489116,82.74898134180478,74.82116803228439,93.52646004035536,81.62309239885565,34.85986237867792,12.75360818732122,4.251202729107035,22.956494737178105,10.7547867352818,10.34362266772558,10.202886549856942,32.309140741213696,56.11587602421321,50.04155000265385,"{'others': ['m1', 'm3', 'm12', 'e1', 'e2']}"
14,144,14,0.4671333333333324,12.32550056992726,131.66957919669096,17.77608972025345,19.253047366332407,36.77050288293015,36.64634776353051,52.7554462208669,102.0563355816704,82.82883113841105,75.82437180027398,92.38371736585113,76.69591630372543,32.247146627702705,16.559345565577132,2.614633510354224,18.30243457247991,11.024262852427986,12.689879517049684,12.201623048320016,31.37560212425132,59.26502623469696,51.02816779083503,"{'others': ['m1', 'm3', 'm12', 'e1', 'e2']}"
15,144,15,0.5004999999999991,8.93819600182485,132.71941966297268,14.74125048719884,20.38222285200005,37.71029024355629,39.49024067301392,56.13300950360612,99.93206928148554,79.64529498157901,74.18702681514594,91.16959921861304,80.44376401642319,30.38986640620442,12.51347440255472,7.150556801459857,17.8763920036497,9.626731709659436,12.640518008929613,10.725835202189842,33.96514480693429,57.20445441167874,47.02544530561721,"{'others': ['m1', 'm3', 'm12', 'e1', 'e2']}"
16,144,16,0.5338666666666656,5.170636884126566,126.77143829669778,15.607369465074967,19.269825933124505,34.856553165291764,36.35823485422222,52.41959382757155,92.382688774863,73.1238480763834,69.80359793570858,91.34791828623588,75.83600763385618,31.885594118780546,7.755955326189792,9.479500954232094,19.820774722485226,11.561895559874754,14.212721349978942,12.064819396295263,27.57673004867496,53.42991446930779,44.31222066895925,"{'others': ['m1', 'm3', 'm12', 'e1', 'e2']}"
17,144,17,0.5672333333333321,3.94036083043693,129.40951252168986,15.957245156175372,19.701804152184803,35.41943862771654,37.17328972783712,57.07405575963527,96.47046293213594,76.77133542375195,74.01168325097001,93.39569553098602,79.29823205461071,29.95710988729741,8.810914672734498,10.573097607281513,15.85964641092221,11.145023454095236,12.828885408516248,11.454189074554847,35.243658690938105,59.91421977459481,50.1216375839812,"{'others': ['m1', 'm3', 'm12', 'e1', 'e2']}"
18,144,18,0.6005999999999987,3.557488543619911,135.75676465536975,16.107214443494932,20.280805062535727,37.52265152012907,37.39595678074776,55.853703081476944,95.6230156562507,75.46572819561294,72.92851514420829,90.71595786230785,78.26474795963816,29.349280484864263,9.783093494954755,11.561837766764713,15.119326310384622,10.371772282155485,10.819679007548302,10.672465630859849,30.23865262076936,56.91981669791869,49.19763567632085,"{'others': ['m1', 'm3', 'm12', 'e1', 'e2']}"
19,144,19,0.6339666666666652,3.987736627785095,136.4831625274506,16.149102512718407,18.186877219072844,34.07123668313548,35.711957124873315,55.742795792979805,93.82628220921616,75.66198271607927,73.118171443964,94.51861186658743,78.46828154961975,31.20897561632603,6.241795123265206,13.37527526413976,16.942015334577036,11.279022444371156,12.610330452679944,11.591905228921178,33.88403066915396,58.85121116221484,48.96966557591373,"{'others': ['m1', 'm3', 'm12', 'e1', 'e2']}"
20,144,20,0.6673333333333318,3.9702159913323887,132.155126422539,16.369619888779877,19.851079956661945,35.687803146744386,35.687803146744386,57.50649207473041,96.92532460934837,77.08765051370071,74.57245187259798,94.10333212494504,79.89905557778354,30.184087662718294,8.877672841975937,12.428741978766311,15.979811115556686,11.229466600985612,14.314817331416132,13.316509262964018,30.184087662718294,55.04157162025092,52.2502145554296,"{'others': ['m1', 'm3', 'm12', 'e1', 'e2']}"
21,144,21,0.7006999999999983,1.737931708163842,139.4250229361516,17.723495386438856,19.430667198534167,38.39216627977473,38.39216627977474,56.28860050428823,95.14283287172944,75.71480548092562,73.86209759696612,90.3724488245232,79.9448585755398,29.544839038786336,8.689658540819664,13.90345366531119,15.641385373475032,12.652333815498206,12.289032960818208,11.296556103065427,33.02070245511425,57.35174636940894,38.86133439706816,"{'others': ['m1', 'm3', 'm12', 'e1', 'e2']}"
22,144,22,0.7340666666666649,2.484040846661603,137.4103501171626,15.905622152031368,21.150845663270765,37.0530310697238,38.6825062529765,57.53652070475851,96.46269778130404,75.44699040367249,72.89400828787677,89.58058849835459,79.04169573384229,28.103714038699536,10.538892764512184,12.295374891931148,15.808339146768503,11.782840314515166,10.684263669801055,9.660651700802989,35.12964254837436,59.72039233223643,49.959489952646464,"{'others': ['m1', 'm3', 'm12', 'e1', 'e2']}"
23,144,23,0.7674333333333314,2.503032853757777,136.84518074391303,16.02723033298667,21.31255677662358,37.33632408801594,39.09862306968963,57.324370763545566,96.61836505455706,75.36165966741154,73.45132743362831,90.26548672566366,77.87610619469024,27.433628318584056,11.504424778761177,11.50442477876095,13.27433628318579,11.193903221834963,12.51516426878842,11.504424778761065,31.858407079645986,54.86725663716811,48.95333340155511,"{'others': ['m1', 'm3', 'm12', 'e1', 'e2']}"
24,144,24,0.800799999999998,2.462902908793456,131.18281908890316,15.770273309739055,19.470957119102867,36.737728416939866,38.353337586182754,56.70028299061502,93.9299636890652,74.45954696788569,72.27371695079376,88.8183027588068,76.6275553213236,26.99379789728448,9.57844441516545,11.31997976337732,14.80305045980117,9.378454867571502,11.014436652088085,10.449212089271214,31.34763626781421,57.4706664909927,46.469959143289,"{'others': ['m1', 'm3', 'm12', 'e1', 'e2']}"
25,144,25,0.8341666666666645,1.7641699216511595,134.49409473434585,15.975238089669627,19.724019343363175,37.21520526672148,37.21520526672147,57.13841083342619,94.56016607057352,74.84739088589548,73.21305174852614,89.97266600421278,79.38764647430537,28.22671874641969,8.82084960825614,12.349189451558573,15.87752929486112,11.157590263957427,10.731026696499177,10.5850195299073,35.28339843302467,59.981777336141874,50.17815330977479,"{'others': ['m1', 'm3', 'm12', 'e1', 'e2']}"
26,144,26,0.867533333333331,2.4962486946744997,132.9589322198669,15.983790519529467,19.496325558562784,40.9415226852088,40.75082988013014,55.7340280844047,93.15055626423457,73.7344709656979,71.48713237105835,90.02083335614759,77.66503269942143,29.124387262283108,7.943014707895372,13.238357846492365,16.768586605556948,11.163563540073984,12.481243473371787,12.35580065672616,30.00694445204914,54.7185457655014,46.73388245967848,"{'others': ['m1', 'm3', 'm12', 'e1', 'e2']}"
27,144,27,0.9008999999999976,4.010400423130922,138.66941729805396,16.24088388860423,16.53530454559075,39.61983351372968,41.28959947381411,54.54734308343584,91.11643882470844,74.59776000411631,71.74022370491798,91.4687852237704,78.91424607540966,31.386347870901545,4.483763981557445,13.451291944671992,18.831808722540927,11.34312533787728,10.909468616687091,10.76103355573764,28.696089481967192,55.59867337131135,47.48557970426005,"{'others': ['m1', 'm3', 'm12', 'e1', 'e2']}"
28,144,28,0.934266666666664,6.949431418609379,128.7521667182784,16.017647979194436,19.424251321229416,36.64960409376076,38.22187280235176,50.86039081701751,93.12302927496616,73.7098512223436,69.49431418609424,83.39317702331323,76.44374560470374,29.53508352909012,12.161504982566498,10.424147127914123,17.373578546523618,11.654550792737512,12.648156098873754,12.161504982566498,31.272441383742432,57.3328092035278,45.10443326761113,"{'others': ['m1', 'm3', 'm12', 'e1', 'e2']}"
29,144,29,0.9676333333333308,7.22916981352023,132.24145487889282,16.662413121267342,21.98666163342189,39.8014876083997,41.60699684408362,58.28343034281945,104.02534219075388,82.04789266534347,77.71357549534241,92.17191512238288,83.13545285548253,29.82032548077086,15.361985853730516,8.132816040210287,17.169278307110517,9.73256771614205,12.77948749372306,11.7474009469704,28.91667925408097,57.83335850816184,42.53861223256645,"{'others': ['m1', 'm3', 'm12', 'e1', 'e2']}"
