,video_id,frame_seq,time_seconds,m1,m3,m4,m5,m6,m7,m8,m9,m10,m11,m12,m13,m14,m15,m16,m17,e1,e2,e3,b1,b2,b3,label_measures
0,242,0,0.0,37.71374206080357,134.4629234100153,19.4466314304111,36.42728111152674,40.28802989681943,45.56968791569762,45.569687915697735,139.14155194683426,102.7147253040458,83.43530890975973,90.54994765400278,72.4399581232023,36.21997906160112,56.917109953944646,19.40356021157197,19.403560211572085,20.737515576388414,18.29385200635212,18.756774871186337,59.50425131548758,75.02709948474518,69.9605312693759,"{'others': ['m1', 'm3', 'm12', 'e1', 'e2']}"
1,242,1,0.0333666666666666,37.79245422634594,133.68289974541975,19.67408223875924,37.90410130629314,40.63722308764057,44.508252901890216,45.96547450881145,141.2748690779868,103.37225423331849,83.85644671214601,89.70689648276078,72.80559714542909,35.75274859820178,59.15454768066115,21.4516491589211,20.151549209895503,19.54478785520817,17.345496769686246,17.55134931184449,61.1046976041994,75.40579704348013,61.325591944472585,"{'others': ['m1', 'm3', 'm12', 'e1', 'e2']}"
2,242,2,0.0667333333333332,40.27006822848152,132.18212539413477,19.61717425854548,36.50524793467921,39.23434851709083,44.549584468494295,45.66722261195898,142.01869576374156,105.51437967819388,84.91022833162225,90.74375546890924,72.59500437512742,36.29750218756374,59.63161073671176,22.0377691853065,20.741429821464976,19.48825386358156,18.33300709782848,18.148751093781925,58.33527137287021,71.29866501128583,59.85663648247068,"{'others': ['m1', 'm3', 'm12', 'e1', 'e2']}"
3,242,3,0.1000999999999998,40.400334989244136,127.27957774904016,19.551295020833276,39.21057862077771,40.5048638443915,44.52307130644193,47.10730152774534,146.23911598744712,107.03155801358967,86.48543114974046,93.63836154558356,76.73143515540875,38.36571757770429,60.47477516485617,20.158258388285503,22.759323986773666,18.25384769565773,18.39231123002214,18.20745918941907,57.22344316674554,70.22877115918769,58.65388506249977,"{'others': ['m1', 'm3', 'm12', 'e1', 'e2']}"
4,242,4,0.1334666666666664,40.43818455064676,120.775577404693,19.56961189720545,40.43818455064688,36.65764718038415,41.83869732606355,47.31288186646941,147.67276061588962,107.25039740775794,86.56645611246921,93.72608782101936,78.1050731841828,39.05253659209143,61.182307327609806,19.5262682960456,22.12977073551849,18.22451707630933,17.121864068749392,17.57364146644113,59.880556107873446,71.59631708550086,57.33619364664175,"{'others': ['m1', 'm3', 'm12', 'e1', 'e2']}"
5,242,5,0.166833333333333,39.34074802138579,113.47364532795336,19.703094367121707,40.819350012521454,34.1770579000524,39.51501575375946,48.93409994821842,148.68002253451618,107.86256795545695,87.81223288435098,94.36538459213835,81.2590811765636,39.31891024672433,60.28899571164391,17.03819444024714,20.970085464919634,19.70309436712165,18.53511204288268,18.34882478180469,60.28899571164396,70.77403844410378,59.03658687031513,"{'others': ['m1', 'm3', 'm12', 'e1', 'e2']}"
6,242,6,0.2001999999999996,32.8888076820566,108.04227575265864,21.022742374647727,40.73675801449152,30.27515749555181,35.503796358906655,54.02113787632931,148.65323692251155,107.92283479516728,91.13970345306262,95.72947269170612,85.23857157480683,36.71815390914759,57.69995614294612,14.42498903573653,18.35907695457377,18.4058517487383,17.248282559571642,17.70339563476756,61.634044061783385,72.12494517868268,60.45083077769791,"{'others': ['m1', 'm3', 'm12', 'e1', 'e2']}"
7,242,7,0.2335666666666662,26.365006318139635,104.15490871928922,19.849745292129548,40.747489250845454,28.97657881379789,32.89747154206506,57.95315762759569,144.88289406898917,104.15490871928922,90.50785823301226,95.75469059434636,85.26102587167827,32.79270225833773,53.78003170367401,10.493664722668086,15.740497084002072,18.41070038066284,17.252826254403228,17.052205174335654,61.65028024567502,72.1439449683431,59.08513344155125,"{'others': ['m1', 'm3', 'm12', 'e1', 'e2']}"
8,242,8,0.2669333333333328,17.252826254403228,107.95126478087587,22.337583869600916,40.74748925084534,28.88737415220524,32.81892593486622,61.87314687486169,142.15551326566197,101.41802584829242,92.47542036851264,97.06639868467975,87.88444205234526,30.825140122837524,49.18905338750665,5.902686406500834,11.14951876783482,17.052205174335654,17.252826254403228,16.396351129168863,60.338572155341495,69.52052878767608,62.97565047967285,"{'others': ['m1', 'm3', 'm12', 'e1', 'e2']}"
9,242,9,0.3002999999999994,13.471638215516156,107.65970295088592,21.17728606901991,39.71805353091697,27.866584813477623,31.813960560646944,64.94445352338961,139.21389229919438,99.50580266488086,92.47019672824104,99.07521078025832,87.18618548662732,28.401560423674027,45.57459695891873,3.302507026008584,9.907521078025866,17.223769397723174,17.223769397723174,17.173036535244762,62.08713208896182,71.33415176178593,63.46315281418413,"{'others': ['m1', 'm3', 'm12', 'e1', 'e2']}"
10,242,10,0.333666666666666,9.617045623785453,108.83652286588676,22.49586724883497,39.718053530916976,29.18190589125008,31.813960560646944,66.26116387097336,137.89776172312258,98.19059297429276,93.13069813344282,99.07521078025832,88.50718829703078,27.74105901847247,43.59309274331349,2.642005620806799,9.247019672824194,18.49403934564822,18.68180090405525,18.49403934564822,60.76612927855837,70.01314895138248,59.50380873956989,"{'others': ['m1', 'm3', 'm12', 'e1', 'e2']}"
11,242,11,0.3670333333333326,8.332881257854465,107.24032929954036,22.55272414080412,40.92878516566599,26.48231091843709,30.332145625753284,64.6805521850619,136.22413227056177,95.31045985762924,90.91055065059408,97.49827171223131,86.95791801361173,27.66842845887652,43.47895900680578,1.317544212327448,7.905265273964687,18.44561897258427,18.492614256324075,18.445618972584327,60.60703376706266,69.82984325335482,58.03180281353381,"{'others': ['m1', 'm3', 'm12', 'e1', 'e2']}"
12,242,12,0.4003999999999992,8.334554304744834,107.26186063952858,22.557252198245735,39.62201884517621,27.799205914530656,30.42397737784628,64.69353852116157,134.93872501851334,95.32959595996162,90.92880335447283,97.51784707581156,86.97537712166968,27.67398362962217,42.16987981656723,1.1368683772161605e-13,7.906852465606335,18.49632713903733,18.636629987572707,18.449322419748118,61.93701098058301,71.16167219045707,60.74798151992801,"{'others': ['m1', 'm3', 'm12', 'e1', 'e2']}"
13,242,13,0.4337666666666658,8.33613784451409,108.59399453660838,22.445738073849625,39.6295469073003,27.80448767843924,30.42975784028698,63.39028555275973,133.54092145111574,93.91575916269714,89.62802042448953,96.21831604393724,85.67384305282081,27.679241601680587,42.17789196446563,1.318059123889611,7.908354743337327,18.499841384495557,18.499841384495497,18.452827734453702,61.94877882280895,71.1751926900358,59.32730386881541,"{'others': ['m1', 'm3', 'm12', 'e1', 'e2']}"
14,242,14,0.4671333333333324,13.35375050498755,111.79453227448585,19.685244248347285,38.06404539673026,28.926540655089184,32.84066259602921,62.97590315617164,133.9733586779804,95.91166964611814,89.04212191368322,94.27989379095868,83.80435003640775,26.18885938637743,44.52106095684167,5.237771877275463,9.16610078523206,18.332201570464235,18.378907892201536,18.33220157046418,60.23437658866808,69.40047737390017,59.05573274504175,"{'others': ['m1', 'm3', 'm12', 'e1', 'e2']}"
15,242,15,0.5004999999999991,26.490931221784532,116.94044220939432,19.691998347745628,39.38399669549104,32.85193038100972,36.700366348041136,60.31196823238603,145.77517670979552,106.3919608323802,93.00234941827564,94.31224166360352,85.14299594630864,29.472575519876106,55.67042042643254,13.753868575942192,12.443976330614303,17.028599189261683,17.07890535259493,17.02859918926174,62.87482777573564,72.04407349303042,59.003339751887495,"{'others': ['m1', 'm3', 'm12', 'e1', 'e2']}"
16,242,16,0.5338666666666656,45.6225736500457,132.9000588446713,19.69343983939402,36.46184729536632,39.12803648263459,45.54826973485228,54.67341409553367,156.36058125204482,119.90356788957462,96.95274557847114,92.39791860498592,85.89102292857848,34.48654708495957,67.02102546699678,26.67827227327052,17.568618326300225,16.967907977615297,18.265726588010743,18.21930789394088,63.767577628793134,70.27447330520059,61.22017214725805,"{'others': ['m1', 'm3', 'm12', 'e1', 'e2']}"
17,242,17,0.5672333333333321,45.47479947498177,133.70859355403698,20.91613928486053,41.59023828218991,38.93653016858133,44.103572342085954,53.24695827908892,161.1827270175553,119.5926017450868,96.638709984865,89.50430857658631,84.31565300692915,33.72626120277164,73.93834186761478,28.53760563311448,14.26880281655724,16.86313060138582,16.912947934738582,16.86313060138582,64.85819462071473,70.04685019037191,57.13414283718452,"{'others': ['m1', 'm3', 'm12', 'e1', 'e2']}"
18,242,18,0.6005999999999987,39.12803648263459,134.19989236186072,22.161688103263742,39.12803648263471,36.53145317602148,42.965224805453445,54.719859025978295,155.13181672284617,116.00537701617864,96.30205601083044,91.09653946970452,84.58964379329694,33.18516794967803,67.02102546699689,24.075514002707564,13.664480920455617,16.9179287586594,16.967907977615297,16.9179287586594,65.06895676407458,70.27447330520056,61.22017214725805,"{'others': ['m1', 'm3', 'm12', 'e1', 'e2']}"
19,242,19,0.6339666666666652,22.23270182285253,122.89888262322754,18.076619830296444,34.86872751521614,33.707721507293485,38.82988041049327,62.033759762955775,137.12417573278725,102.26491385169344,90.79736148464076,88.86550272964848,77.27435019969437,21.250446304915958,53.44809222145523,16.098822958269693,7.083482101638651,18.076619830296444,16.939756486753325,16.742775876600433,60.53157432309391,68.25900934306333,57.970070948384006,"{'others': ['m1', 'm3', 'm12', 'e1', 'e2']}"
20,242,20,0.6673333333333318,6.936915726811114,122.06905651732929,15.511415119337022,33.59091824339455,31.156262382359504,35.15973198853124,67.18183648678902,122.92245985773368,89.33876770612694,85.66216863442736,87.59439800212118,72.13656306057038,12.881529117958962,42.50904608926476,7.7289174707754,1.288152911795919,18.03414076514264,18.080087695062364,17.39006430924462,61.83133976620323,69.56025723697863,59.26903395082635,"{'others': ['m1', 'm3', 'm12', 'e1', 'e2']}"
21,242,21,0.7006999999999983,8.55703342944145,128.33014476388817,17.904000644907665,35.80800128981521,32.11896932944962,35.808001289815095,61.34861860862566,122.99526349359576,87.19967419142577,82.91446988053417,82.91446988053417,68.88279036228994,14.669483132709844,46.559663855992426,10.842661445916065,0.637803614465497,20.409715662900737,19.30344012793849,19.1341084339694,63.7803614465648,71.43400482015255,62.51776926290055,"{'others': ['m1', 'm3', 'm12', 'e1', 'e2']}"
22,242,22,0.7340666666666649,12.105905684059875,136.83184518296375,19.18360620989994,34.47763450168961,35.75286587714375,39.57888609950215,53.65586018513776,119.01062418717636,84.56822144665267,78.47858195665651,76.56447020161613,67.63194867809432,18.50308029872383,46.576719372649904,9.57055877520213,1.9141117550403808,19.141117550404037,19.18360620989994,19.141117550404037,66.35587417473403,74.01232119489563,66.40493582592818,"{'others': ['m1', 'm3', 'm12', 'e1', 'e2']}"
23,242,23,0.7674333333333314,14.269343053676502,142.03552407500695,18.049449905568142,37.1002919395591,38.37365686716768,40.861180106609226,51.11532830753178,120.40484859118308,83.31145890898435,75.93918612823876,76.57733054948443,66.36701980955326,20.42062147986257,48.49897601467353,8.934021897439834,5.105155369965587,19.14433263737112,20.57953921888673,19.78247705861685,66.36701980955323,74.02475286450169,68.93141397083289,"{'others': ['m1', 'm3', 'm12', 'e1', 'e2']}"
24,242,24,0.800799999999998,15.781359440486495,148.34982623177206,19.180190473285656,38.3603809465713,39.633493303259655,44.72750135968263,49.82342949192241,122.90588667197814,84.55316365369958,76.5508375164286,77.82668480836901,67.61990647284517,22.965251254928603,49.75804438567855,10.206778335523722,6.379236459702383,20.413556671047616,19.180190473285645,18.49978573313689,68.89575376478572,75.27499022448808,75.31822686804425,"{'others': ['m1', 'm3', 'm12', 'e1', 'e2']}"
25,242,25,0.8341666666666645,18.15174872506273,148.59469211647024,17.79404372943445,36.852749482246935,41.85571733757567,45.65743699556561,48.19205701524594,120.76495612374616,83.91279114590161,74.79861426160579,74.7986142616059,65.92420240005941,22.186029653866115,50.07703836158362,10.77607154616362,6.972752176929362,19.016596846170955,19.058809099767966,19.016596846170955,64.65642927698133,70.99529489237167,74.80935733013699,"{'others': ['m1', 'm3', 'm12', 'e1', 'e2']}"
26,242,26,0.867533333333331,17.878534642384047,144.31865015473093,17.74393899179499,38.01028603331401,41.73785937522602,44.24711579157929,48.056357091733865,121.60032468854648,83.59051465903369,74.58799519151933,73.3237918831885,65.73857203320347,21.491456241624174,51.83233564156433,11.3778297749775,6.321016541654103,20.22725293329336,20.266720781424397,20.22725293329336,65.73857203320344,72.05958857485763,75.85219849985015,"{'others': ['m1', 'm3', 'm12', 'e1', 'e2']}"
27,242,27,0.9008999999999976,19.067548725413037,146.29792892050784,17.685210636755983,36.62734828840686,41.599716664913,44.11866462056312,46.63773036914209,119.9403160499332,83.3138492903657,73.71111654759443,70.56106883188534,64.26097340046692,20.790314923680512,52.29079208077212,14.4902194922621,5.670085888276503,21.420324466822308,18.942240366509,19.530295837396864,68.0410306593179,74.34112609073622,76.87149159479308,"{'others': ['m1', 'm3', 'm12', 'e1', 'e2']}"
28,242,28,0.934266666666664,16.580615784236695,143.90740430587212,16.387811370758527,37.901973127612735,39.15987174960099,42.87896397966036,47.96913476862404,118.73762850379184,80.83587750632954,72.48455029373974,69.33304810705545,61.769442859013,17.64841224543227,52.94523673629692,12.606008746737416,3.781802624021225,21.43021486945355,20.20896937658236,19.53931355744288,68.07244723238168,74.37545160575036,79.41785510444538,"{'others': ['m1', 'm3', 'm12', 'e1', 'e2']}"
29,242,29,0.9676333333333308,15.388307249337148,143.07480560881433,16.49242250247054,36.70422319025424,39.2326394727656,43.00697617828996,48.08326112068527,116.54355409030563,79.84985911070854,72.09993065183909,68.30519745963699,61.98064213930019,17.07629936490912,51.22889809472781,12.016655108639952,3.1622776601683427,21.50348808914498,21.54065922853801,21.50348808914498,68.30519745963699,72.09993065183906,77.15957490810843,"{'others': ['m1', 'm3', 'm12', 'e1', 'e2']}"
30,242,30,1.0009999999999972,15.386384071519233,145.64441948035144,17.75165399885538,36.699636022431534,40.49185229739906,44.28441850774785,48.12713314507535,117.8665638265702,81.19083699529776,73.35567282982237,68.29666091052417,60.70814303157709,16.441788737718753,53.119625152629965,13.912282778069766,1.2647529798244932,21.537967150888463,20.2755326858156,20.868424167104592,68.29666091052417,73.35567282982225,78.42488370666487,"{'others': ['m1', 'm3', 'm12', 'e1', 'e2']}"
31,242,31,1.0343666666666638,16.738716507977593,145.35204428795112,16.592948421629583,38.19983596576237,40.80333489599474,44.55991334595453,49.697440721024826,121.1398879779424,82.96474210814804,74.44833143166983,72.53939985649873,63.631052505700666,18.453005226653147,52.81377357973156,12.089899976083188,4.4541736753990335,20.361936801824186,19.13168942372014,19.72562627676723,68.72153670615677,73.81202090661282,75.08464195672684,"{'others': ['m1', 'm3', 'm12', 'e1', 'e2']}"
32,242,32,1.0677333333333303,16.8377759287572,145.01928893722567,17.967795138606217,37.21260119733535,41.044808292043314,44.87842589180406,49.9423530516198,121.85679163842812,84.64508605550867,76.16906770556164,72.96868670952966,62.72746752222719,17.922133577779164,53.766400733337605,14.081676382540763,3.8404571952384,20.48243837460484,19.244910414824545,19.842362175398364,67.84807711587843,74.24883910794244,76.8198111006955,"{'others': ['m1', 'm3', 'm12', 'e1', 'e2']}"
33,242,33,1.1010999999999969,14.35583359707064,144.27434208806892,16.74163502298467,33.40932824785463,39.88752283383326,42.450566487206665,50.14277107275539,114.5376024868268,81.14792878774084,73.83142553246836,71.9053883446648,60.34916521784368,16.050309898362684,48.15092969508805,13.482260314624682,3.210061979672446,20.544396669904245,19.43082096939675,19.902384273969744,66.7692891771888,73.18941313653386,75.75746272027186,"{'others': ['m1', 'm3', 'm12', 'e1', 'e2']}"
34,242,34,1.1344666666666634,6.9146851206612565,141.71469314499996,16.74163502298467,33.483270045969235,38.60625050669102,39.990724876528965,51.42515283865824,108.23194180963388,74.74965517331192,71.26337594873036,71.9053883446648,60.34916521784368,14.766285106493685,41.73080573574305,7.0621363552796765,1.9260371878034448,20.544396669904245,19.30312525334551,19.902384273969744,68.05331396905777,74.47343792840286,77.05218697577305,"{'others': ['m1', 'm3', 'm12', 'e1', 'e2']}"
35,242,35,1.16783333333333,10.62238103456291,143.3558516099844,18.080087695062428,33.590918243394434,39.95351152339258,42.587044404559215,47.73123683588151,109.86366123700722,76.27344729415283,70.84841014877446,70.84841014877446,60.54318685440734,18.03414076514264,43.79719900106056,9.01707038257132,2.576305823591838,21.898599500530334,21.936453633365478,21.25452304463238,68.27210432518271,76.00102179595811,76.01193756216112,"{'others': ['m1', 'm3', 'm12', 'e1', 'e2']}"
36,242,36,1.2011999999999965,12.908812885662144,145.42388828239416,18.02846420290456,33.49500717627146,38.555648679583705,43.74763836746322,46.31240078912952,110.73335778989104,77.23956686400243,70.64611896482688,69.36164407455738,60.370319842670256,18.624885908908936,45.59885860457007,9.633561677021817,3.211187225673939,20.55159824431325,20.71153527314167,20.55159824431325,68.07716918428775,73.2150687453661,79.64780119158081,"{'others': ['m1', 'm3', 'm12', 'e1', 'e2']}"
37,242,37,1.234566666666663,14.244669280492406,143.2965028669149,16.815001717046645,36.20225007652025,41.28900222555279,43.86712122221296,46.44537175190396,113.67239647959272,77.47576913135362,70.28602094388856,68.35154330323104,61.903284501039536,18.69995052635568,48.36194101643707,9.672388203287367,4.513781161534098,21.924079927451487,20.67469050416057,21.279254047232318,69.64119506366936,72.22049858454602,74.79980210542271,"{'others': ['m1', 'm3', 'm12', 'e1', 'e2']}"
38,242,38,1.2679333333333296,15.738283352900137,144.9844155179469,16.81782599342,37.53898693705872,41.39772552226475,44.00410394488666,46.590405510694254,116.54603998238916,79.00979196938475,71.15234074139249,68.56498289625102,63.39026720596786,19.405183838561584,50.45347798026012,10.349431380566216,5.174715690283051,22.030558205913053,19.405183838561584,20.698862761132432,71.15234074139252,71.15234074139252,76.3380190251155,"{'others': ['m1', 'm3', 'm12', 'e1', 'e2']}"
