,video_id,frame_seq,time_seconds,m1,m3,m4,m5,m6,m7,m8,m9,m10,m11,m12,m13,m14,m15,m16,m17,e1,e2,e3,b1,b2,b3
0,278,0,0.0,59.057434185453296,172.87479297581467,15.888331053233628,25.070336063364504,47.719004500722534,52.40151519254641,29.5069005274338,129.37641000490203,104.43370104288114,74.90213210810123,49.934754738734114,61.28356263390094,26.10225815888373,73.7672513185845,41.99058921211736,12.483688684683443,11.573558582694321,15.888331053233628,13.618569474200285,68.09284737100108,68.09284737100108,74.93651454374621
1,278,1,0.0333666666666666,63.553324212934285,170.60999262926157,15.888331053233628,27.237138948400457,47.719004500722534,52.40151519254641,29.5069005274338,136.18569474200217,108.94855579360171,77.17189368713457,52.20451631776746,63.553324212934285,28.37201973791707,78.3067744766513,44.2603507911507,14.7534502637169,11.573558582694321,16.049638042111834,15.888331053233628,65.82308579196769,68.09284737100108,72.66782689951216
2,278,2,0.0667333333333332,63.89077097069353,166.85625192831716,16.124575963870278,27.364312818744793,45.834656714304856,52.892541838687904,29.73224899077984,136.8405657692678,109.48100244185848,77.53221965311025,52.44826623592746,63.85006324373785,28.504492519525797,78.67239935389125,42.186648928898194,12.541976708591392,11.627597086569784,13.682156409372396,13.682156409372396,68.41078204686198,68.41078204686198,68.56263746578313
3,278,3,0.1000999999999998,64.22983857146723,171.18408454960857,13.94449735218135,27.88899470436266,46.07790072041553,53.51804658767019,29.801996161350985,135.33290158690048,107.74567842949989,75.65122102496798,45.849224863616996,68.77383729542544,27.509534918170175,77.9436822681489,41.264302377255376,13.754767459085087,12.345281608497324,13.754767459085087,13.754767459085087,68.77383729542555,64.18891480906387,66.6392892819686
4,278,4,0.1334666666666664,59.57758013386842,168.8377019457436,16.202965738208956,27.59265638298287,48.60889721462693,51.69736439030689,29.87679259268209,132.92358497807479,105.4064879291517,75.61769786221748,45.82890779528327,68.74336169292496,27.497344677170076,75.6176978622176,38.954571625990866,11.457226948820903,11.684124756739795,16.040117728349173,14.894395033467049,68.74336169292508,61.869025523632615,73.3620475697636
5,278,5,0.166833333333333,58.90484336884765,167.25376725611525,13.780929772965859,27.281086252881767,45.53741148757918,50.65970537566186,29.53943050525218,129.15741313168095,101.9506904460826,72.49826876165878,40.78027617843304,65.70155606525327,23.788494437419217,75.89662510986147,39.64749072903214,10.195069044608204,11.552190222418535,16.020005458016865,14.726210842211913,65.70155606525327,58.904843368847764,77.16256435019129
6,278,6,0.2001999999999996,59.35013573149024,169.90386207330303,13.696185168805528,30.024198321626773,48.423327046244545,53.29011036484953,29.675067865745064,132.4751469547106,102.72138876604083,73.04632090029565,45.65395056268483,63.91553078775871,25.109672809476706,77.61171595656413,38.805857978282006,9.130790112536943,14.437046796280947,15.978882696939763,15.978882696939763,63.91553078775871,57.067438203356005,77.64527778124925
7,278,7,0.2335666666666662,54.53137284790603,161.72150801252795,16.066459803402587,29.53782695928237,47.93085710132585,50.19322498899699,29.625088085755877,129.51201051377666,99.97418355449429,72.70849713054133,52.2592323125765,63.619934989223566,28.40175669161772,71.57242686287657,35.21817829760596,12.496772944311829,16.066459803402587,16.066459803402587,17.04105401497054,63.61993498922368,63.61993498922368,77.38631810761484
8,278,8,0.2669333333333328,52.272727272727366,154.69578250219664,15.909090909090878,29.545454545454504,43.241585432819264,47.78135464006511,27.367260406346105,125.02065944977333,95.48159789818187,69.31818181818187,54.545454545454504,61.363636363636374,30.68181818181813,67.04545454545462,32.954545454545496,14.772727272727252,18.32331306431483,18.32331306431483,18.18181818181813,68.18181818181813,65.90909090909088,70.60102075913217
9,278,9,0.3002999999999994,50.05081834966367,145.46995196428824,15.908834118257346,31.817668236514578,43.18112117812689,45.51059356468634,25.10268802838531,122.80943664852732,91.02118712937256,65.90802706135162,61.362645884706694,59.08995529638423,35.22670411899844,62.49899117886787,28.40863235403083,19.317870000741095,13.824237153609268,13.824237153609268,13.63614352993477,70.4534082379966,70.4534082379966,70.49005500678847
10,278,10,0.333666666666666,48.053606410022404,141.78568441248436,15.999738781907354,34.36125929785144,41.20562755156911,45.770645631969046,27.523195396901176,125.89910432847071,91.5412912639383,67.42747058089526,66.28463209647339,61.713278158785556,36.57083150150254,61.713278158785556,25.142446657283017,22.856769688439044,11.65471146590469,11.6547114659048,11.428384844219636,73.14166300300508,73.14166300300508,68.72251859570311
11,278,11,0.3670333333333326,38.908433939798115,144.10436674680452,15.99347338337111,34.27172867865238,41.18949168322362,45.7527221308386,30.051614109787653,119.00621667998215,84.8143544131461,65.11628448943952,68.54345735730476,61.689111621574284,35.41411963460746,53.69237492988873,19.42064625123635,21.705428163146507,11.650147553133731,11.423909559550793,12.566300515505873,68.54345735730487,73.11302118112513,73.25568087030256
12,278,12,0.4003999999999992,34.294138659536685,146.63776624403164,15.968485192782396,32.018338594855486,41.6282157412624,43.879992223754435,32.261211900266865,114.42502033814947,82.40829631240005,65.01454685632825,68.43636511192449,54.74909208953966,29.655758215167225,52.467879919142206,20.530909533577415,18.24969736317985,11.631945371502205,11.631945371502205,11.40606085198749,63.87394077112958,72.9987894527195,73.14122625050756
13,278,13,0.4337666666666658,32.155234317189255,155.4299013419055,18.189747389061495,31.913158846836797,41.49146769516487,45.98310936872794,29.90609664105711,111.99073091171098,80.09816588554767,63.664115861715345,65.937834285348,50.02180531991917,28.421480295408514,53.43238295536821,21.600325024510653,14.77916975361245,11.36859211816352,12.244348436280124,11.36859211816352,59.116679014449915,75.03270797987875,75.34212252135893
14,278,14,0.4671333333333324,39.03917541605034,156.75513277559827,16.126934718260042,29.997832604844906,42.053900641530966,46.51719203419749,30.428239569994886,115.48506847342689,85.4879667423277,64.99974992449654,66.14009641439986,43.33316661633103,25.087622777875822,59.29801747497913,29.649008737489567,13.68415787884146,15.96485085864822,14.424368919492357,13.684157878841233,54.73663151536539,75.26286833362735,71.03177918436394
15,278,15,0.5004999999999991,36.72019712584571,159.11723284957432,16.10287167987904,32.205743359758,41.99115191445486,46.44778361921663,33.15784220476164,117.93635924007965,85.7544064696624,66.04140861623159,68.31869856851552,43.26850909339316,23.911544498980447,60.34818373552196,30.743414355831987,12.525094737561176,18.21831961827081,17.343323572857447,14.802384689844985,54.654958854812435,77.42785837765098,75.46046899136482
16,278,16,0.5338666666666656,36.77506929587649,156.75513277559853,16.126934718260156,29.997832604844874,41.61874140205055,48.75564720050577,32.65455398514557,115.48506847342689,85.48796674232773,66.14009641439998,66.14009641439986,43.333166616330914,22.80692979806895,59.29801747497925,29.64900873748968,11.403464899034475,18.24554383845509,16.603695516704775,15.96485085864822,54.73663151536539,77.54356131343434,73.55013859175271
17,278,17,0.5672333333333321,36.61231484956795,154.10241754083077,13.89189489499659,30.038876014905874,41.67568468499007,46.58083743860713,34.93562807895541,115.30431086840458,85.26916568589621,66.23059012220756,63.946776669717565,45.67626904979829,20.554321072409152,59.379149764737804,29.689574882368902,11.419067262449516,18.270507619919385,16.626412900743745,15.986694167429505,54.81152285975793,75.36584393216708,73.65077081202094
18,278,18,0.6005999999999987,34.18148294343706,153.1683121363846,16.07761715859461,32.155234317189255,41.49146769516485,45.70117470991924,34.40760326762644,116.75937073443932,84.61776838172882,67.07469349716439,63.664115861715345,47.74808689628651,21.600325024510653,60.25353822626619,28.421480295408514,10.231732906347133,18.189747389061495,18.749562447100995,18.18974738906161,56.842960590817256,70.48527113261343,68.36296588687411
19,278,19,0.6339666666666652,34.21909608252992,145.96235662937008,13.845708235416067,31.94827593302618,41.22410498764829,45.58127823731178,36.49058915734252,116.44374779566083,84.49653937460083,67.14850216662137,61.45795113555175,52.353069485840365,20.485983711850622,59.181730723123906,27.31464494913405,11.381102062139234,16.095308891029706,16.57113473469815,15.933542886994928,59.181730723123906,70.56283278526314,68.43819216505985
20,278,20,0.6673333333333318,27.592656382982756,140.078363846286,16.040117728349173,32.16196867313126,36.94844669685824,41.49984105464797,37.3020284057307,112.8638627266609,80.72264843320542,66.45191630316094,64.1604709133967,54.99468935434004,22.914453897641692,52.70324396457579,18.33156311811331,11.457226948820903,18.47422334842924,16.68197424276835,16.040117728349173,61.86902552363256,71.03480708268921,68.89595535836186
21,278,21,0.7006999999999983,22.887222624891947,136.94513801731043,13.664182615429695,34.2362845043276,36.508918561385585,41.05575921436295,38.78210752212119,109.52675568415651,75.29089992171077,63.76618553867206,66.04354930791033,56.93409423095716,22.773637692382977,47.82463915400399,13.664182615429695,11.386818846191545,16.103393644569465,16.103393644569543,15.941546384668072,59.211458000195535,68.3209130771487,66.20042256765564
22,278,22,0.7340666666666649,25.14167620995645,134.6052905451278,13.845708235416067,34.14330618641759,36.49058915734263,40.971967423701244,36.49058915734252,109.47176747202768,75.42502862986923,62.596061341765676,66.01039196040745,56.90551031069606,25.038424536706316,47.80062866098467,13.657322474567081,13.657322474567081,18.209763299422775,16.57113473469815,15.933542886994928,61.45795113555175,70.56283278526314,66.16718646149631
23,278,23,0.7674333333333314,22.758122013038253,133.9132501488577,16.012558771046056,34.0431669142406,36.30298165931413,40.76132000815733,34.043166914240715,106.81708996518836,72.78232005965194,61.141980012236104,63.40649779046703,54.348426677543216,24.909695560540627,47.554873342850215,13.587106669385776,11.322588891154851,18.11614222584774,18.257126003702414,16.983883336732333,58.877462234005066,70.20005112515992,70.34599733493557
24,278,24,0.800799999999998,22.836940477744477,136.81421990690237,16.068015249292806,34.16106900424531,36.428710191615956,40.96556165042527,34.16106900424533,107.187030816662,73.03438790257731,61.35373373211257,68.17081525790286,56.80901271491905,28.40450635745958,44.3110299176368,10.225622288685372,12.497982797282248,18.320356117361975,16.06801524929295,17.04270381447577,59.08137322351581,70.44317576649962,66.05498336590873
25,278,25,0.8341666666666645,22.708684127705038,129.29169232666945,15.97777439630907,33.96921431914866,36.22412002725592,38.47957631035225,34.193930425439774,106.80039696452297,72.8698628577991,61.0091601690541,67.78795574339347,56.48996311949463,28.244981559747316,44.06217123320573,10.168193361508997,12.427791886288787,18.217465714449705,18.633126778313727,18.07678819823832,56.48996311949463,67.78795574339347,65.68400674245575
26,278,26,0.867533333333331,13.690534775567873,126.76114109817833,18.145804562135464,36.081626981109444,33.83559128510687,38.32821108633124,34.05942343666053,101.90523181064603,65.88855174150996,58.51846137207531,65.2705915303917,51.76633121375892,24.757810580493356,42.763491002670435,6.75213015831639,9.002840211088483,18.145804562135577,16.385416513089467,15.754970369404873,58.51846137207542,69.772011635936,63.18044194542987
27,278,27,0.9008999999999976,13.50426031663278,126.76114109817833,15.914923407999012,33.83559128510677,34.05942343666066,38.52595037508243,36.29160912427104,99.43962031152302,65.61891023479501,58.51846137207531,65.2705915303917,51.76633121375892,22.507100527721263,40.51278094989834,6.75213015831639,9.002840211088483,18.005680422176965,18.559830560438055,18.005680422176965,58.51846137207542,72.0227216887082,67.55880300320767
28,278,28,0.934266666666664,11.47042389486607,126.69497293896688,15.74674641860463,31.573731165564755,36.27266523539655,36.27266523539657,38.50584018045875,97.14763039422967,65.5846577622937,59.612682870431854,65.23652087707637,51.739309661129596,20.245816823920336,38.242098445182705,6.748605607973332,8.998140810631298,18.136332617698287,18.55014249820673,17.996281621262483,58.48791526910304,71.98512648504982,65.39147720198127
29,278,29,0.9676333333333308,11.172486992395989,130.29246839689122,15.800282630083318,31.362665525918246,35.82171836078277,36.03018792888342,38.052119532359605,96.3169470188891,64.95434502109684,59.2141810596986,64.8004245558966,51.39344016502139,20.110476586312757,37.98645577414618,8.937989593916654,6.703492195437661,17.875979187833423,20.60104810498414,18.99322788707309,55.862434961979716,71.50391675133403,69.5930259803089
30,278,30,1.0009999999999972,18.115717936426332,133.50152429686554,11.45738602565463,29.29701223408479,36.23143587285266,38.78885891453159,38.26466104989676,97.03720743942898,67.74555629413457,58.421434919577905,65.16236971799071,49.43352185502749,19.09931526216974,39.322119657408166,10.111402197619213,10.111402197619213,17.975826129100938,18.529057459505246,17.975826129100938,56.1744566534403,69.65632625026603,69.80114205367606
