,frame_seq,m1,m3,m4,m5,m6,m7,m8,m9,m10,m11,m12,m13,m14,m15,m16,m17,e1,e2,e3,b1,b2,b3,label_measures
0,0,1.0,30.01666203960727,3.0,5.0990195135927845,8.0,8.0,6.0,15.033296378372908,10.0,9.5,7.0,8.0,1.5,7.5,1.5,1.5,4.123105625617661,3.0,3.0,15.0,12.0,15.033296378372908,{}
1,1,1.4142135623730951,30.01666203960727,3.0,5.0,7.071067811865476,8.06225774829855,6.0,15.033296378372908,10.04987562112089,9.5,7.0,8.0,1.5,7.5,1.5,1.5,4.123105625617661,4.0,4.0,15.0,11.0,14.142135623730953,{}
2,2,1.0,29.017236257093817,3.0,5.0990195135927845,8.0,7.071067811865476,6.0,15.033296378372908,10.0,9.5,7.0,8.0,1.5,7.5,1.5,1.5,3.1622776601683795,3.0,3.0,15.0,12.0,14.142135623730953,"{'neutral': (['m1', 'm3', 'm12', 'e1', 'e2'], None, 22)}"
3,3,0.0,29.017236257093817,3.0,6.082762530298219,8.06225774829855,8.0,6.0,15.033296378372908,9.0,9.0,7.0,8.0,1.5,7.5,1.5,1.5,4.123105625617661,4.0,4.0,15.0,12.0,14.0356688476182,"{'neutral': (['m1', 'm3', 'm12', 'e1', 'e2'], None, 22)}"
4,4,0.0,30.066592756745816,3.0,5.0990195135927845,8.0,7.0,6.0,14.0356688476182,9.0,9.0,6.0,8.0,1.0,7.0,2.0,1.0,4.123105625617661,4.123105625617661,4.0,15.0,12.0,14.0356688476182,"{'neutral': (['m1', 'm3', 'm12', 'e1', 'e2'], None, 22)}"
5,5,1.0,30.01666203960727,3.0,6.0,8.06225774829855,8.0,6.0,15.033296378372908,9.055385138137416,9.0,7.0,8.0,1.5,7.5,1.5,1.5,4.123105625617661,4.0,4.0,14.0,12.0,14.0356688476182,"{'neutral': (['m1', 'm3', 'm12', 'e1', 'e2'], None, 22)}"
6,6,1.0,30.01666203960727,2.23606797749979,5.0,7.0,8.06225774829855,7.0,15.033296378372908,10.04987562112089,9.5,7.0,8.0,0.5,7.5,1.5,1.5,4.0,4.123105625617661,4.0,15.0,12.0,13.038404810405298,"{'neutral': (['m1', 'm3', 'm12', 'e1', 'e2'], None, 22)}"
7,7,1.0,29.017236257093817,2.23606797749979,5.0,7.0,8.06225774829855,7.0,15.033296378372908,10.04987562112089,9.5,7.0,8.0,0.5,7.5,1.5,1.5,4.123105625617661,4.123105625617661,4.0,15.0,12.0,14.0356688476182,"{'neutral': (['m1', 'm3', 'm12', 'e1', 'e2'], None, 22)}"
8,8,0.0,29.017236257093817,3.0,5.0,7.0,8.0,6.082762530298219,14.0356688476182,9.055385138137416,9.0,6.0,7.0,0.5,7.5,1.5,1.5,3.1622776601683795,3.0,3.0,14.0,12.0,14.142135623730953,"{'neutral': (['m1', 'm3', 'm12', 'e1', 'e2'], None, 22)}"
9,9,0.0,29.017236257093817,3.0,5.0,7.0,7.071067811865476,6.082762530298219,14.0356688476182,9.055385138137416,9.0,6.0,7.0,0.5,7.5,1.5,1.5,3.1622776601683795,3.0,3.0,14.0,11.0,14.0356688476182,"{'neutral': (['m1', 'm3', 'm12', 'e1', 'e2'], None, 22)}"
10,10,0.0,29.017236257093817,3.0,5.0,7.0,8.0,6.082762530298219,14.0356688476182,9.055385138137416,9.0,6.0,7.0,0.5,7.5,1.5,1.5,3.1622776601683795,3.0,3.0,14.0,11.0,14.142135623730953,"{'neutral': (['m1', 'm3', 'm12', 'e1', 'e2'], None, 22)}"
11,11,1.0,29.017236257093817,3.0,5.0,7.0,7.071067811865476,6.082762530298219,15.033296378372908,10.04987562112089,9.5,7.0,8.0,1.5,7.5,1.5,1.5,3.1622776601683795,4.123105625617661,4.0,14.0,11.0,14.0356688476182,"{'neutral': (['m1', 'm3', 'm12', 'e1', 'e2'], None, 22)}"
12,12,0.0,29.068883707497267,3.0,5.0,7.0,8.06225774829855,7.071067811865476,15.033296378372908,10.04987562112089,10.0,7.0,9.0,1.0,7.0,1.0,1.0,3.1622776601683795,3.0,3.5,14.0,11.0,14.0356688476182,"{'neutral': (['m1', 'm3', 'm12', 'e1', 'e2'], None, 22)}"
13,13,1.0,29.017236257093817,3.0,5.0990195135927845,7.0,7.071067811865476,6.0,15.033296378372908,10.0,9.5,7.0,8.0,1.5,7.5,1.5,1.5,3.1622776601683795,3.1622776601683795,3.5,14.0,11.0,13.038404810405298,"{'neutral': (['m1', 'm3', 'm12', 'e1', 'e2'], None, 22)}"
14,14,1.0,29.017236257093817,3.0,5.0990195135927845,8.0,7.071067811865476,6.0,15.033296378372908,10.0,9.5,7.0,8.0,1.5,7.5,1.5,1.5,3.1622776601683795,4.0,4.0,14.0,11.0,13.152946437965904,"{'neutral': (['m1', 'm3', 'm12', 'e1', 'e2'], None, 22)}"
15,15,1.4142135623730951,29.017236257093817,3.0,5.0,7.0,8.06225774829855,6.0,15.033296378372908,10.04987562112089,9.5,7.0,8.0,1.5,7.5,1.5,1.5,3.0,4.0,4.0,14.0,11.0,14.0356688476182,"{'neutral': (['m1', 'm3', 'm12', 'e1', 'e2'], None, 22)}"
16,16,1.4142135623730951,28.0178514522438,3.0,5.0,7.0,7.071067811865476,5.0,14.0356688476182,9.055385138137416,8.5,6.0,7.0,1.5,7.5,1.5,1.5,3.0,4.0,4.0,14.0,11.0,14.0356688476182,"{'neutral': (['m1', 'm3', 'm12', 'e1', 'e2'], None, 22)}"
17,17,1.0,29.017236257093817,2.0,5.0,7.0,8.06225774829855,6.082762530298219,14.0356688476182,9.055385138137416,8.5,6.0,7.0,0.5,7.5,1.5,1.5,3.1622776601683795,4.0,4.0,14.0,11.0,13.038404810405298,"{'neutral': (['m1', 'm3', 'm12', 'e1', 'e2'], None, 22)}"
18,18,1.0,29.017236257093817,2.0,5.0,8.0,7.071067811865476,7.0,15.0,10.0,9.5,7.0,8.0,0.5,7.5,1.5,1.5,3.1622776601683795,4.0,4.0,14.0,11.0,13.038404810405298,"{'neutral': (['m1', 'm3', 'm12', 'e1', 'e2'], None, 22)}"
19,19,1.0,29.017236257093817,2.0,5.0,8.0,7.071067811865476,7.0,15.0,10.0,9.5,7.0,8.0,0.5,7.5,1.5,1.5,3.1622776601683795,4.0,4.0,14.0,11.0,13.038404810405298,"{'neutral': (['m1', 'm3', 'm12', 'e1', 'e2'], None, 22)}"
20,20,1.0,29.017236257093817,3.0,5.0990195135927845,7.0,7.0,6.0,15.033296378372908,10.0,9.5,7.0,8.0,1.5,7.5,1.5,1.5,3.1622776601683795,4.0,4.0,14.0,11.0,13.038404810405298,"{'neutral': (['m1', 'm3', 'm12', 'e1', 'e2'], None, 22)}"
21,21,1.0,29.017236257093817,3.0,5.0,7.0,8.06225774829855,6.0,15.0,10.0,9.5,7.0,8.0,1.5,7.5,1.5,1.5,3.1622776601683795,3.0,3.0,14.0,11.0,13.038404810405298,"{'neutral': (['m1', 'm3', 'm12', 'e1', 'e2'], None, 22)}"
22,22,1.0,29.017236257093817,3.0,5.0,6.0,7.071067811865476,6.0,15.0,10.0,9.5,7.0,8.0,1.5,7.5,1.5,1.5,3.1622776601683795,4.0,4.0,14.0,11.0,13.152946437965904,"{'neutral': (['m1', 'm3', 'm12', 'e1', 'e2'], None, 22)}"
23,23,1.0,29.017236257093817,3.0,5.0,7.0,8.06225774829855,6.0,15.0,10.0,9.5,7.0,8.0,1.5,7.5,1.5,1.5,3.1622776601683795,3.0,3.0,14.0,11.0,14.0356688476182,"{'neutral': (['m1', 'm3', 'm12', 'e1', 'e2'], None, 22)}"
24,24,1.0,29.017236257093817,3.0,5.0,7.0,7.0,6.0,15.0,10.0,9.5,7.0,8.0,1.5,7.5,1.5,1.5,3.1622776601683795,3.0,3.5,14.0,11.0,15.132745950421556,"{'neutral': (['m1', 'm3', 'm12', 'e1', 'e2'], None, 22)}"
25,25,1.0,28.0178514522438,3.0,5.0,6.082762530298219,7.0,6.0,15.0,10.0,9.5,7.0,8.0,1.5,7.5,1.5,1.5,4.123105625617661,3.0,3.0,15.0,11.0,13.152946437965904,"{'neutral': (['m1', 'm3', 'm12', 'e1', 'e2'], None, 22)}"
26,26,1.0,28.0178514522438,3.0,5.0,7.071067811865476,7.0,6.0,15.0,10.0,9.5,7.0,8.0,1.5,7.5,1.5,1.5,4.123105625617661,3.0,3.0,15.0,11.0,13.152946437965904,"{'neutral': (['m1', 'm3', 'm12', 'e1', 'e2'], None, 22)}"
27,27,1.0,29.017236257093817,3.0,5.0,6.0,7.0,6.0,15.0,10.0,9.5,7.0,8.0,1.5,7.5,1.5,1.5,4.123105625617661,4.0,3.5,15.0,11.0,15.033296378372908,"{'neutral': (['m1', 'm3', 'm12', 'e1', 'e2'], None, 22)}"
28,28,0.0,29.068883707497267,3.0,6.082762530298219,6.0,7.0,6.082762530298219,15.132745950421556,9.055385138137416,9.0,6.0,8.0,1.0,8.0,2.0,1.0,4.123105625617661,4.0,3.5,14.0,10.0,13.152946437965904,"{'neutral': (['m1', 'm3', 'm12', 'e1', 'e2'], None, 22)}"
29,29,0.0,29.017236257093817,3.0,6.0,6.0,7.0,6.082762530298219,15.033296378372908,9.055385138137416,9.0,7.0,8.0,1.5,7.5,1.5,0.5,4.123105625617661,4.0,3.5,15.0,12.0,14.0356688476182,"{'neutral': (['m1', 'm3', 'm12', 'e1', 'e2'], None, 22)}"
30,30,1.0,29.017236257093817,3.0,5.0,7.0,7.0,6.082762530298219,15.033296378372908,10.04987562112089,9.5,7.0,8.0,1.5,7.5,1.5,1.5,4.123105625617661,4.0,4.0,15.0,12.0,14.0356688476182,"{'neutral': (['m1', 'm3', 'm12', 'e1', 'e2'], None, 22)}"
31,31,1.0,29.017236257093817,3.0,5.0,7.0,7.0,6.082762530298219,15.033296378372908,10.04987562112089,9.5,7.0,8.0,1.5,7.5,1.5,1.5,4.123105625617661,4.123105625617661,3.5,14.0,11.0,13.038404810405298,"{'neutral': (['m1', 'm3', 'm12', 'e1', 'e2'], None, 22)}"
32,32,1.0,29.068883707497267,3.0,5.0,6.082762530298219,7.0,6.0,15.0,10.0,9.5,7.0,9.0,2.0,7.0,1.0,1.0,4.123105625617661,4.0,4.0,14.0,11.0,13.038404810405298,{}
33,33,1.0,28.0178514522438,3.0,6.0,7.0,7.0,6.0,16.0,10.0,9.5,7.0,8.0,1.5,8.5,1.5,1.5,4.123105625617661,4.0,4.0,14.0,11.0,13.038404810405298,{}
34,34,1.0,28.0713376952364,3.0,6.082762530298219,8.06225774829855,7.0,6.0,16.0312195418814,10.0,9.5,7.0,9.0,2.0,8.0,2.0,1.0,4.123105625617661,4.0,4.0,14.0,11.0,13.038404810405298,{}
35,35,3.0,28.0713376952364,3.0,6.082762530298219,8.0,8.06225774829855,6.0,18.027756377319943,12.0,10.5,8.0,10.0,3.0,9.0,3.0,0.0,4.123105625617661,4.0,4.0,14.0,11.0,13.152946437965904,{}
36,36,3.0,29.017236257093817,3.0,6.082762530298219,7.0,7.071067811865476,6.0,18.027756377319943,12.0,10.5,8.0,9.0,2.5,9.5,3.5,0.5,4.123105625617661,4.0,4.0,14.0,11.0,13.152946437965904,{}
37,37,4.0,28.0713376952364,3.0,5.0990195135927845,8.06225774829855,8.0,6.0,18.027756377319943,13.0,11.0,8.0,10.0,3.0,9.0,3.0,0.0,4.123105625617661,4.0,4.0,14.0,11.0,13.152946437965904,{}
38,38,4.123105625617661,28.0713376952364,3.0,6.0,7.0,8.0,6.0,19.026297590440446,13.038404810405298,11.0,8.0,10.0,3.0,10.0,3.0,1.0,2.23606797749979,2.23606797749979,2.0,15.0,11.0,14.0356688476182,{}
39,39,4.123105625617661,28.0713376952364,4.0,6.0,7.0,8.0,5.0,19.026297590440446,13.038404810405298,11.0,8.0,10.0,4.0,10.0,3.0,1.0,2.23606797749979,2.0,2.0,15.0,12.0,13.038404810405298,{}
40,40,4.0,29.068883707497267,3.1622776601683795,6.0,7.071067811865476,8.0,6.0,19.026297590440446,13.038404810405298,11.0,8.0,10.0,3.0,10.0,4.0,0.0,2.23606797749979,2.0,2.0,14.0,11.0,13.038404810405298,{}
41,41,4.0,28.0713376952364,4.123105625617661,6.0,7.0,8.06225774829855,5.0,19.026297590440446,13.038404810405298,11.0,8.0,10.0,4.0,10.0,3.0,1.0,2.23606797749979,2.0,2.0,15.0,11.0,13.038404810405298,{}
42,42,4.0,29.068883707497267,4.0,6.082762530298219,7.071067811865476,8.06225774829855,5.0990195135927845,19.1049731745428,13.038404810405298,11.0,8.0,10.0,4.0,10.0,4.0,0.0,3.1622776601683795,3.0,2.5,15.0,11.0,14.0356688476182,{}
43,43,5.0,28.16025568065745,3.0,6.082762530298219,8.06225774829855,8.06225774829855,6.082762530298219,20.09975124224178,14.0356688476182,11.5,8.0,11.0,3.5,10.5,3.5,0.5,3.1622776601683795,3.0,3.0,15.0,11.0,14.142135623730953,{}
44,44,5.0990195135927845,28.16025568065745,3.0,6.0,8.06225774829855,8.06225774829855,6.082762530298219,20.09975124224178,14.142135623730953,11.5,9.0,12.0,4.5,9.5,2.5,1.5,3.0,3.0,3.0,15.0,10.0,14.142135623730953,{}
45,45,4.123105625617661,29.154759474226505,4.0,6.0,6.082762530298219,8.0,5.0990195135927845,19.1049731745428,13.152946437965904,11.0,8.0,11.0,4.5,9.5,3.5,0.5,3.1622776601683795,3.0,3.0,16.0,11.0,13.038404810405298,{}
46,46,4.0,28.16025568065745,4.123105625617661,6.082762530298219,7.071067811865476,7.071067811865476,6.0,20.09975124224178,14.0356688476182,12.0,9.0,12.0,4.5,9.5,2.5,0.5,3.1622776601683795,4.0,3.5,15.0,10.0,15.132745950421556,{}
47,47,4.0,27.16615541441225,3.1622776601683795,6.082762530298219,7.071067811865476,7.071067811865476,6.0,19.1049731745428,13.038404810405298,11.0,9.0,12.0,4.5,8.5,1.5,1.5,3.1622776601683795,3.0,3.0,16.0,10.0,14.142135623730953,{}
48,48,4.123105625617661,26.1725046566048,4.0,6.082762530298219,7.071067811865476,7.071067811865476,6.082762530298219,20.223748416156685,14.142135623730953,12.0,10.0,13.0,5.5,8.5,1.5,1.5,3.1622776601683795,3.0,3.0,15.0,9.0,14.142135623730953,{}
49,49,3.1622776601683795,26.30589287593181,4.0,6.082762530298219,6.082762530298219,7.071067811865476,6.082762530298219,19.235384061671343,13.152946437965904,11.5,9.0,13.0,5.0,8.0,1.0,1.0,3.1622776601683795,3.0,3.0,15.0,10.0,13.152946437965904,{}
50,50,3.1622776601683795,27.29468812791236,4.0,7.071067811865476,7.071067811865476,7.071067811865476,5.0990195135927845,19.235384061671343,12.16552506059644,10.5,9.0,13.0,6.0,8.0,1.0,1.0,3.1622776601683795,3.0,3.0,15.0,10.0,13.152946437965904,{}
51,51,3.0,26.1725046566048,4.123105625617661,6.082762530298219,7.071067811865476,7.280109889280518,5.0,18.110770276274835,12.041594578792296,10.5,9.0,12.0,5.5,7.5,0.5,0.5,4.123105625617661,4.0,4.0,16.0,10.0,13.152946437965904,{}
52,52,3.0,26.1725046566048,4.0,6.082762530298219,6.0,7.071067811865476,5.0990195135927845,18.110770276274835,12.041594578792296,10.5,9.0,12.0,5.5,7.5,0.5,1.5,4.123105625617661,4.0,3.5,15.0,10.0,14.142135623730953,{}
53,53,3.0,26.1725046566048,4.123105625617661,6.082762530298219,6.082762530298219,7.071067811865476,6.0,19.1049731745428,13.038404810405298,11.5,10.0,13.0,5.5,7.5,0.5,1.5,4.123105625617661,4.0,3.5,15.0,10.0,13.038404810405298,{}
54,54,2.0,26.1725046566048,4.123105625617661,7.071067811865476,6.082762530298219,6.082762530298219,6.0,19.1049731745428,12.041594578792296,11.0,10.0,13.0,5.5,7.5,0.5,1.5,4.123105625617661,4.0,3.5,16.0,11.0,14.142135623730953,{}
55,55,2.0,26.1725046566048,4.123105625617661,6.0,5.0,7.071067811865476,6.0,18.027756377319943,12.041594578792296,11.0,10.0,13.0,5.5,6.5,0.5,1.5,4.0,3.0,3.5,15.0,10.0,14.142135623730953,{}
56,56,1.4142135623730951,26.1725046566048,4.0,6.0,6.0,6.082762530298219,6.082762530298219,17.11724276862369,11.180339887498947,10.5,10.0,13.0,5.5,5.5,1.5,1.5,4.123105625617661,3.1622776601683795,3.5,15.0,10.0,14.142135623730953,{}
57,57,1.0,25.179356624028344,4.0,6.082762530298219,6.082762530298219,6.082762530298219,6.082762530298219,17.11724276862369,11.04536101718726,10.5,10.0,13.0,5.5,5.5,1.5,0.5,4.123105625617661,3.0,3.0,15.0,10.0,14.142135623730953,{}
58,58,1.0,26.0768096208106,4.0,7.0,6.0,6.082762530298219,6.0,17.029386365926403,10.04987562112089,10.0,10.0,12.0,5.0,6.0,1.0,1.0,3.1622776601683795,4.123105625617661,3.5,15.0,10.0,13.038404810405298,{}
59,59,1.4142135623730951,25.079872407968907,4.0,6.0,5.0,6.082762530298219,7.0,18.027756377319943,12.041594578792296,11.5,11.0,13.0,5.0,6.0,1.0,1.0,4.123105625617661,4.0,3.5,15.0,11.0,14.0356688476182,{}
60,60,2.0,24.020824298928627,5.0,7.071067811865476,5.0,6.082762530298219,6.0,20.024984394500787,13.0,12.0,12.0,13.0,6.5,7.5,0.5,1.5,3.1622776601683795,4.0,3.5,15.0,11.0,13.038404810405298,{}
61,61,3.1622776601683795,25.079872407968907,5.0,7.0,5.0990195135927845,6.0,6.082762530298219,21.095023109728988,14.142135623730953,12.5,12.0,14.0,7.0,8.0,1.0,2.0,4.123105625617661,4.0,3.5,15.0,11.0,13.038404810405298,{}
62,62,4.123105625617661,25.079872407968907,4.0,7.0,7.071067811865476,8.0,6.0,21.02379604162864,14.0356688476182,12.0,11.0,13.0,6.0,9.0,2.0,2.0,3.1622776601683795,4.0,3.5,15.0,11.0,14.0356688476182,{}
63,63,5.0990195135927845,26.1725046566048,5.0,7.071067811865476,7.071067811865476,7.071067811865476,5.0,22.09072203437452,15.033296378372908,12.5,11.0,14.0,7.5,9.5,1.5,2.5,4.0,4.0,3.5,15.0,11.0,13.038404810405298,{}
64,64,5.0990195135927845,27.16615541441225,4.0,7.0,8.06225774829855,8.06225774829855,5.0990195135927845,21.095023109728988,14.142135623730953,11.5,10.0,13.0,6.5,9.5,1.5,2.5,3.1622776601683795,3.0,3.0,14.0,10.0,14.142135623730953,{}
65,65,5.0990195135927845,27.16615541441225,4.0,7.0,8.06225774829855,9.055385138137416,5.0990195135927845,21.095023109728988,14.142135623730953,11.5,10.0,13.0,6.5,9.5,1.5,2.5,3.0,4.123105625617661,3.5,15.0,11.0,14.142135623730953,{}
66,66,5.0990195135927845,29.068883707497267,4.0,7.071067811865476,7.071067811865476,9.0,5.0,21.095023109728988,14.0356688476182,11.5,10.0,12.0,6.0,10.0,2.0,2.0,4.123105625617661,4.0,3.5,14.0,10.0,13.152946437965904,{}
67,67,5.0990195135927845,28.0713376952364,4.0,7.0,8.0,9.055385138137416,5.0990195135927845,21.095023109728988,14.142135623730953,11.5,10.0,12.0,6.0,10.0,3.0,2.0,3.1622776601683795,3.0,3.0,15.0,10.0,14.0356688476182,{}
68,68,5.0990195135927845,28.0713376952364,4.0,6.082762530298219,8.06225774829855,9.055385138137416,5.0,20.09975124224178,14.0356688476182,11.5,10.0,12.0,6.0,9.0,2.0,2.0,4.123105625617661,4.0,3.5,14.0,10.0,14.0356688476182,{}
69,69,4.123105625617661,27.018512172212592,4.0,6.082762530298219,7.071067811865476,8.0,6.0,20.09975124224178,14.0356688476182,12.0,11.0,12.0,5.5,8.5,1.5,1.5,3.0,4.123105625617661,3.5,14.0,11.0,14.0356688476182,{}
70,70,1.0,26.019223662515376,4.0,7.0,7.0,6.082762530298219,6.0,17.029386365926403,10.04987562112089,10.0,11.0,12.0,5.5,5.5,1.5,1.5,4.0,4.0,4.0,14.0,11.0,13.038404810405298,{}
71,71,1.0,27.018512172212592,4.0,6.0,7.0,7.0,5.0,16.0,10.0,9.5,10.0,11.0,5.5,5.5,1.5,1.5,3.0,4.0,3.5,14.0,11.0,13.038404810405298,{}
72,72,0.0,27.073972741361768,4.0,6.0,6.082762530298219,7.0,6.0,16.0,10.0,10.0,10.0,12.0,5.0,5.0,1.0,1.0,3.0,4.0,4.0,14.0,11.0,13.038404810405298,{}
73,73,1.0,27.018512172212592,4.0,6.0,7.0,7.0,6.0,17.0,11.0,10.5,11.0,12.0,5.5,5.5,1.5,1.5,3.0,3.0,3.0,14.0,11.0,13.038404810405298,{}
74,74,6.0,25.019992006393608,4.123105625617661,6.0,7.0,8.0,6.0,22.02271554554524,16.0312195418814,13.0,13.0,14.0,7.5,8.5,1.5,3.5,4.0,4.0,4.0,14.0,12.0,13.038404810405298,{}
75,75,6.0,26.019223662515376,4.0,6.0,7.0,7.071067811865476,6.082762530298219,22.02271554554524,16.0312195418814,13.0,12.0,13.0,6.5,9.5,2.5,2.5,4.0,4.0,3.5,14.0,12.0,13.0,{}
76,76,2.0,26.0768096208106,4.0,6.0,7.071067811865476,7.0,7.0,19.0,13.0,12.0,11.0,13.0,5.0,7.0,1.0,1.0,4.123105625617661,4.123105625617661,3.5,14.0,11.0,13.038404810405298,{}
77,77,0.0,26.019223662515376,4.0,6.0,7.0,8.06225774829855,7.0,17.0,11.0,11.0,11.0,12.0,4.5,5.5,0.5,1.5,3.1622776601683795,4.0,4.0,14.0,11.0,13.038404810405298,{}
78,78,1.0,27.018512172212592,4.0,6.082762530298219,7.0,7.071067811865476,6.0,17.029386365926403,11.0,10.5,11.0,12.0,5.5,5.5,1.5,1.5,3.0,4.123105625617661,4.0,14.0,11.0,13.038404810405298,{}
79,79,1.0,27.018512172212592,4.0,6.0,7.071067811865476,8.06225774829855,7.071067811865476,18.027756377319943,12.041594578792296,11.5,11.0,12.0,4.5,6.5,0.5,0.5,4.123105625617661,4.123105625617661,4.0,13.0,11.0,13.0,{}
80,80,3.0,27.073972741361768,4.0,6.0,8.0,8.0,6.082762530298219,19.026297590440446,13.038404810405298,11.5,10.0,12.0,5.0,8.0,2.0,1.0,4.123105625617661,4.0,4.0,14.0,12.0,13.0,{}
81,81,4.123105625617661,28.0713376952364,3.0,7.0,8.06225774829855,8.0,6.0,20.024984394500787,13.038404810405298,11.0,10.0,12.0,5.0,9.0,2.0,1.0,4.0,4.0,4.0,14.0,11.0,14.0356688476182,{}
82,82,4.123105625617661,28.0713376952364,4.0,7.0,8.06225774829855,8.0,6.0,21.02379604162864,14.0356688476182,12.0,10.0,12.0,5.0,10.0,3.0,1.0,3.1622776601683795,4.0,4.0,15.0,12.0,13.038404810405298,{}
83,83,5.0990195135927845,28.0713376952364,4.0,6.0,8.06225774829855,8.0,6.0,21.02379604162864,15.033296378372908,12.5,11.0,13.0,6.0,9.0,2.0,2.0,4.0,4.0,4.0,14.0,11.0,14.0356688476182,{}
84,84,6.0,29.068883707497267,4.0,7.071067811865476,8.06225774829855,9.0,5.0990195135927845,22.09072203437452,15.033296378372908,12.0,10.0,12.0,6.0,11.0,4.0,2.0,4.123105625617661,4.123105625617661,4.0,14.0,11.0,13.152946437965904,{}
85,85,8.06225774829855,30.066592756745816,3.0,6.0,8.0,8.06225774829855,6.082762530298219,23.08679276123039,17.11724276862369,13.0,10.0,12.0,5.0,12.0,5.0,2.0,3.0,4.0,4.0,14.0,11.0,14.0356688476182,{}
86,86,9.055385138137416,30.066592756745816,3.0,6.0,8.0,9.0,6.0,24.020824298928627,18.027756377319943,13.5,11.0,13.0,6.0,12.0,5.0,3.0,4.0,4.0,4.0,14.0,11.0,12.041594578792296,{}
87,87,9.0,30.066592756745816,3.0,6.082762530298219,8.0,9.055385138137416,5.0990195135927845,23.08679276123039,17.029386365926403,12.5,10.0,12.0,6.0,12.0,6.0,3.0,3.0,4.123105625617661,4.0,14.0,11.0,12.041594578792296,{}
88,88,9.0,30.066592756745816,3.0,6.082762530298219,8.0,9.055385138137416,5.0990195135927845,23.08679276123039,17.029386365926403,12.5,10.0,12.0,6.0,12.0,6.0,3.0,3.0,4.0,3.5,14.0,11.0,13.038404810405298,{}
89,89,9.0,30.066592756745816,3.0,6.082762530298219,8.06225774829855,9.0,5.0990195135927845,23.08679276123039,17.029386365926403,12.5,10.0,12.0,6.0,12.0,5.0,2.0,4.0,4.0,3.5,14.0,11.0,12.041594578792296,{}
90,90,8.0,29.154759474226505,3.1622776601683795,5.0990195135927845,8.06225774829855,9.055385138137416,5.0,21.095023109728988,16.0312195418814,12.0,9.0,12.0,5.5,10.5,4.5,1.5,4.123105625617661,4.123105625617661,3.5,15.0,12.0,12.041594578792296,{}
91,91,6.082762530298219,30.14962686336267,3.0,5.0990195135927845,8.06225774829855,9.055385138137416,6.0,20.09975124224178,15.033296378372908,12.0,9.0,12.0,4.5,9.5,3.5,1.5,3.0,4.0,4.0,14.0,11.0,13.038404810405298,{}
92,92,4.123105625617661,30.066592756745816,3.0,6.0,8.06225774829855,8.0,6.0,19.026297590440446,13.038404810405298,11.0,9.0,11.0,4.0,9.0,2.0,1.0,3.0,4.0,4.0,14.0,11.0,12.041594578792296,{}
93,93,4.0,30.14962686336267,3.0,6.082762530298219,8.06225774829855,8.0,6.082762530298219,19.1049731745428,13.038404810405298,11.0,8.0,11.0,3.5,9.5,2.5,0.5,3.0,4.0,4.0,14.0,11.0,13.038404810405298,{}
94,94,4.123105625617661,30.066592756745816,3.0,5.0,8.06225774829855,9.0,6.0,18.027756377319943,13.038404810405298,11.0,9.0,11.0,4.0,8.0,2.0,1.0,3.0,4.0,3.5,15.0,11.0,12.041594578792296,{}
95,95,4.0,31.064449134018133,3.0,6.082762530298219,8.0,9.055385138137416,6.082762530298219,19.1049731745428,13.038404810405298,11.0,9.0,11.0,4.0,9.0,3.0,1.0,4.0,4.0,3.5,14.0,11.0,13.038404810405298,{}
96,96,3.0,31.14482300479488,4.0,6.082762530298219,8.06225774829855,9.0,5.0990195135927845,18.110770276274835,12.041594578792296,10.5,8.0,11.0,4.5,8.5,2.5,0.5,4.123105625617661,3.0,3.0,14.0,11.0,13.038404810405298,{}
97,97,5.0,31.064449134018133,4.0,6.082762530298219,8.06225774829855,9.0,5.0990195135927845,20.09975124224178,14.0356688476182,11.5,9.0,11.0,5.0,10.0,3.0,1.0,4.0,3.0,3.0,14.0,11.0,13.038404810405298,{}
98,98,6.0,31.064449134018133,3.0,6.082762530298219,8.06225774829855,9.0,6.082762530298219,21.095023109728988,15.033296378372908,12.0,9.0,11.0,4.0,11.0,4.0,1.0,4.0,3.0,3.0,15.0,12.0,12.041594578792296,{}
99,99,7.071067811865476,31.064449134018133,3.0,5.0,8.06225774829855,9.055385138137416,6.082762530298219,21.095023109728988,16.1245154965971,12.5,9.0,11.0,4.0,11.0,5.0,1.0,3.0,3.0,3.0,15.0,11.0,12.041594578792296,{}
100,100,7.071067811865476,31.14482300479488,3.0,5.0,8.06225774829855,9.055385138137416,6.082762530298219,21.095023109728988,16.1245154965971,12.5,9.0,12.0,4.5,10.5,4.5,1.5,3.0,4.0,4.0,15.0,11.0,12.041594578792296,{}
101,101,6.082762530298219,31.14482300479488,4.0,6.0,8.06225774829855,9.055385138137416,6.082762530298219,22.09072203437452,16.1245154965971,13.0,9.0,12.0,4.5,11.5,5.5,0.5,3.1622776601683795,4.0,4.0,15.0,11.0,12.16552506059644,{}
102,102,7.0,31.14482300479488,3.0,6.082762530298219,8.0,9.0,6.082762530298219,22.09072203437452,16.0312195418814,12.5,9.0,12.0,4.5,11.5,4.5,1.5,3.0,4.0,4.0,15.0,11.0,12.16552506059644,{}
103,103,7.0,31.14482300479488,3.0,6.082762530298219,8.0,9.0,6.082762530298219,22.09072203437452,16.0312195418814,12.5,9.0,12.0,4.5,11.5,4.5,1.5,3.0,4.123105625617661,3.5,15.0,11.0,13.152946437965904,{}
104,104,7.071067811865476,31.14482300479488,3.0,5.0,8.0,9.055385138137416,6.082762530298219,21.095023109728988,16.1245154965971,12.5,9.0,12.0,4.5,10.5,4.5,1.5,3.1622776601683795,4.123105625617661,3.5,15.0,11.0,13.038404810405298,{}
105,105,7.0,30.14962686336267,3.1622776601683795,5.0990195135927845,8.0,9.055385138137416,6.0,21.095023109728988,16.0312195418814,12.5,9.0,12.0,4.5,10.5,4.5,1.5,2.23606797749979,2.0,2.5,15.0,11.0,13.038404810405298,{}
106,106,7.0,32.14031735997639,3.1622776601683795,6.082762530298219,9.0,9.0,6.0,22.09072203437452,16.0312195418814,12.5,9.0,12.0,4.5,11.5,4.5,1.5,1.4142135623730951,2.0,1.5,15.0,11.0,13.038404810405298,{}
107,107,6.0,32.14031735997639,4.123105625617661,6.082762530298219,9.055385138137416,9.0,6.0,22.09072203437452,16.0312195418814,13.0,9.0,12.0,4.5,11.5,4.5,0.5,1.4142135623730951,1.0,1.5,15.0,11.0,13.038404810405298,{}
108,108,7.0,32.14031735997639,3.0,5.0990195135927845,9.055385138137416,9.0,6.082762530298219,21.095023109728988,16.0312195418814,12.5,9.0,12.0,4.5,10.5,4.5,1.5,2.23606797749979,1.0,1.5,15.0,11.0,13.0,{}
109,109,6.0,31.14482300479488,3.1622776601683795,6.082762530298219,9.0,9.055385138137416,6.0,21.095023109728988,15.033296378372908,12.0,9.0,12.0,4.5,10.5,4.5,1.5,1.4142135623730951,1.0,1.0,15.0,11.0,13.038404810405298,{}
110,110,6.082762530298219,32.0624390837628,3.0,6.0,8.06225774829855,9.055385138137416,6.082762530298219,21.095023109728988,15.132745950421556,12.0,9.0,11.0,4.0,11.0,4.0,1.0,1.4142135623730951,1.4142135623730951,1.0,14.0,11.0,13.038404810405298,{}
111,111,6.0,30.066592756745816,4.123105625617661,5.0,8.06225774829855,9.0,5.0,20.024984394500787,15.033296378372908,12.0,9.0,11.0,5.0,10.0,4.0,1.0,1.4142135623730951,2.0,1.5,15.0,11.0,13.038404810405298,{}
112,112,6.0,31.064449134018133,3.1622776601683795,6.0,8.06225774829855,9.055385138137416,5.0990195135927845,20.09975124224178,14.142135623730953,11.0,9.0,11.0,5.0,10.0,3.0,1.0,1.4142135623730951,2.0,1.5,15.0,11.0,13.038404810405298,{}
113,113,6.082762530298219,30.14962686336267,3.0,6.0,8.0,9.0,6.0,21.02379604162864,15.033296378372908,12.0,9.0,12.0,4.5,10.5,3.5,1.5,2.23606797749979,1.0,1.5,15.0,11.0,13.038404810405298,{}
114,114,5.0990195135927845,31.14482300479488,3.0,6.0,8.0,9.055385138137416,6.082762530298219,20.09975124224178,14.142135623730953,11.5,9.0,12.0,4.5,9.5,3.5,1.5,2.23606797749979,1.0,1.0,15.0,11.0,13.038404810405298,{}
115,115,4.0,31.064449134018133,4.0,6.082762530298219,8.06225774829855,8.06225774829855,6.082762530298219,20.09975124224178,14.0356688476182,12.0,10.0,12.0,5.0,9.0,2.0,1.0,1.0,1.0,1.0,15.0,11.0,14.0356688476182,{}
116,116,4.123105625617661,31.064449134018133,4.0,6.0,8.0,8.06225774829855,5.0990195135927845,19.1049731745428,13.152946437965904,11.0,9.0,11.0,5.0,9.0,2.0,1.0,1.4142135623730951,1.0,1.0,15.0,11.0,13.038404810405298,{}
117,117,3.0,29.154759474226505,4.0,6.082762530298219,8.06225774829855,8.06225774829855,6.082762530298219,19.1049731745428,13.038404810405298,11.5,9.0,12.0,4.5,8.5,1.5,0.5,1.4142135623730951,1.0,1.5,14.0,11.0,13.038404810405298,{}
118,118,2.23606797749979,29.068883707497267,4.0,6.0,8.06225774829855,8.0,6.0,18.027756377319943,12.041594578792296,11.0,9.0,11.0,4.0,8.0,2.0,0.0,2.23606797749979,1.0,1.0,14.0,11.0,14.0356688476182,{}
119,119,3.1622776601683795,29.017236257093817,4.0,6.0,7.0,8.06225774829855,6.0,19.026297590440446,13.038404810405298,11.5,10.0,11.0,4.5,8.5,1.5,0.5,2.0,2.0,2.0,14.0,11.0,13.038404810405298,{}
120,120,1.0,29.017236257093817,5.0,7.0,7.0,7.0,6.0,19.0,12.0,11.5,10.0,11.0,4.5,8.5,1.5,0.5,2.23606797749979,3.1622776601683795,2.5,14.0,12.0,14.0,{}
121,121,1.0,28.0178514522438,4.0,7.0,7.0,8.0,6.082762530298219,18.027756377319943,11.04536101718726,10.5,10.0,11.0,4.5,7.5,0.5,0.5,3.1622776601683795,3.0,3.0,13.0,11.0,14.0,{}
122,122,1.4142135623730951,28.0,4.0,6.0,7.0,7.0,6.0,17.029386365926403,11.04536101718726,10.5,10.0,10.0,4.0,7.0,1.0,0.0,3.0,4.0,3.5,13.0,12.0,14.0,{}
123,123,1.4142135623730951,27.018512172212592,4.0,7.0,7.0,7.0,6.0,18.027756377319943,11.04536101718726,10.5,10.0,11.0,4.5,7.5,0.5,0.5,3.0,3.1622776601683795,3.0,13.0,12.0,14.0,{}
124,124,2.0,28.0178514522438,4.0,6.0,7.0,8.0,6.0,18.0,12.0,11.0,10.0,11.0,4.5,7.5,0.5,0.5,3.0,3.1622776601683795,3.0,14.0,13.0,14.0,{}
125,125,3.0,28.0178514522438,4.0,7.0,7.071067811865476,8.0,6.082762530298219,20.024984394500787,13.038404810405298,11.5,10.0,11.0,4.5,9.5,2.5,0.5,3.1622776601683795,3.0,3.0,13.0,12.0,13.038404810405298,{}
126,126,4.0,29.0,4.0,7.0,7.0,8.0,6.082762530298219,21.02379604162864,14.0356688476182,12.0,11.0,11.0,5.0,10.0,2.0,1.0,3.1622776601683795,3.0,3.0,13.0,12.0,13.0,{}
127,127,5.0,27.018512172212592,4.0,7.0,8.0,9.0,5.0,21.0,14.0,11.5,10.0,11.0,5.5,10.5,2.5,1.5,3.1622776601683795,3.0,3.0,14.0,12.0,13.038404810405298,{}
128,128,6.082762530298219,29.017236257093817,3.0,7.0,9.0,9.0,6.0,22.02271554554524,15.033296378372908,12.0,11.0,12.0,5.5,10.5,2.5,2.5,4.0,3.0,3.0,14.0,12.0,14.0356688476182,{}
129,129,6.0,30.0,3.1622776601683795,7.0,8.0,9.0,5.0,21.02379604162864,14.0356688476182,11.0,10.0,10.0,5.0,11.0,3.0,2.0,3.0,4.0,3.5,13.0,12.0,14.0356688476182,{}
130,130,6.0,30.01666203960727,3.0,6.082762530298219,8.06225774829855,9.0,6.0,21.02379604162864,15.0,12.0,10.0,11.0,4.5,10.5,3.5,1.5,3.0,4.123105625617661,3.5,13.0,12.0,12.0,{}
131,131,5.0990195135927845,31.016124838541646,3.0,6.0,9.0,9.0,6.0,20.024984394500787,14.0356688476182,11.5,9.0,10.0,3.5,10.5,4.5,1.5,3.0,3.1622776601683795,3.0,13.0,12.0,13.038404810405298,{}
132,132,6.082762530298219,30.01666203960727,3.0,6.0,8.0,9.0,5.0,20.024984394500787,14.0356688476182,11.0,9.0,10.0,4.5,10.5,4.5,1.5,3.0,3.1622776601683795,3.0,13.0,12.0,13.0,{}
133,133,6.082762530298219,31.016124838541646,3.0,6.0,8.0,8.0,5.0,20.024984394500787,14.0356688476182,11.0,9.0,10.0,4.5,10.5,3.5,1.5,3.0,3.1622776601683795,3.0,14.0,12.0,13.038404810405298,{}
134,134,6.0,31.016124838541646,3.1622776601683795,6.0,9.0,9.0,5.0,20.024984394500787,14.0356688476182,11.0,9.0,10.0,4.5,10.5,4.5,1.5,3.0,4.123105625617661,4.0,13.0,12.0,12.0,{}
135,135,5.0990195135927845,30.01666203960727,3.0,6.0,8.06225774829855,8.0,5.0,19.026297590440446,13.038404810405298,10.5,8.0,9.0,3.5,10.5,4.5,0.5,4.0,3.1622776601683795,3.0,14.0,12.0,13.038404810405298,{}
136,136,5.0,30.01666203960727,3.0,6.0,8.0,8.0,5.0990195135927845,19.026297590440446,13.038404810405298,10.5,8.0,9.0,3.5,10.5,4.5,0.5,3.0,3.1622776601683795,3.5,13.0,12.0,13.038404810405298,{}
137,137,5.0990195135927845,30.0,3.0,5.0,8.0,8.0,6.0,19.026297590440446,14.0356688476182,11.5,9.0,9.0,3.0,10.0,4.0,1.0,3.0,4.0,3.5,14.0,13.0,13.0,{}
138,138,6.0,30.066592756745816,3.0,5.0,8.06225774829855,9.055385138137416,5.0990195135927845,19.026297590440446,14.0356688476182,11.0,7.0,9.0,3.0,11.0,5.0,0.0,3.1622776601683795,4.0,4.0,14.0,12.0,14.0356688476182,{}
139,139,6.0,31.016124838541646,3.0,6.082762530298219,8.06225774829855,9.055385138137416,5.0,20.024984394500787,14.0,11.0,8.0,9.0,3.5,11.5,5.5,0.5,3.0,4.0,4.0,13.0,12.0,14.0,{}
140,140,6.0,30.01666203960727,3.0,5.0,8.06225774829855,9.0,5.0,19.0,14.0,11.0,8.0,9.0,3.5,10.5,4.5,0.5,3.0,4.0,4.0,13.0,12.0,14.0356688476182,{}
141,141,4.0,30.01666203960727,3.0,6.0,7.071067811865476,8.06225774829855,5.0990195135927845,18.027756377319943,12.041594578792296,10.0,7.0,8.0,2.5,10.5,4.5,0.5,4.0,4.123105625617661,3.5,14.0,12.0,13.038404810405298,{}
142,142,4.0,30.066592756745816,3.0,6.082762530298219,8.0,9.055385138137416,5.0,18.027756377319943,12.0,10.0,7.0,9.0,3.0,10.0,4.0,0.0,3.1622776601683795,4.123105625617661,4.0,14.0,12.0,12.041594578792296,{}
143,143,3.0,29.017236257093817,3.0,6.0,8.06225774829855,8.0,6.082762530298219,18.027756377319943,12.041594578792296,10.5,8.0,9.0,2.5,9.5,2.5,0.5,3.0,3.1622776601683795,3.0,14.0,11.0,12.16552506059644,{}
144,144,1.0,29.068883707497267,3.0,6.082762530298219,8.0,7.0,7.071067811865476,17.11724276862369,11.04536101718726,10.5,8.0,10.0,2.0,8.0,1.0,1.0,4.0,4.123105625617661,4.0,14.0,12.0,12.041594578792296,{}
145,145,1.0,28.0178514522438,3.0,5.0,7.0,7.0,6.082762530298219,15.033296378372908,10.04987562112089,9.5,8.0,9.0,2.5,6.5,0.5,0.5,4.123105625617661,4.123105625617661,4.0,14.0,12.0,13.038404810405298,{}
146,146,1.0,28.0178514522438,4.0,6.0,7.0,7.071067811865476,6.0,16.0312195418814,10.04987562112089,10.0,8.0,9.0,2.5,7.5,1.5,0.5,4.123105625617661,4.0,4.0,14.0,12.0,13.038404810405298,{}
147,147,2.0,27.018512172212592,3.0,5.0990195135927845,7.071067811865476,7.0,7.071067811865476,17.11724276862369,12.041594578792296,11.0,9.0,10.0,2.5,7.5,1.5,0.5,4.123105625617661,3.0,3.0,14.0,11.0,13.0,{}
148,148,4.123105625617661,29.017236257093817,3.0,6.0,8.0,8.0,6.0,19.026297590440446,13.038404810405298,11.0,9.0,10.0,3.5,9.5,2.5,0.5,4.123105625617661,3.0,3.5,13.0,11.0,13.038404810405298,{}
149,149,4.123105625617661,28.0713376952364,3.0,6.0,7.071067811865476,8.06225774829855,6.082762530298219,19.1049731745428,13.152946437965904,11.0,8.0,10.0,3.0,10.0,3.0,0.0,3.1622776601683795,3.0,3.5,13.0,11.0,13.038404810405298,{}
150,150,4.123105625617661,29.017236257093817,3.0,6.0,8.0,8.0,6.0,19.026297590440446,13.038404810405298,11.0,9.0,10.0,3.5,9.5,2.5,0.5,3.1622776601683795,4.0,4.0,13.0,11.0,13.038404810405298,{}
151,151,4.123105625617661,29.017236257093817,3.0,5.0,8.06225774829855,8.0,6.0,18.027756377319943,13.038404810405298,11.0,8.0,9.0,2.5,9.5,3.5,0.5,4.123105625617661,4.0,4.0,14.0,12.0,13.038404810405298,{}
152,152,4.123105625617661,29.017236257093817,3.0,5.0,8.06225774829855,9.0,6.0,18.027756377319943,13.038404810405298,11.0,8.0,9.0,2.5,9.5,3.5,0.5,4.123105625617661,4.123105625617661,4.0,14.0,12.0,14.0356688476182,{}
153,153,3.1622776601683795,29.017236257093817,3.0,6.0,8.06225774829855,8.0,5.0,17.029386365926403,11.04536101718726,9.5,7.0,8.0,2.5,9.5,3.5,0.5,3.0,4.123105625617661,4.0,13.0,12.0,12.041594578792296,{}
154,154,3.0,29.0,3.1622776601683795,6.0,8.0,9.0,5.0,17.029386365926403,11.04536101718726,9.5,7.0,7.0,2.0,10.0,4.0,0.0,4.123105625617661,4.0,4.0,14.0,11.0,13.038404810405298,{}
155,155,3.0,30.01666203960727,3.0,6.0,8.0,8.0,6.0,18.0,12.0,10.5,8.0,9.0,2.5,9.5,3.5,0.5,4.123105625617661,3.0,3.5,13.0,12.0,13.038404810405298,{}
156,156,3.0,30.01666203960727,3.0,6.0,8.06225774829855,8.0,6.082762530298219,18.027756377319943,12.041594578792296,10.5,7.0,8.0,1.5,10.5,3.5,1.5,3.1622776601683795,4.0,4.0,14.0,12.0,12.041594578792296,{}
157,157,3.1622776601683795,29.0,4.0,6.082762530298219,7.0,9.0,5.0990195135927845,18.027756377319943,12.0,10.5,8.0,8.0,3.0,10.0,3.0,0.0,4.0,4.0,4.0,14.0,12.0,13.038404810405298,{}
158,158,3.1622776601683795,29.017236257093817,3.0,5.0,8.0,9.0,6.0,17.029386365926403,12.041594578792296,10.5,7.0,8.0,1.5,9.5,3.5,0.5,4.0,4.123105625617661,3.5,13.0,11.0,12.0,{}
159,159,3.0,29.017236257093817,3.0,6.0,7.071067811865476,8.06225774829855,5.0990195135927845,17.029386365926403,11.04536101718726,9.5,7.0,8.0,2.5,9.5,3.5,0.5,3.0,3.1622776601683795,3.0,13.0,11.0,13.038404810405298,{}
160,160,3.1622776601683795,29.017236257093817,3.0,6.0,8.0,8.06225774829855,5.0,17.029386365926403,11.04536101718726,9.5,7.0,8.0,2.5,9.5,3.5,0.5,3.0,4.0,4.0,13.0,11.0,13.038404810405298,{}
161,161,4.0,30.0,3.1622776601683795,5.0,8.06225774829855,9.055385138137416,5.0,17.029386365926403,12.041594578792296,10.0,7.0,7.0,2.0,10.0,4.0,1.0,3.1622776601683795,3.0,3.5,13.0,11.0,13.038404810405298,{}
162,162,4.0,30.01666203960727,3.0,5.0,8.0,8.0,6.082762530298219,18.027756377319943,13.038404810405298,11.0,8.0,9.0,2.5,9.5,3.5,0.5,4.0,4.0,4.0,13.0,12.0,13.038404810405298,{}
163,163,4.0,30.01666203960727,4.0,5.0,8.0,8.0,5.0,18.0,13.0,11.0,8.0,9.0,3.5,9.5,3.5,0.5,3.1622776601683795,4.0,4.0,14.0,12.0,13.0,{}
164,164,4.0,29.0,4.0,5.0990195135927845,8.0,8.0,5.0,18.027756377319943,13.0,11.0,8.0,8.0,3.0,10.0,4.0,0.0,4.0,4.123105625617661,4.0,14.0,11.0,12.16552506059644,{}
165,165,5.0990195135927845,29.017236257093817,3.0,6.0,8.0,9.0,5.0,19.026297590440446,13.038404810405298,10.5,8.0,9.0,3.5,10.5,4.5,0.5,3.0,3.1622776601683795,3.5,14.0,12.0,13.038404810405298,{}
166,166,5.0,30.01666203960727,3.0,6.0,8.0,9.0,5.0990195135927845,19.026297590440446,13.038404810405298,10.5,8.0,9.0,3.5,10.5,4.5,0.5,2.0,3.0,3.0,13.0,12.0,13.038404810405298,{}
167,167,5.0,30.01666203960727,3.0,6.0,8.0,9.0,6.082762530298219,20.024984394500787,14.0356688476182,11.5,9.0,10.0,3.5,10.5,4.5,1.5,1.0,2.0,2.0,14.0,12.0,13.038404810405298,{}
168,168,6.0,29.068883707497267,3.0,6.082762530298219,8.06225774829855,8.06225774829855,6.0,21.02379604162864,15.0,12.0,9.0,11.0,4.0,11.0,4.0,1.0,2.23606797749979,2.0,2.0,14.0,12.0,15.033296378372908,{}
169,169,7.0,28.0178514522438,3.0,6.082762530298219,8.0,9.0,6.0,22.02271554554524,16.0,12.5,10.0,11.0,4.5,11.5,4.5,1.5,1.0,2.0,1.5,14.0,12.0,13.038404810405298,{}
170,170,5.0990195135927845,28.0713376952364,4.0,7.0,7.071067811865476,8.0,6.0,22.02271554554524,15.033296378372908,12.5,10.0,12.0,5.0,11.0,3.0,1.0,1.4142135623730951,2.0,2.0,14.0,11.0,13.038404810405298,{}
171,171,6.082762530298219,27.073972741361768,4.0,6.0,7.071067811865476,8.0,6.0,22.02271554554524,16.0312195418814,13.0,11.0,13.0,6.0,10.0,3.0,2.0,2.0,2.0,2.0,15.0,11.0,14.142135623730953,{}
172,172,4.123105625617661,26.1725046566048,3.0,6.0,6.0,8.06225774829855,7.071067811865476,20.09975124224178,14.142135623730953,12.0,10.0,13.0,4.5,8.5,1.5,1.5,2.0,2.0,2.0,15.0,11.0,13.038404810405298,{}
173,173,1.0,27.16615541441225,5.0,6.082762530298219,6.082762530298219,7.071067811865476,7.071067811865476,19.1049731745428,13.038404810405298,12.5,10.0,13.0,4.5,7.5,0.5,0.5,2.0,2.0,2.0,15.0,11.0,13.038404810405298,{}
174,174,1.0,27.16615541441225,4.0,5.0,7.071067811865476,7.071067811865476,7.0,16.0312195418814,11.04536101718726,11.0,9.0,12.0,3.5,5.5,0.5,0.5,2.23606797749979,1.0,1.5,15.0,11.0,13.038404810405298,{}
175,175,1.0,27.16615541441225,4.0,6.0,6.082762530298219,6.082762530298219,6.082762530298219,16.1245154965971,10.198039027185567,10.0,9.0,12.0,4.5,5.5,0.5,0.5,2.23606797749979,1.0,1.5,15.0,11.0,13.038404810405298,{}
176,176,0.0,27.16615541441225,4.0,6.082762530298219,6.082762530298219,7.071067811865476,6.082762530298219,16.1245154965971,10.04987562112089,10.0,9.0,12.0,4.5,5.5,1.5,0.5,1.4142135623730951,1.0,1.5,14.0,10.0,13.038404810405298,{}
177,177,0.0,27.16615541441225,3.0,6.082762530298219,7.0,7.071067811865476,7.071067811865476,16.1245154965971,10.04987562112089,10.0,9.0,12.0,3.5,5.5,0.5,0.5,1.0,2.0,2.0,14.0,10.0,13.152946437965904,{}
178,178,3.0,27.16615541441225,4.123105625617661,6.082762530298219,7.0,7.071067811865476,6.0,19.1049731745428,13.038404810405298,11.5,9.0,12.0,4.5,8.5,1.5,0.5,2.23606797749979,2.0,1.5,14.0,10.0,13.152946437965904,{}
179,179,4.123105625617661,27.16615541441225,4.0,7.071067811865476,7.071067811865476,8.0,6.0,21.095023109728988,14.0356688476182,12.0,10.0,13.0,5.5,9.5,1.5,1.5,2.23606797749979,2.0,1.5,14.0,10.0,13.038404810405298,{}
180,180,4.123105625617661,28.16025568065745,4.0,6.0,8.06225774829855,8.0,6.082762530298219,20.09975124224178,14.142135623730953,12.0,10.0,13.0,5.5,8.5,1.5,1.5,1.4142135623730951,2.0,2.0,15.0,11.0,13.038404810405298,{}
181,181,4.0,29.068883707497267,4.0,6.082762530298219,8.06225774829855,8.06225774829855,5.0990195135927845,19.1049731745428,13.038404810405298,11.0,9.0,11.0,5.0,9.0,2.0,1.0,3.0,3.0,2.5,15.0,10.0,13.152946437965904,{}
182,182,4.123105625617661,29.154759474226505,4.0,6.0,8.06225774829855,8.06225774829855,5.0990195135927845,19.1049731745428,13.152946437965904,11.0,9.0,12.0,5.5,8.5,1.5,1.5,3.1622776601683795,2.0,2.5,14.0,10.0,13.038404810405298,{}
183,183,3.1622776601683795,28.16025568065745,4.0,6.0,8.06225774829855,8.06225774829855,6.082762530298219,19.1049731745428,13.152946437965904,11.5,9.0,12.0,4.5,8.5,2.5,0.5,3.1622776601683795,3.0,3.0,14.0,9.0,13.038404810405298,{}
184,184,4.123105625617661,29.154759474226505,3.0,6.082762530298219,8.06225774829855,8.06225774829855,6.082762530298219,19.235384061671343,13.152946437965904,11.0,8.0,11.0,3.5,9.5,2.5,0.5,2.23606797749979,3.0,3.0,15.0,10.0,13.152946437965904,{}
185,185,4.123105625617661,29.154759474226505,4.0,6.082762530298219,7.071067811865476,9.055385138137416,6.082762530298219,20.223748416156685,14.142135623730953,12.0,9.0,12.0,4.5,9.5,2.5,0.5,4.123105625617661,3.0,3.5,14.0,9.0,12.16552506059644,{}
186,186,5.0,29.27456233660889,4.123105625617661,6.082762530298219,7.071067811865476,8.06225774829855,5.0,20.09975124224178,14.0356688476182,11.5,8.0,12.0,5.0,10.0,3.0,1.0,3.1622776601683795,3.0,3.0,15.0,10.0,12.16552506059644,{}
187,187,5.0,29.27456233660889,3.1622776601683795,5.0990195135927845,7.071067811865476,8.06225774829855,6.0,19.1049731745428,14.0356688476182,11.5,8.0,12.0,4.0,9.0,3.0,1.0,3.1622776601683795,4.0,3.5,15.0,10.0,12.16552506059644,{}
188,188,5.0,29.154759474226505,3.1622776601683795,6.082762530298219,7.071067811865476,8.06225774829855,6.0,20.09975124224178,14.0356688476182,11.5,8.0,11.0,3.5,10.5,3.5,0.5,3.1622776601683795,4.0,3.5,15.0,10.0,12.16552506059644,{}
189,189,4.0,28.284271247461906,3.1622776601683795,6.082762530298219,7.071067811865476,8.06225774829855,6.0,19.1049731745428,13.038404810405298,11.0,8.0,12.0,4.0,9.0,3.0,1.0,4.123105625617661,4.0,3.5,15.0,10.0,12.041594578792296,{}
190,190,2.23606797749979,28.284271247461906,4.0,6.0,6.082762530298219,8.06225774829855,6.082762530298219,18.110770276274835,12.16552506059644,11.0,8.0,12.0,4.0,8.0,2.0,0.0,4.123105625617661,4.0,3.5,15.0,10.0,13.038404810405298,{}
191,191,1.4142135623730951,27.16615541441225,4.0,6.0,6.082762530298219,7.071067811865476,6.082762530298219,17.11724276862369,11.180339887498947,10.5,9.0,12.0,4.5,6.5,0.5,0.5,4.0,3.0,3.5,15.0,10.0,13.038404810405298,{}
192,192,1.0,27.16615541441225,4.0,6.082762530298219,6.082762530298219,7.071067811865476,6.082762530298219,17.11724276862369,11.04536101718726,10.5,8.0,11.0,3.5,7.5,0.5,0.5,3.0,3.0,3.0,15.0,10.0,13.152946437965904,{}
193,193,1.4142135623730951,28.16025568065745,4.0,6.0,7.071067811865476,7.071067811865476,6.082762530298219,17.11724276862369,11.180339887498947,10.5,8.0,11.0,3.5,7.5,0.5,0.5,3.1622776601683795,3.0,3.0,14.0,9.0,13.152946437965904,{}
194,194,3.1622776601683795,27.16615541441225,4.0,6.0,7.0,8.06225774829855,6.082762530298219,19.1049731745428,13.152946437965904,11.5,9.0,12.0,4.5,8.5,1.5,0.5,3.1622776601683795,3.0,3.0,15.0,10.0,13.152946437965904,{}
195,195,3.1622776601683795,28.16025568065745,4.0,6.0,8.06225774829855,8.0,5.0990195135927845,18.110770276274835,12.16552506059644,10.5,9.0,12.0,5.5,7.5,0.5,0.5,3.1622776601683795,3.0,3.0,14.0,9.0,13.152946437965904,{}
196,196,3.1622776601683795,28.16025568065745,4.0,7.0,8.0,8.06225774829855,5.0990195135927845,19.1049731745428,12.16552506059644,10.5,9.0,12.0,5.5,8.5,0.5,1.5,3.1622776601683795,4.0,3.5,15.0,10.0,13.152946437965904,{}
197,197,1.0,28.16025568065745,5.0,8.06225774829855,7.071067811865476,8.06225774829855,5.0990195135927845,19.1049731745428,11.04536101718726,10.5,9.0,12.0,5.5,8.5,0.5,0.5,3.1622776601683795,3.0,3.0,15.0,10.0,13.152946437965904,{}
198,198,2.23606797749979,28.16025568065745,4.0,6.0,7.071067811865476,8.06225774829855,6.0,18.027756377319943,12.041594578792296,11.0,9.0,12.0,4.5,7.5,0.5,0.5,3.0,3.0,3.0,14.0,10.0,13.152946437965904,{}
199,199,0.0,27.073972741361768,4.0,6.082762530298219,7.071067811865476,7.071067811865476,7.071067811865476,17.11724276862369,11.04536101718726,11.0,10.0,12.0,4.0,6.0,0.0,0.0,3.1622776601683795,3.0,3.0,14.0,10.0,13.038404810405298,{}
200,200,1.4142135623730951,27.073972741361768,4.0,6.0,7.0,7.071067811865476,6.0,17.029386365926403,11.04536101718726,10.5,10.0,12.0,5.0,6.0,0.0,1.0,3.1622776601683795,3.0,3.0,14.0,10.0,13.038404810405298,{}
201,201,1.0,26.019223662515376,4.0,6.082762530298219,6.0,7.071067811865476,6.082762530298219,17.11724276862369,11.04536101718726,10.5,10.0,11.0,4.5,6.5,0.5,0.5,3.0,3.0,3.0,14.0,11.0,13.038404810405298,{}
202,202,2.0,27.018512172212592,4.0,7.0,7.0,8.0,6.082762530298219,19.026297590440446,12.041594578792296,11.0,10.0,11.0,4.5,8.5,0.5,0.5,3.1622776601683795,3.0,3.0,14.0,11.0,13.152946437965904,{}
203,203,2.0,26.019223662515376,4.0,7.0,7.071067811865476,7.071067811865476,6.082762530298219,19.026297590440446,12.041594578792296,11.0,10.0,11.0,4.5,8.5,1.5,0.5,3.0,4.0,4.0,14.0,12.0,14.0356688476182,{}
204,204,3.0,26.019223662515376,3.0,7.0,7.0,8.0,6.082762530298219,19.026297590440446,12.041594578792296,10.5,10.0,11.0,4.5,8.5,0.5,1.5,3.1622776601683795,4.0,4.0,14.0,12.0,14.0356688476182,{}
205,205,3.0,27.018512172212592,3.0,7.0,8.0,8.0,6.082762530298219,19.026297590440446,12.041594578792296,10.5,10.0,11.0,4.5,8.5,1.5,1.5,3.1622776601683795,3.0,3.0,14.0,12.0,13.038404810405298,{}
206,206,3.1622776601683795,27.073972741361768,4.0,6.0,7.0,8.0,5.0,18.027756377319943,12.041594578792296,10.5,9.0,11.0,5.0,8.0,1.0,1.0,4.123105625617661,3.0,3.0,14.0,12.0,14.0356688476182,{}
207,207,3.0,28.0178514522438,4.0,6.0,8.06225774829855,8.06225774829855,5.0990195135927845,18.027756377319943,12.041594578792296,10.5,9.0,10.0,4.5,8.5,1.5,0.5,3.1622776601683795,4.0,4.0,14.0,11.0,12.041594578792296,{}
208,208,4.0,28.0713376952364,4.0,6.0,8.06225774829855,7.0,5.0990195135927845,19.026297590440446,13.038404810405298,11.0,9.0,11.0,5.0,9.0,2.0,1.0,4.123105625617661,4.0,3.5,14.0,11.0,13.038404810405298,{}
209,209,5.0,27.018512172212592,3.0,6.082762530298219,8.0,8.0,6.0,20.024984394500787,14.0,11.5,10.0,11.0,4.5,9.5,2.5,1.5,4.0,5.0990195135927845,4.5,14.0,12.0,13.038404810405298,{}
210,210,4.123105625617661,28.0713376952364,3.0,6.0,7.0,8.0,6.0,19.026297590440446,13.038404810405298,11.0,9.0,11.0,4.0,9.0,3.0,1.0,4.0,4.123105625617661,3.5,14.0,12.0,13.038404810405298,{}
211,211,4.0,28.0178514522438,3.0,6.0,7.0,8.06225774829855,6.082762530298219,19.026297590440446,13.038404810405298,11.0,9.0,10.0,3.5,9.5,2.5,0.5,4.0,4.0,4.0,13.0,11.0,13.038404810405298,{}
212,212,3.0,28.0713376952364,4.123105625617661,6.0,7.071067811865476,8.0,5.0,18.027756377319943,12.041594578792296,10.5,8.0,10.0,4.0,9.0,3.0,0.0,3.0,4.123105625617661,4.0,14.0,11.0,13.038404810405298,{}
213,213,3.0,28.0713376952364,4.0,6.0,7.0,8.0,5.0990195135927845,18.027756377319943,12.041594578792296,10.5,8.0,10.0,4.0,9.0,2.0,1.0,4.123105625617661,4.123105625617661,4.0,14.0,11.0,14.0356688476182,{}
214,214,3.0,28.0713376952364,4.0,6.0,6.0,7.0,5.0990195135927845,18.027756377319943,12.041594578792296,10.5,8.0,10.0,4.0,9.0,2.0,1.0,4.123105625617661,4.123105625617661,4.0,14.0,11.0,13.152946437965904,{}
215,215,3.0,28.0713376952364,4.0,6.0,6.0,7.0,5.0990195135927845,18.027756377319943,12.041594578792296,10.5,8.0,10.0,4.0,9.0,2.0,1.0,4.123105625617661,4.0,4.0,14.0,11.0,12.041594578792296,{}
216,216,3.0,28.0178514522438,3.0,6.0,8.06225774829855,8.0,6.082762530298219,18.027756377319943,12.041594578792296,10.5,9.0,10.0,3.5,8.5,1.5,0.5,4.0,4.0,4.0,14.0,11.0,13.038404810405298,{}
217,217,3.0,28.0178514522438,3.0,6.0,7.0,8.0,6.082762530298219,18.027756377319943,12.041594578792296,10.5,9.0,10.0,3.5,8.5,2.5,0.5,4.0,4.0,4.0,14.0,12.0,13.0,{}
218,218,4.0,28.0713376952364,3.0,6.082762530298219,8.0,7.0,6.0,19.026297590440446,13.0,11.0,9.0,11.0,4.0,9.0,2.0,1.0,4.123105625617661,4.123105625617661,4.0,14.0,12.0,14.0356688476182,{}
219,219,5.0,28.0178514522438,3.0,7.0,7.0,8.0,5.0990195135927845,20.024984394500787,13.038404810405298,10.5,9.0,10.0,4.5,10.5,3.5,1.5,4.0,4.0,4.0,14.0,12.0,13.038404810405298,{}
220,220,5.0,28.0713376952364,4.0,7.0,7.071067811865476,8.0,6.082762530298219,22.02271554554524,15.033296378372908,12.5,10.0,12.0,5.0,11.0,4.0,1.0,4.123105625617661,3.0,3.0,14.0,11.0,14.0356688476182,{}
221,221,5.0,28.0713376952364,4.0,6.082762530298219,8.06225774829855,8.0,5.0990195135927845,20.09975124224178,14.0356688476182,11.5,9.0,11.0,5.0,10.0,3.0,1.0,4.0,4.0,4.0,14.0,11.0,13.038404810405298,{}
222,222,5.0,28.0178514522438,4.0,6.082762530298219,8.0,8.06225774829855,5.0990195135927845,20.09975124224178,14.0356688476182,11.5,9.0,10.0,4.5,10.5,3.5,1.5,4.123105625617661,4.0,4.0,14.0,12.0,13.038404810405298,{}
223,223,5.0,28.0713376952364,3.0,6.082762530298219,8.0,8.06225774829855,6.082762530298219,20.09975124224178,14.0356688476182,11.5,9.0,11.0,4.0,10.0,3.0,1.0,4.123105625617661,4.0,4.0,14.0,12.0,14.0356688476182,{}
224,224,4.0,28.0178514522438,4.0,6.082762530298219,7.0,7.0,5.0,19.026297590440446,13.0,11.0,9.0,10.0,4.5,9.5,2.5,0.5,3.1622776601683795,4.0,4.0,15.0,12.0,13.038404810405298,{}
225,225,3.0,27.018512172212592,4.0,6.0,7.071067811865476,8.0,6.082762530298219,19.026297590440446,13.038404810405298,11.5,10.0,11.0,4.5,8.5,2.5,0.5,4.0,4.123105625617661,4.0,15.0,12.0,14.0356688476182,{}
226,226,3.0,26.0768096208106,4.0,6.0,6.082762530298219,6.082762530298219,6.082762530298219,19.026297590440446,13.038404810405298,11.5,9.0,11.0,4.0,9.0,2.0,0.0,4.123105625617661,4.123105625617661,4.0,16.0,13.0,14.0356688476182,{}
227,227,2.0,25.019992006393608,4.0,7.0,6.082762530298219,6.082762530298219,6.082762530298219,19.026297590440446,12.041594578792296,11.0,10.0,11.0,4.5,8.5,1.5,0.5,4.0,5.0,5.0,17.0,14.0,14.0356688476182,{}
228,228,3.1622776601683795,24.020824298928627,4.0,7.0,5.0,5.0990195135927845,6.082762530298219,20.0,13.0,11.5,11.0,12.0,5.5,8.5,1.5,1.5,4.123105625617661,4.0,4.0,16.0,13.0,15.033296378372908,{}
229,229,2.0,23.021728866442675,4.0,7.0,5.0,6.082762530298219,7.0,20.0,13.0,12.0,12.0,13.0,5.5,7.5,0.5,1.5,3.1622776601683795,4.0,4.0,17.0,14.0,15.033296378372908,{}
230,230,2.0,22.0,5.0,7.0,6.082762530298219,6.082762530298219,6.0,20.0,13.0,12.0,12.0,12.0,6.0,8.0,1.0,1.0,4.123105625617661,4.123105625617661,4.0,16.0,13.0,14.0,{}
231,231,2.0,22.0,5.0,7.0,5.0990195135927845,6.0,6.082762530298219,20.024984394500787,13.038404810405298,12.0,12.0,12.0,6.0,8.0,0.0,1.0,4.123105625617661,4.123105625617661,4.0,16.0,14.0,14.0356688476182,{}
232,232,2.0,22.02271554554524,4.0,7.0,5.0990195135927845,7.0,7.0,20.0,13.0,12.0,12.0,13.0,5.5,7.5,0.5,1.5,4.0,4.123105625617661,4.0,16.0,14.0,14.0356688476182,{}
233,233,3.0,23.021728866442675,4.0,7.0,5.0,6.0,7.0,21.0,14.0,12.5,12.0,13.0,5.5,8.5,1.5,1.5,4.0,4.123105625617661,4.0,16.0,14.0,15.033296378372908,{}
234,234,5.0,23.0,5.0990195135927845,7.0,7.071067811865476,7.0,6.0,23.021728866442675,16.0312195418814,13.5,13.0,13.0,7.0,10.0,2.0,2.0,4.123105625617661,4.0,4.0,16.0,14.0,15.0,{}
235,235,6.0,25.0,5.0,8.0,6.0,8.0,6.082762530298219,25.019992006393608,17.029386365926403,14.0,14.0,14.0,8.0,11.0,2.0,3.0,4.0,5.0,4.5,16.0,14.0,14.0356688476182,{}
236,236,5.0,24.020824298928627,5.0,8.0,7.0,7.0,7.071067811865476,25.019992006393608,17.029386365926403,14.5,14.0,15.0,7.5,10.5,1.5,3.5,4.123105625617661,4.0,4.0,15.0,14.0,14.0,{}
237,237,4.123105625617661,24.08318915758459,5.0,8.0,7.071067811865476,7.0,6.082762530298219,23.08679276123039,15.132745950421556,13.0,12.0,14.0,7.0,10.0,1.0,2.0,4.0,4.0,4.0,15.0,13.0,13.0,{}
238,238,3.0,25.019992006393608,4.0,7.0,7.0,8.0,7.280109889280518,21.095023109728988,14.142135623730953,12.5,12.0,13.0,5.5,8.5,1.5,1.5,4.123105625617661,5.0,4.5,16.0,13.0,15.033296378372908,{}
239,239,3.0,25.079872407968907,4.0,7.0,6.0,7.0,7.071067811865476,21.02379604162864,14.0356688476182,12.5,11.0,13.0,5.0,9.0,2.0,1.0,4.123105625617661,4.0,4.5,16.0,14.0,14.0356688476182,{}
240,240,3.0,25.079872407968907,4.0,7.0,6.082762530298219,7.071067811865476,7.071067811865476,21.02379604162864,14.0356688476182,12.5,11.0,13.0,5.0,9.0,1.0,1.0,5.0990195135927845,5.0,5.0,15.0,13.0,14.0,{}
241,241,3.0,23.08679276123039,5.0,7.0,6.082762530298219,7.0,6.082762530298219,21.02379604162864,14.0356688476182,12.5,11.0,13.0,6.0,9.0,1.0,1.0,4.123105625617661,5.0,5.0,16.0,14.0,14.0356688476182,{}
242,242,3.0,24.08318915758459,5.0,7.0,6.0,7.071067811865476,6.082762530298219,21.02379604162864,14.0356688476182,12.5,11.0,13.0,6.0,9.0,1.0,2.0,4.123105625617661,4.0,4.0,15.0,13.0,13.038404810405298,{}
243,243,4.0,24.08318915758459,4.0,7.0,6.0,7.0,6.082762530298219,21.02379604162864,14.0356688476182,12.0,11.0,13.0,6.0,9.0,1.0,2.0,4.123105625617661,4.123105625617661,4.0,15.0,13.0,14.0356688476182,{}
244,244,3.0,24.020824298928627,4.0,8.0,6.0,7.0,7.071067811865476,22.02271554554524,14.0356688476182,12.5,12.0,13.0,5.5,9.5,1.5,1.5,4.123105625617661,5.0,4.5,15.0,13.0,14.0,{}
245,245,3.0,24.020824298928627,4.0,7.071067811865476,6.082762530298219,7.0,7.071067811865476,21.095023109728988,14.0356688476182,12.5,12.0,13.0,5.5,8.5,1.5,1.5,4.123105625617661,4.0,4.0,15.0,13.0,14.0,{}
246,246,2.0,25.079872407968907,5.0,8.0,6.0,7.0,6.082762530298219,21.02379604162864,13.038404810405298,12.0,11.0,13.0,6.0,9.0,1.0,2.0,4.123105625617661,5.0990195135927845,4.5,14.0,12.0,14.0356688476182,{}
247,247,3.0,24.020824298928627,4.0,7.0,6.082762530298219,7.071067811865476,6.082762530298219,20.024984394500787,13.038404810405298,11.5,11.0,12.0,5.5,8.5,1.5,1.5,4.123105625617661,5.0,4.5,15.0,13.0,14.0,{}
248,248,3.0,25.019992006393608,5.0,7.0,7.071067811865476,7.071067811865476,6.082762530298219,21.02379604162864,14.0356688476182,12.5,12.0,13.0,6.5,8.5,0.5,1.5,3.0,3.0,3.0,15.0,13.0,14.0,{}
249,249,3.0,25.019992006393608,5.0,7.0,6.082762530298219,7.071067811865476,6.082762530298219,21.02379604162864,14.0356688476182,12.5,12.0,13.0,6.5,8.5,0.5,1.5,2.0,3.0,3.0,15.0,13.0,14.0356688476182,{}
250,250,3.0,26.019223662515376,5.0,8.0,6.082762530298219,7.071067811865476,6.082762530298219,22.02271554554524,14.0356688476182,12.5,12.0,13.0,6.5,9.5,1.5,1.5,3.0,2.0,2.0,15.0,13.0,14.0356688476182,{}
251,251,5.0990195135927845,27.018512172212592,4.0,7.0,7.0,8.0,6.0,22.02271554554524,15.033296378372908,12.5,12.0,13.0,6.5,9.5,1.5,2.5,3.1622776601683795,2.0,2.5,15.0,13.0,14.0356688476182,{}
252,252,6.0,27.018512172212592,4.0,7.0,7.071067811865476,8.06225774829855,6.082762530298219,23.021728866442675,16.0312195418814,13.0,12.0,13.0,6.5,10.5,2.5,2.5,3.1622776601683795,2.0,2.5,15.0,13.0,13.038404810405298,{}
253,253,6.0,27.018512172212592,5.0,7.0,7.071067811865476,8.06225774829855,5.0990195135927845,23.021728866442675,16.0312195418814,13.0,12.0,13.0,7.5,10.5,2.5,2.5,2.23606797749979,2.0,2.5,14.0,12.0,13.038404810405298,{}
254,254,7.0,27.073972741361768,4.0,7.071067811865476,8.0,8.06225774829855,6.0,24.020824298928627,17.0,13.5,12.0,14.0,7.0,11.0,3.0,3.0,3.1622776601683795,2.0,2.0,15.0,12.0,13.038404810405298,{}
255,255,6.082762530298219,28.0178514522438,5.0,7.0,8.06225774829855,8.0,6.082762530298219,24.08318915758459,17.11724276862369,14.0,13.0,14.0,7.5,10.5,3.5,2.5,2.0,2.0,2.5,14.0,12.0,13.0,{}
256,256,7.071067811865476,28.0713376952364,4.0,7.0,8.06225774829855,8.0,6.082762530298219,24.08318915758459,17.11724276862369,13.5,11.0,13.0,6.0,12.0,4.0,2.0,1.4142135623730951,2.0,2.0,15.0,13.0,14.0356688476182,{}
257,257,6.0,28.0713376952364,4.0,7.071067811865476,8.0,9.0,6.082762530298219,23.08679276123039,16.0312195418814,13.0,12.0,14.0,7.0,10.0,3.0,3.0,2.0,2.0,2.0,14.0,12.0,13.038404810405298,{}
258,258,7.0,28.0713376952364,4.123105625617661,7.0,7.071067811865476,9.055385138137416,5.0,23.021728866442675,16.0312195418814,12.5,11.0,13.0,7.0,11.0,3.0,2.0,1.0,2.0,2.0,15.0,12.0,13.038404810405298,{}
259,259,6.0,28.0713376952364,4.123105625617661,7.071067811865476,7.0,9.0,6.0,23.08679276123039,16.0312195418814,13.0,12.0,14.0,7.0,10.0,2.0,3.0,1.0,2.0,1.5,14.0,12.0,13.038404810405298,{}
260,260,5.0,27.073972741361768,4.123105625617661,8.06225774829855,7.071067811865476,9.055385138137416,6.0,23.08679276123039,15.033296378372908,12.5,12.0,14.0,7.0,10.0,2.0,2.0,2.23606797749979,3.0,2.5,14.0,12.0,13.038404810405298,{}
261,261,5.0,28.0713376952364,4.0,8.06225774829855,8.0,9.0,5.0990195135927845,22.09072203437452,14.0356688476182,11.5,11.0,13.0,7.0,10.0,1.0,3.0,2.0,3.0,2.5,14.0,11.0,13.038404810405298,{}
262,262,5.0,28.0713376952364,4.0,7.071067811865476,8.06225774829855,8.06225774829855,5.0990195135927845,21.095023109728988,14.0356688476182,11.5,11.0,13.0,7.0,9.0,1.0,2.0,2.23606797749979,3.0,2.5,14.0,11.0,14.0356688476182,{}
263,263,4.123105625617661,28.0713376952364,4.0,7.0,7.0,8.06225774829855,6.082762530298219,21.095023109728988,14.142135623730953,12.0,11.0,13.0,6.0,9.0,1.0,2.0,2.23606797749979,3.0,3.0,15.0,12.0,13.038404810405298,{}
264,264,4.0,27.073972741361768,3.0,7.071067811865476,7.0,8.06225774829855,6.082762530298219,20.09975124224178,13.038404810405298,11.0,10.0,12.0,5.0,9.0,2.0,2.0,3.1622776601683795,3.0,3.0,14.0,11.0,14.0356688476182,{}
265,265,4.0,27.16615541441225,4.0,6.0,7.071067811865476,7.071067811865476,6.082762530298219,20.024984394500787,14.0356688476182,12.0,10.0,13.0,5.5,8.5,1.5,1.5,3.1622776601683795,3.0,3.0,15.0,11.0,12.16552506059644,{}
266,266,3.0,27.16615541441225,4.0,7.071067811865476,7.071067811865476,8.06225774829855,6.082762530298219,20.09975124224178,13.038404810405298,11.5,10.0,13.0,5.5,8.5,0.5,1.5,3.1622776601683795,4.123105625617661,3.5,15.0,11.0,13.038404810405298,{}
267,267,4.0,27.16615541441225,4.0,7.071067811865476,6.082762530298219,8.06225774829855,6.082762530298219,21.095023109728988,14.0356688476182,12.0,10.0,13.0,5.5,9.5,1.5,1.5,3.1622776601683795,3.1622776601683795,3.0,15.0,12.0,12.041594578792296,{}
268,268,3.1622776601683795,27.16615541441225,4.0,8.0,8.06225774829855,8.06225774829855,6.082762530298219,21.095023109728988,13.152946437965904,11.5,10.0,13.0,5.5,9.5,1.5,1.5,3.0,3.0,3.0,14.0,11.0,13.038404810405298,{}
269,269,4.0,28.16025568065745,4.123105625617661,7.071067811865476,7.071067811865476,9.055385138137416,6.082762530298219,21.213203435596427,14.142135623730953,12.0,10.0,13.0,5.5,9.5,1.5,1.5,3.1622776601683795,3.0,3.0,14.0,11.0,12.041594578792296,{}
270,270,3.1622776601683795,28.0713376952364,4.0,7.0,7.071067811865476,8.06225774829855,6.082762530298219,20.09975124224178,13.152946437965904,11.5,10.0,12.0,5.0,9.0,1.0,1.0,3.0,4.0,3.5,15.0,11.0,12.041594578792296,{}
271,271,4.123105625617661,28.16025568065745,4.0,7.0,8.0,8.06225774829855,5.0990195135927845,20.09975124224178,13.152946437965904,11.0,9.0,12.0,5.5,9.5,1.5,1.5,3.0,4.0,3.5,14.0,11.0,13.038404810405298,{}
272,272,3.1622776601683795,28.16025568065745,4.0,7.0,7.071067811865476,8.0,6.082762530298219,20.09975124224178,13.152946437965904,11.5,10.0,13.0,5.5,8.5,1.5,1.5,3.1622776601683795,4.0,4.0,15.0,12.0,13.038404810405298,{}
273,273,3.0,29.154759474226505,4.0,7.071067811865476,8.06225774829855,8.0,6.082762530298219,20.09975124224178,13.038404810405298,11.5,10.0,13.0,5.5,8.5,0.5,1.5,4.123105625617661,3.0,3.0,15.0,12.0,13.038404810405298,{}
274,274,4.123105625617661,29.154759474226505,4.0,7.0,8.0,8.06225774829855,5.0990195135927845,20.09975124224178,13.152946437965904,11.0,9.0,12.0,5.5,9.5,1.5,1.5,3.1622776601683795,3.1622776601683795,3.0,14.0,11.0,13.152946437965904,{}
275,275,4.0,29.154759474226505,4.0,7.071067811865476,8.06225774829855,8.06225774829855,5.0990195135927845,20.09975124224178,13.038404810405298,11.0,9.0,12.0,5.5,9.5,1.5,1.5,3.1622776601683795,4.123105625617661,3.5,15.0,11.0,13.152946437965904,{}
276,276,3.0,29.154759474226505,4.0,7.071067811865476,8.06225774829855,9.055385138137416,6.082762530298219,20.09975124224178,13.038404810405298,11.5,10.0,13.0,5.5,8.5,0.5,1.5,3.0,3.0,3.5,15.0,11.0,13.038404810405298,{}
277,277,4.0,29.068883707497267,4.123105625617661,7.071067811865476,7.0,9.055385138137416,5.0990195135927845,20.223748416156685,13.152946437965904,11.0,10.0,12.0,6.0,9.0,1.0,2.0,4.0,3.0,3.0,15.0,12.0,13.038404810405298,{}
278,278,4.123105625617661,29.068883707497267,4.0,7.0,7.0,8.06225774829855,5.0990195135927845,20.09975124224178,13.152946437965904,11.0,10.0,12.0,6.0,9.0,1.0,2.0,4.123105625617661,3.0,3.0,15.0,12.0,13.038404810405298,{}
279,279,4.0,29.154759474226505,4.123105625617661,7.071067811865476,7.0,9.0,5.0,20.09975124224178,13.038404810405298,11.0,9.0,12.0,5.5,9.5,1.5,1.5,3.0,3.0,3.0,15.0,12.0,12.041594578792296,{}
280,280,3.0,29.154759474226505,4.123105625617661,7.071067811865476,7.0,8.06225774829855,5.0,19.1049731745428,12.041594578792296,10.5,9.0,12.0,5.5,8.5,0.5,1.5,4.123105625617661,4.0,4.0,15.0,12.0,13.038404810405298,{}
281,281,3.1622776601683795,28.0713376952364,4.0,6.0,7.071067811865476,8.0,5.0990195135927845,18.110770276274835,12.16552506059644,10.5,9.0,11.0,5.0,8.0,1.0,1.0,3.1622776601683795,3.0,3.0,14.0,12.0,13.038404810405298,{}
282,282,3.0,28.0713376952364,4.0,6.082762530298219,6.0,7.071067811865476,5.0990195135927845,18.110770276274835,12.041594578792296,10.5,9.0,11.0,5.0,8.0,1.0,1.0,4.0,4.123105625617661,4.0,14.0,12.0,12.041594578792296,{}
283,283,1.0,27.018512172212592,4.0,7.0,6.082762530298219,7.071067811865476,6.082762530298219,18.027756377319943,11.04536101718726,10.5,9.0,10.0,3.5,8.5,1.5,0.5,4.123105625617661,4.123105625617661,4.0,14.0,12.0,12.0,{}
284,284,2.0,26.0768096208106,4.0,6.082762530298219,6.082762530298219,7.071067811865476,6.082762530298219,18.110770276274835,12.041594578792296,11.0,9.0,11.0,4.0,8.0,1.0,0.0,3.1622776601683795,4.0,4.0,14.0,11.0,12.041594578792296,{}
285,285,2.0,27.018512172212592,3.0,7.0,6.0,7.071067811865476,6.082762530298219,18.027756377319943,11.04536101718726,10.0,9.0,10.0,3.5,8.5,1.5,0.5,4.123105625617661,5.0990195135927845,4.5,15.0,12.0,13.038404810405298,{}
286,286,2.0,26.019223662515376,4.0,6.0,6.082762530298219,7.0,6.082762530298219,18.027756377319943,12.041594578792296,11.0,10.0,11.0,4.5,7.5,0.5,0.5,3.1622776601683795,4.0,4.0,14.0,12.0,13.038404810405298,{}
287,287,2.0,26.019223662515376,3.0,7.0,6.0,8.0,6.082762530298219,18.027756377319943,11.04536101718726,10.0,9.0,10.0,3.5,8.5,1.5,0.5,4.123105625617661,4.123105625617661,4.0,14.0,11.0,12.041594578792296,{}
288,288,3.0,28.0713376952364,4.0,6.0,7.0,8.0,6.082762530298219,19.026297590440446,13.038404810405298,11.5,9.0,11.0,4.0,9.0,2.0,1.0,4.123105625617661,4.123105625617661,4.0,14.0,12.0,13.038404810405298,{}
289,289,4.0,28.0178514522438,3.0,7.071067811865476,8.0,8.0,6.082762530298219,20.09975124224178,13.038404810405298,11.0,10.0,11.0,4.5,9.5,2.5,1.5,4.123105625617661,4.0,4.0,14.0,12.0,13.038404810405298,{}
290,290,5.0,28.0713376952364,3.0,7.0,7.0,8.06225774829855,6.082762530298219,21.02379604162864,14.0356688476182,11.5,9.0,11.0,4.0,11.0,3.0,1.0,4.123105625617661,4.0,4.0,14.0,12.0,13.038404810405298,{}
291,291,5.0,28.0713376952364,3.0,7.0,7.0,8.06225774829855,6.082762530298219,21.02379604162864,14.0356688476182,11.5,9.0,11.0,4.0,11.0,3.0,1.0,4.123105625617661,4.0,4.0,14.0,12.0,13.038404810405298,{}
292,292,4.0,28.0178514522438,4.0,6.082762530298219,7.071067811865476,7.071067811865476,6.082762530298219,20.09975124224178,14.0356688476182,12.0,10.0,11.0,4.5,9.5,2.5,0.5,4.123105625617661,4.0,4.0,14.0,12.0,13.038404810405298,{}
293,293,4.0,28.0713376952364,3.0,6.082762530298219,8.0,7.0,6.082762530298219,19.1049731745428,13.038404810405298,11.0,9.0,11.0,4.0,9.0,3.0,1.0,4.123105625617661,4.0,4.0,14.0,12.0,13.038404810405298,{}
294,294,4.0,28.0713376952364,3.0,6.082762530298219,8.0,8.06225774829855,6.082762530298219,19.1049731745428,13.038404810405298,11.0,9.0,11.0,4.0,9.0,2.0,1.0,4.123105625617661,4.0,4.0,14.0,12.0,12.041594578792296,{}
295,295,4.0,28.0713376952364,3.0,6.082762530298219,7.0,7.0,6.082762530298219,19.1049731745428,13.038404810405298,11.0,9.0,11.0,4.0,9.0,2.0,1.0,4.123105625617661,4.0,4.0,15.0,12.0,13.038404810405298,{}
296,296,3.0,28.0178514522438,4.0,7.071067811865476,8.06225774829855,8.0,5.0990195135927845,19.1049731745428,12.041594578792296,10.5,9.0,10.0,4.5,9.5,2.5,0.5,4.123105625617661,4.0,4.0,15.0,12.0,13.038404810405298,{}
297,297,3.0,28.0178514522438,4.0,6.0,7.071067811865476,8.0,5.0990195135927845,18.027756377319943,12.041594578792296,10.5,9.0,10.0,4.5,8.5,2.5,0.5,4.123105625617661,5.0,4.5,14.0,11.0,14.0356688476182,{}
298,298,4.0,28.0178514522438,4.0,6.082762530298219,8.06225774829855,8.0,5.0990195135927845,19.1049731745428,13.038404810405298,11.0,9.0,10.0,4.5,9.5,2.5,0.5,4.123105625617661,4.0,3.5,15.0,12.0,14.142135623730953,{}
299,299,4.0,28.0713376952364,4.0,6.082762530298219,8.0,9.055385138137416,5.0990195135927845,19.1049731745428,13.038404810405298,11.0,8.0,10.0,4.0,10.0,3.0,1.0,4.123105625617661,4.0,4.0,14.0,11.0,14.0356688476182,{}
300,300,6.0,28.0178514522438,3.0,6.082762530298219,8.0,8.06225774829855,6.082762530298219,21.095023109728988,15.033296378372908,12.0,10.0,11.0,4.5,10.5,3.5,1.5,4.123105625617661,4.123105625617661,4.0,15.0,12.0,14.0356688476182,{}
301,301,6.0,28.0713376952364,3.0,7.071067811865476,8.0,8.06225774829855,6.082762530298219,22.09072203437452,15.033296378372908,12.0,10.0,12.0,5.0,11.0,3.0,2.0,4.123105625617661,4.0,4.0,14.0,11.0,12.041594578792296,{}
302,302,7.0,28.0713376952364,3.0,7.071067811865476,7.0,8.06225774829855,6.082762530298219,23.08679276123039,16.0312195418814,12.5,10.0,12.0,5.0,12.0,4.0,2.0,4.0,4.123105625617661,4.0,14.0,11.0,13.038404810405298,{}
303,303,8.0,27.073972741361768,4.0,6.082762530298219,8.0,8.0,5.0990195135927845,23.08679276123039,17.029386365926403,13.0,11.0,13.0,7.0,11.0,4.0,3.0,4.0,4.0,4.0,14.0,12.0,14.0356688476182,{}
304,304,8.0,25.179356624028344,4.0,7.071067811865476,7.071067811865476,8.06225774829855,5.0990195135927845,24.08318915758459,17.029386365926403,13.0,11.0,14.0,7.5,11.5,4.5,3.5,4.123105625617661,4.123105625617661,4.0,15.0,12.0,13.152946437965904,{}
305,305,9.0,25.019992006393608,4.0,7.0,7.0,8.06225774829855,6.082762530298219,26.019223662515376,19.026297590440446,14.5,14.0,15.0,8.5,11.5,3.5,4.5,4.0,5.0,5.0,15.0,12.0,12.041594578792296,{}
306,306,10.0,24.08318915758459,4.0,7.071067811865476,8.06225774829855,8.06225774829855,5.0990195135927845,26.0768096208106,19.026297590440446,14.0,13.0,15.0,9.0,12.0,4.0,4.0,4.123105625617661,4.0,3.5,15.0,12.0,13.152946437965904,{}
307,307,8.06225774829855,23.08679276123039,4.0,7.0,7.071067811865476,8.06225774829855,6.0,25.019992006393608,18.027756377319943,14.0,13.0,15.0,8.0,11.0,3.0,4.0,4.123105625617661,4.0,4.0,15.0,11.0,14.0356688476182,{}
308,308,5.0,24.186773244895647,4.0,7.071067811865476,7.071067811865476,7.0,6.082762530298219,22.09072203437452,15.033296378372908,12.5,12.0,15.0,7.5,8.5,0.5,2.5,3.1622776601683795,3.0,3.0,15.0,12.0,14.0356688476182,{}
309,309,3.0,26.0768096208106,5.0,6.082762530298219,7.071067811865476,7.071067811865476,5.0990195135927845,19.1049731745428,13.038404810405298,11.5,11.0,13.0,7.0,7.0,0.0,2.0,2.0,2.23606797749979,2.0,15.0,12.0,13.038404810405298,{}
310,310,1.0,26.1725046566048,5.0,7.071067811865476,6.082762530298219,7.071067811865476,5.0,18.027756377319943,11.0,10.5,10.0,13.0,6.5,6.5,1.5,1.5,1.4142135623730951,3.0,2.5,15.0,11.0,13.152946437965904,{}
311,311,1.0,26.0768096208106,4.0,6.082762530298219,7.0,8.0,6.082762530298219,17.11724276862369,11.04536101718726,10.5,11.0,13.0,6.0,5.0,2.0,2.0,1.4142135623730951,2.23606797749979,2.0,15.0,12.0,13.038404810405298,{}
312,312,1.0,26.0768096208106,4.0,6.0,7.071067811865476,7.0,6.0,16.0312195418814,10.04987562112089,10.0,10.0,12.0,5.0,5.0,1.0,1.0,2.0,2.0,2.0,14.0,11.0,13.038404810405298,{}
313,313,0.0,27.073972741361768,4.0,7.071067811865476,6.0,7.071067811865476,6.082762530298219,17.11724276862369,10.04987562112089,10.0,10.0,12.0,5.0,6.0,1.0,1.0,2.23606797749979,2.0,2.0,15.0,11.0,13.152946437965904,{}
314,314,2.0,26.1725046566048,4.0,6.082762530298219,6.0,7.0,7.071067811865476,19.1049731745428,13.038404810405298,12.0,11.0,14.0,5.5,6.5,0.5,1.5,2.23606797749979,3.0,2.5,15.0,11.0,13.038404810405298,{}
315,315,3.0,26.0768096208106,4.0,7.071067811865476,7.071067811865476,8.06225774829855,7.071067811865476,21.095023109728988,14.0356688476182,12.5,11.0,13.0,5.0,9.0,1.0,1.0,2.23606797749979,2.0,2.0,15.0,11.0,13.152946437965904,{}
316,316,2.23606797749979,26.1725046566048,5.0,8.0,7.071067811865476,8.06225774829855,6.082762530298219,21.095023109728988,13.152946437965904,12.0,11.0,14.0,6.5,8.5,0.5,1.5,2.23606797749979,2.0,2.0,15.0,11.0,13.152946437965904,{}
317,317,4.123105625617661,27.16615541441225,4.0,7.0,7.071067811865476,8.06225774829855,5.0990195135927845,20.09975124224178,13.152946437965904,11.0,10.0,13.0,6.5,8.5,0.5,2.5,2.0,3.0,2.5,15.0,10.0,12.16552506059644,{}
318,318,4.123105625617661,26.1725046566048,4.0,8.0,7.071067811865476,8.06225774829855,5.0990195135927845,21.095023109728988,13.152946437965904,11.0,10.0,13.0,6.5,9.5,0.5,2.5,3.0,3.0,2.5,16.0,11.0,12.16552506059644,{}
319,319,4.0,27.16615541441225,4.123105625617661,7.071067811865476,7.071067811865476,8.06225774829855,5.0,20.09975124224178,13.038404810405298,11.0,10.0,13.0,6.5,8.5,0.5,1.5,2.23606797749979,3.0,3.0,15.0,10.0,13.152946437965904,{}
320,320,4.0,27.16615541441225,4.0,7.071067811865476,7.071067811865476,8.06225774829855,5.0990195135927845,20.09975124224178,13.038404810405298,11.0,10.0,13.0,6.5,8.5,0.5,1.5,2.23606797749979,3.0,3.0,16.0,11.0,12.16552506059644,{}
321,321,4.0,27.16615541441225,4.123105625617661,7.071067811865476,7.071067811865476,8.06225774829855,5.0,20.09975124224178,13.038404810405298,11.0,10.0,13.0,6.5,8.5,0.5,1.5,3.1622776601683795,3.0,3.0,15.0,10.0,13.152946437965904,{}
322,322,4.123105625617661,27.16615541441225,4.0,7.071067811865476,7.071067811865476,7.071067811865476,5.0,20.09975124224178,13.038404810405298,11.0,10.0,13.0,6.5,8.5,0.5,1.5,3.1622776601683795,4.0,3.5,15.0,10.0,13.152946437965904,{}
323,323,4.0,27.16615541441225,4.123105625617661,7.071067811865476,7.071067811865476,7.071067811865476,5.0990195135927845,20.223748416156685,13.152946437965904,11.0,10.0,13.0,6.5,8.5,0.5,1.5,3.1622776601683795,4.0,3.5,16.0,11.0,13.152946437965904,{}
324,324,4.123105625617661,27.16615541441225,4.0,7.071067811865476,7.071067811865476,7.071067811865476,5.0990195135927845,20.223748416156685,13.152946437965904,11.0,10.0,13.0,6.5,8.5,0.5,1.5,3.1622776601683795,4.0,3.5,16.0,11.0,13.152946437965904,{}
325,325,4.123105625617661,27.16615541441225,4.0,7.071067811865476,7.071067811865476,7.071067811865476,6.082762530298219,21.213203435596427,14.142135623730953,12.0,10.0,13.0,5.5,9.5,1.5,1.5,3.1622776601683795,4.0,3.5,15.0,11.0,13.152946437965904,{}
326,326,4.0,27.29468812791236,4.123105625617661,7.071067811865476,7.071067811865476,8.06225774829855,5.0990195135927845,20.223748416156685,13.152946437965904,11.0,9.0,13.0,6.0,9.0,1.0,2.0,4.123105625617661,4.0,3.5,15.0,11.0,13.152946437965904,{}
327,327,4.0,26.1725046566048,4.123105625617661,7.071067811865476,7.071067811865476,7.071067811865476,5.0,20.09975124224178,13.038404810405298,11.0,10.0,13.0,6.5,8.5,0.5,2.5,4.123105625617661,3.0,3.5,15.0,10.0,13.038404810405298,{}
328,328,4.0,27.16615541441225,4.123105625617661,7.071067811865476,7.071067811865476,8.06225774829855,5.0990195135927845,20.223748416156685,13.152946437965904,11.0,10.0,13.0,6.5,8.5,0.5,1.5,4.123105625617661,3.0,3.5,15.0,10.0,13.038404810405298,{}
329,329,4.0,27.16615541441225,3.1622776601683795,8.06225774829855,7.071067811865476,8.06225774829855,6.0,21.095023109728988,13.038404810405298,11.0,10.0,13.0,5.5,9.5,1.5,1.5,4.123105625617661,3.0,3.5,15.0,10.0,13.038404810405298,{}
330,330,4.123105625617661,28.16025568065745,3.0,6.0,7.071067811865476,7.071067811865476,6.082762530298219,19.1049731745428,13.152946437965904,11.0,10.0,13.0,5.5,7.5,0.5,1.5,3.0,3.0,3.5,15.0,10.0,13.038404810405298,{}
331,331,2.23606797749979,28.16025568065745,4.0,7.0,7.0,8.0,5.0990195135927845,18.110770276274835,11.180339887498947,10.0,9.0,12.0,5.5,7.5,0.5,1.5,4.123105625617661,3.0,3.0,15.0,11.0,14.0356688476182,{}
332,332,2.23606797749979,28.16025568065745,4.0,6.0,8.0,8.06225774829855,5.0990195135927845,17.11724276862369,11.180339887498947,10.0,9.0,12.0,5.5,6.5,0.5,1.5,3.1622776601683795,4.123105625617661,4.0,15.0,11.0,14.0356688476182,{}
333,333,2.23606797749979,28.284271247461906,4.0,6.082762530298219,7.0,7.071067811865476,5.0,17.11724276862369,11.04536101718726,10.0,8.0,12.0,5.0,7.0,0.0,1.0,3.1622776601683795,4.0,4.0,15.0,11.0,13.152946437965904,{}
334,334,2.23606797749979,29.154759474226505,4.0,6.0,7.071067811865476,8.0,5.0,17.029386365926403,11.04536101718726,10.0,8.0,11.0,4.5,7.5,0.5,0.5,3.1622776601683795,4.0,3.5,16.0,11.0,13.152946437965904,{}
335,335,2.0,29.27456233660889,3.1622776601683795,7.0,7.0,8.06225774829855,7.0,19.026297590440446,12.041594578792296,11.0,9.0,13.0,4.0,8.0,1.0,1.0,3.1622776601683795,4.0,3.5,15.0,11.0,14.0356688476182,{}
336,336,2.23606797749979,29.154759474226505,3.0,7.0,7.0,7.071067811865476,6.0,18.027756377319943,11.04536101718726,10.0,9.0,12.0,4.5,7.5,0.5,1.5,3.0,4.123105625617661,3.5,15.0,11.0,13.038404810405298,{}
337,337,2.0,29.154759474226505,4.0,7.071067811865476,7.071067811865476,7.071067811865476,6.082762530298219,19.1049731745428,12.041594578792296,11.0,9.0,12.0,4.5,8.5,1.5,0.5,3.1622776601683795,3.0,3.5,16.0,12.0,12.16552506059644,{}
338,338,4.0,28.16025568065745,4.0,7.071067811865476,7.071067811865476,8.0,6.082762530298219,21.095023109728988,14.0356688476182,12.0,10.0,13.0,5.5,9.5,2.5,1.5,3.0,4.0,4.0,15.0,11.0,12.16552506059644,{}
339,339,6.0,28.0713376952364,3.0,7.071067811865476,7.0,8.06225774829855,6.082762530298219,22.09072203437452,15.033296378372908,12.0,10.0,12.0,5.0,11.0,4.0,2.0,4.0,4.0,4.0,15.0,11.0,13.038404810405298,{}
340,340,7.0,28.16025568065745,3.0,6.082762530298219,7.071067811865476,8.06225774829855,6.082762530298219,22.09072203437452,16.0312195418814,12.5,10.0,13.0,5.5,10.5,3.5,1.5,4.0,4.0,4.0,15.0,11.0,12.16552506059644,{}
341,341,7.071067811865476,28.16025568065745,3.0,6.0,7.071067811865476,8.06225774829855,6.082762530298219,22.09072203437452,16.1245154965971,12.5,10.0,13.0,5.5,10.5,3.5,2.5,4.123105625617661,4.0,4.0,15.0,11.0,13.038404810405298,{}
342,342,6.082762530298219,28.16025568065745,3.0,6.082762530298219,7.0,9.055385138137416,6.0,21.095023109728988,15.033296378372908,12.0,9.0,12.0,4.5,10.5,3.5,1.5,3.1622776601683795,4.0,3.5,16.0,12.0,13.152946437965904,{}
343,343,5.0,29.154759474226505,3.0,6.082762530298219,7.0,8.06225774829855,6.082762530298219,20.09975124224178,14.0356688476182,11.5,9.0,12.0,4.5,9.5,2.5,1.5,4.0,4.0,3.5,16.0,11.0,13.152946437965904,{}
344,344,3.0,30.14962686336267,4.0,6.082762530298219,7.071067811865476,8.06225774829855,6.082762530298219,19.1049731745428,13.038404810405298,11.5,8.0,11.0,3.5,9.5,2.5,0.5,3.1622776601683795,3.0,3.0,15.0,11.0,13.152946437965904,{}
345,345,2.23606797749979,30.14962686336267,4.0,7.0,7.071067811865476,8.0,6.082762530298219,19.1049731745428,12.16552506059644,11.0,8.0,11.0,3.5,9.5,2.5,0.5,3.1622776601683795,3.0,3.5,15.0,11.0,13.038404810405298,{}
346,346,3.0,30.14962686336267,3.0,6.082762530298219,8.06225774829855,8.06225774829855,6.082762530298219,18.110770276274835,12.041594578792296,10.5,8.0,11.0,3.5,8.5,1.5,0.5,3.1622776601683795,4.0,4.0,15.0,11.0,12.041594578792296,{}
347,347,3.1622776601683795,30.066592756745816,4.0,6.0,8.06225774829855,8.06225774829855,5.0990195135927845,18.110770276274835,12.16552506059644,10.5,8.0,10.0,4.0,9.0,2.0,0.0,3.1622776601683795,4.0,4.0,15.0,11.0,13.152946437965904,{}
348,348,3.0,30.14962686336267,3.0,6.082762530298219,8.06225774829855,8.06225774829855,6.082762530298219,18.110770276274835,12.041594578792296,10.5,8.0,11.0,3.5,8.5,1.5,0.5,3.1622776601683795,4.0,4.0,15.0,11.0,13.038404810405298,{}
349,349,3.1622776601683795,30.066592756745816,4.0,6.0,8.06225774829855,8.06225774829855,5.0990195135927845,18.110770276274835,12.16552506059644,10.5,8.0,10.0,4.0,9.0,3.0,0.0,3.1622776601683795,3.0,3.5,15.0,11.0,13.038404810405298,{}
350,350,3.1622776601683795,30.14962686336267,4.0,6.0,7.071067811865476,8.06225774829855,6.082762530298219,19.1049731745428,13.152946437965904,11.5,8.0,11.0,3.5,9.5,2.5,0.5,4.123105625617661,4.0,3.5,16.0,12.0,13.152946437965904,{}
351,351,2.0,28.16025568065745,4.0,6.082762530298219,7.071067811865476,7.071067811865476,6.082762530298219,18.110770276274835,12.041594578792296,11.0,8.0,11.0,3.5,8.5,1.5,0.5,4.123105625617661,4.0,4.0,16.0,11.0,13.038404810405298,{}
352,352,0.0,28.16025568065745,4.0,6.082762530298219,7.071067811865476,7.071067811865476,7.071067811865476,17.11724276862369,11.04536101718726,11.0,9.0,12.0,3.5,6.5,0.5,0.5,3.1622776601683795,4.0,3.5,16.0,12.0,14.0356688476182,{}
353,353,0.0,27.16615541441225,4.0,6.082762530298219,6.0,7.0,6.082762530298219,16.1245154965971,10.04987562112089,10.0,9.0,12.0,4.5,5.5,0.5,0.5,3.1622776601683795,4.0,4.0,17.0,13.0,13.152946437965904,{}
354,354,0.0,28.0713376952364,4.0,6.082762530298219,7.071067811865476,7.071067811865476,7.071067811865476,17.11724276862369,11.04536101718726,11.0,10.0,12.0,4.0,6.0,1.0,0.0,4.0,3.0,3.0,16.0,13.0,14.0356688476182,{}
355,355,0.0,28.0713376952364,5.0,7.071067811865476,7.071067811865476,7.0,6.082762530298219,18.110770276274835,11.04536101718726,11.0,10.0,12.0,5.0,7.0,0.0,0.0,4.123105625617661,4.0,3.5,17.0,13.0,14.0356688476182,{}
356,356,2.0,28.16025568065745,5.0,7.071067811865476,7.071067811865476,7.071067811865476,6.082762530298219,20.09975124224178,13.038404810405298,12.0,10.0,13.0,5.5,8.5,1.5,0.5,3.0,4.0,3.5,17.0,13.0,14.0356688476182,{}
357,357,2.0,28.16025568065745,5.0,8.06225774829855,7.071067811865476,8.06225774829855,6.082762530298219,21.095023109728988,13.038404810405298,12.0,10.0,13.0,5.5,9.5,1.5,0.5,3.0,4.0,3.5,16.0,13.0,14.0356688476182,{}
358,358,3.1622776601683795,29.068883707497267,4.0,7.0,7.0,8.06225774829855,6.0,20.024984394500787,13.038404810405298,11.5,10.0,12.0,5.0,9.0,1.0,1.0,3.0,4.0,4.0,17.0,13.0,14.0356688476182,{}
359,359,3.0,28.16025568065745,4.0,7.071067811865476,7.071067811865476,8.0,6.082762530298219,20.09975124224178,13.038404810405298,11.5,9.0,12.0,4.5,9.5,1.5,0.5,4.0,4.0,4.0,16.0,13.0,14.0356688476182,{}
360,360,3.0,28.16025568065745,4.0,6.082762530298219,7.071067811865476,8.0,6.082762530298219,19.1049731745428,13.038404810405298,11.5,9.0,12.0,4.5,8.5,1.5,0.5,3.1622776601683795,4.0,3.5,16.0,12.0,14.142135623730953,{}
361,361,3.0,29.154759474226505,4.0,7.071067811865476,7.071067811865476,8.0,6.082762530298219,20.09975124224178,13.038404810405298,11.5,9.0,12.0,4.5,9.5,1.5,0.5,4.123105625617661,4.123105625617661,4.0,16.0,13.0,14.0356688476182,{}
362,362,3.0,29.154759474226505,4.0,7.071067811865476,6.082762530298219,8.06225774829855,6.082762530298219,20.09975124224178,13.038404810405298,11.5,10.0,13.0,5.5,8.5,1.5,1.5,3.1622776601683795,4.0,3.5,16.0,12.0,14.0356688476182,{}
363,363,3.0,29.068883707497267,4.0,6.082762530298219,7.0,7.0,6.082762530298219,19.1049731745428,13.038404810405298,11.5,10.0,12.0,5.0,8.0,1.0,1.0,3.1622776601683795,4.0,4.0,16.0,12.0,13.038404810405298,{}
364,364,3.0,29.154759474226505,4.0,6.082762530298219,8.06225774829855,8.06225774829855,6.082762530298219,19.1049731745428,13.038404810405298,11.5,9.0,12.0,4.5,8.5,1.5,0.5,4.123105625617661,4.0,4.0,16.0,12.0,14.0356688476182,{}
365,365,3.1622776601683795,29.154759474226505,4.0,6.0,7.071067811865476,8.0,6.082762530298219,19.1049731745428,13.152946437965904,11.5,9.0,12.0,4.5,8.5,1.5,0.5,4.123105625617661,4.0,4.0,16.0,12.0,13.038404810405298,{}
366,366,3.1622776601683795,29.154759474226505,4.0,6.0,8.06225774829855,8.06225774829855,6.082762530298219,19.1049731745428,13.152946437965904,11.5,9.0,12.0,4.5,8.5,1.5,0.5,3.1622776601683795,4.0,4.0,16.0,13.0,13.152946437965904,{}
367,367,4.0,28.0713376952364,4.0,7.071067811865476,7.0,8.0,6.082762530298219,21.095023109728988,14.0356688476182,12.0,11.0,13.0,6.0,9.0,1.0,2.0,4.123105625617661,4.0,3.5,17.0,14.0,14.0356688476182,{}
368,368,4.0,28.16025568065745,4.0,6.082762530298219,7.071067811865476,8.06225774829855,6.082762530298219,20.09975124224178,14.0356688476182,12.0,10.0,13.0,5.5,8.5,1.5,1.5,4.123105625617661,4.0,4.0,16.0,13.0,14.0,{}
369,369,4.0,28.16025568065745,4.0,6.082762530298219,7.0,7.071067811865476,6.082762530298219,20.09975124224178,14.0356688476182,12.0,10.0,13.0,5.5,8.5,1.5,1.5,4.123105625617661,3.1622776601683795,3.5,17.0,13.0,14.0356688476182,{}
370,370,1.0,27.16615541441225,5.0,6.0,7.0,7.071067811865476,6.082762530298219,18.027756377319943,12.041594578792296,11.5,10.0,13.0,5.5,6.5,0.5,1.5,4.123105625617661,4.0,3.5,16.0,12.0,14.0356688476182,{}
371,371,0.0,27.073972741361768,4.0,6.082762530298219,7.0,7.0,6.0,16.0312195418814,10.0,10.0,10.0,12.0,5.0,5.0,1.0,1.0,4.123105625617661,4.0,4.0,16.0,13.0,13.152946437965904,{}
372,372,1.0,27.018512172212592,4.123105625617661,6.0,7.0,8.0,6.0,17.029386365926403,11.04536101718726,10.5,11.0,12.0,5.5,5.5,1.5,1.5,3.0,4.0,4.0,16.0,13.0,13.038404810405298,{}
373,373,1.0,28.0713376952364,4.0,6.0,7.0,6.0,6.082762530298219,17.029386365926403,11.04536101718726,10.5,10.0,12.0,5.0,6.0,1.0,1.0,4.123105625617661,4.0,3.5,15.0,12.0,13.0,{}
374,374,2.0,28.0178514522438,5.0990195135927845,6.0,7.0,7.0,6.0,19.026297590440446,13.038404810405298,12.0,11.0,12.0,5.5,7.5,0.5,1.5,4.0,4.0,4.0,16.0,13.0,14.0356688476182,{}
375,375,3.0,28.0713376952364,5.0990195135927845,7.071067811865476,7.071067811865476,8.0,6.0,21.095023109728988,14.0356688476182,12.5,11.0,13.0,6.0,9.0,1.0,1.0,4.123105625617661,4.0,4.0,16.0,13.0,13.038404810405298,{}
376,376,4.0,27.073972741361768,4.0,7.071067811865476,6.082762530298219,8.06225774829855,6.082762530298219,21.095023109728988,14.0356688476182,12.0,11.0,13.0,6.0,9.0,1.0,1.0,3.1622776601683795,4.0,4.0,15.0,12.0,13.038404810405298,{}
377,377,4.0,27.16615541441225,4.0,7.071067811865476,7.0,8.06225774829855,5.0990195135927845,20.09975124224178,13.038404810405298,11.0,10.0,13.0,6.5,8.5,0.5,2.5,3.1622776601683795,4.0,3.5,16.0,13.0,13.038404810405298,{}
378,378,3.0,27.16615541441225,4.0,7.071067811865476,7.0,8.0,6.082762530298219,20.09975124224178,13.038404810405298,11.5,10.0,13.0,5.5,8.5,0.5,1.5,4.0,4.0,4.0,16.0,12.0,13.038404810405298,{}
379,379,4.123105625617661,27.073972741361768,4.0,6.0,7.0,8.0,6.0,20.024984394500787,14.0356688476182,12.0,11.0,13.0,6.0,8.0,1.0,2.0,3.1622776601683795,4.0,4.0,16.0,13.0,13.038404810405298,{}
380,380,3.1622776601683795,27.073972741361768,4.0,7.0,7.0,8.06225774829855,6.0,20.024984394500787,13.038404810405298,11.5,11.0,13.0,6.0,8.0,1.0,2.0,4.123105625617661,4.0,4.0,15.0,12.0,13.038404810405298,{}
381,381,2.0,26.019223662515376,3.0,7.0,6.0,7.071067811865476,7.071067811865476,19.026297590440446,12.041594578792296,11.0,11.0,12.0,4.5,7.5,0.5,1.5,4.0,4.0,4.0,15.0,12.0,13.038404810405298,{}
382,382,2.0,25.079872407968907,4.0,7.071067811865476,6.082762530298219,7.071067811865476,6.0,19.026297590440446,12.0,11.0,11.0,13.0,6.0,7.0,0.0,2.0,4.123105625617661,4.0,4.5,16.0,12.0,13.038404810405298,{}
383,383,3.0,25.079872407968907,4.123105625617661,7.0,7.0,8.06225774829855,6.0,20.024984394500787,13.038404810405298,11.5,11.0,13.0,6.0,8.0,0.0,2.0,4.123105625617661,5.0,4.5,16.0,13.0,14.0356688476182,{}
384,384,4.0,26.0768096208106,4.0,7.071067811865476,7.071067811865476,7.0,6.082762530298219,21.095023109728988,14.0356688476182,12.0,11.0,13.0,6.0,9.0,1.0,2.0,4.123105625617661,4.0,4.0,16.0,13.0,14.0356688476182,{}
385,385,5.0,25.179356624028344,4.0,8.06225774829855,7.071067811865476,7.0,6.082762530298219,23.08679276123039,15.033296378372908,12.5,11.0,14.0,6.5,10.5,1.5,2.5,4.123105625617661,4.0,4.5,16.0,13.0,13.152946437965904,{}
386,386,4.0,25.179356624028344,4.0,9.055385138137416,6.082762530298219,8.0,6.082762530298219,23.08679276123039,14.0356688476182,12.0,11.0,14.0,6.5,10.5,1.5,2.5,4.123105625617661,4.0,4.0,15.0,13.0,13.038404810405298,{}
387,387,5.0,25.079872407968907,4.123105625617661,7.0,7.071067811865476,7.071067811865476,5.0,21.02379604162864,14.0356688476182,11.5,10.0,12.0,6.0,10.0,2.0,2.0,3.1622776601683795,4.0,4.0,15.0,12.0,14.0356688476182,{}
388,388,5.0,25.079872407968907,3.0,7.071067811865476,7.0,8.06225774829855,6.082762530298219,21.095023109728988,14.0356688476182,11.5,11.0,13.0,6.0,9.0,1.0,3.0,4.123105625617661,4.0,3.5,15.0,12.0,13.038404810405298,{}
389,389,5.0,25.079872407968907,3.0,7.071067811865476,8.0,8.0,5.0990195135927845,20.09975124224178,13.038404810405298,10.5,10.0,12.0,6.0,9.0,1.0,3.0,4.123105625617661,4.0,4.0,15.0,12.0,13.038404810405298,{}
390,390,5.0,25.079872407968907,3.0,7.071067811865476,7.0,7.071067811865476,5.0990195135927845,20.09975124224178,13.038404810405298,10.5,10.0,12.0,6.0,9.0,1.0,3.0,5.0990195135927845,5.0,4.5,15.0,12.0,14.142135623730953,{}
391,391,5.0,25.079872407968907,4.0,7.071067811865476,6.0,7.071067811865476,5.0990195135927845,21.095023109728988,14.0356688476182,11.5,11.0,13.0,7.0,9.0,1.0,3.0,3.1622776601683795,4.0,3.5,15.0,12.0,13.038404810405298,{}
392,392,5.0,25.079872407968907,3.0,7.071067811865476,7.0,7.071067811865476,6.082762530298219,21.095023109728988,14.0356688476182,11.5,10.0,12.0,5.0,10.0,2.0,2.0,4.123105625617661,4.0,4.0,16.0,13.0,13.038404810405298,{}
393,393,5.0,25.079872407968907,4.123105625617661,7.071067811865476,7.071067811865476,7.071067811865476,5.0,21.095023109728988,14.0356688476182,11.5,10.0,12.0,6.0,10.0,2.0,2.0,4.123105625617661,4.0,4.0,15.0,12.0,14.142135623730953,{}
394,394,4.0,27.073972741361768,4.0,8.06225774829855,7.071067811865476,8.0,5.0990195135927845,21.095023109728988,13.038404810405298,11.0,10.0,12.0,6.0,10.0,2.0,2.0,4.123105625617661,4.123105625617661,4.0,16.0,13.0,13.038404810405298,{}
395,395,4.0,27.073972741361768,4.123105625617661,7.0,7.071067811865476,8.06225774829855,5.0,20.024984394500787,13.038404810405298,11.0,10.0,12.0,6.0,9.0,1.0,2.0,4.123105625617661,4.123105625617661,4.0,16.0,13.0,13.038404810405298,{}
396,396,4.0,27.073972741361768,4.0,8.06225774829855,7.071067811865476,7.0,5.0990195135927845,21.095023109728988,13.038404810405298,11.0,10.0,12.0,6.0,10.0,2.0,2.0,4.123105625617661,5.0990195135927845,4.5,16.0,13.0,14.142135623730953,{}
397,397,5.0990195135927845,28.0713376952364,4.0,7.0,7.071067811865476,8.06225774829855,5.0,21.02379604162864,14.0356688476182,11.5,10.0,12.0,6.0,10.0,2.0,2.0,4.123105625617661,4.123105625617661,4.0,16.0,13.0,13.152946437965904,{}
398,398,7.0,27.073972741361768,3.0,7.071067811865476,8.0,8.0,6.082762530298219,23.08679276123039,16.0312195418814,12.5,11.0,13.0,6.0,11.0,3.0,3.0,4.123105625617661,5.0,4.5,15.0,12.0,14.0356688476182,{}
399,399,7.071067811865476,28.0713376952364,4.0,7.0,7.0,8.06225774829855,5.0990195135927845,23.08679276123039,16.1245154965971,12.5,11.0,13.0,7.0,11.0,3.0,3.0,4.0,4.0,4.0,16.0,13.0,15.132745950421556,{}
400,400,8.0,28.0713376952364,4.123105625617661,7.071067811865476,7.0,9.055385138137416,5.0,24.08318915758459,17.029386365926403,13.0,11.0,13.0,7.0,12.0,4.0,3.0,4.123105625617661,4.0,4.5,15.0,12.0,15.033296378372908,{}
401,401,7.071067811865476,27.16615541441225,4.0,7.071067811865476,7.071067811865476,9.055385138137416,6.0,24.08318915758459,17.029386365926403,13.5,11.0,14.0,6.5,11.5,3.5,2.5,3.1622776601683795,4.0,4.0,15.0,12.0,14.142135623730953,{}
402,402,7.0,27.16615541441225,4.123105625617661,7.071067811865476,7.071067811865476,9.055385138137416,6.0,24.08318915758459,17.029386365926403,13.5,11.0,14.0,6.5,11.5,3.5,2.5,4.0,4.0,4.5,16.0,12.0,14.0356688476182,{}
403,403,7.071067811865476,27.073972741361768,4.0,6.082762530298219,7.071067811865476,7.071067811865476,6.0,23.08679276123039,17.029386365926403,13.5,12.0,14.0,7.0,10.0,3.0,3.0,4.123105625617661,4.0,4.0,16.0,12.0,13.038404810405298,{}
404,404,5.0,27.16615541441225,4.0,6.082762530298219,6.0,7.071067811865476,6.082762530298219,21.095023109728988,15.033296378372908,12.5,11.0,14.0,6.5,8.5,1.5,2.5,4.0,5.0,4.5,16.0,12.0,13.038404810405298,{}
405,405,1.0,27.073972741361768,4.0,6.082762530298219,7.0,7.0,7.071067811865476,18.110770276274835,12.041594578792296,11.5,11.0,13.0,5.0,6.0,0.0,1.0,4.0,5.0,5.0,16.0,12.0,13.038404810405298,{}
406,406,1.4142135623730951,27.073972741361768,4.0,6.0,6.0,6.082762530298219,6.082762530298219,17.11724276862369,11.180339887498947,10.5,10.0,12.0,5.0,6.0,1.0,1.0,4.0,4.0,4.0,16.0,11.0,13.152946437965904,{}
407,407,1.0,27.073972741361768,3.0,5.0990195135927845,6.0,7.0,7.071067811865476,16.1245154965971,11.04536101718726,10.5,10.0,12.0,4.0,5.0,1.0,1.0,4.123105625617661,5.0,4.5,16.0,12.0,13.038404810405298,{}
408,408,1.4142135623730951,27.073972741361768,4.0,5.0,6.0,6.0,6.082762530298219,16.1245154965971,11.180339887498947,10.5,10.0,12.0,5.0,5.0,1.0,1.0,4.123105625617661,4.0,4.0,15.0,11.0,13.038404810405298,{}
409,409,1.0,28.0713376952364,4.123105625617661,6.0,7.0,7.071067811865476,6.082762530298219,17.11724276862369,11.180339887498947,10.5,10.0,12.0,5.0,6.0,1.0,1.0,4.123105625617661,5.0,4.5,15.0,11.0,13.152946437965904,{}
410,410,2.0,27.16615541441225,4.0,6.082762530298219,6.082762530298219,7.071067811865476,7.280109889280518,19.235384061671343,13.152946437965904,12.0,10.0,13.0,4.5,7.5,0.5,0.5,4.123105625617661,5.0,4.5,15.0,11.0,13.152946437965904,{}
411,411,3.0,26.1725046566048,5.0,7.071067811865476,8.06225774829855,8.06225774829855,6.082762530298219,21.095023109728988,14.0356688476182,12.5,10.0,13.0,5.5,9.5,1.5,0.5,4.123105625617661,5.0,4.5,15.0,11.0,14.142135623730953,{}
412,412,3.0,26.30589287593181,4.0,8.06225774829855,6.082762530298219,8.06225774829855,6.082762530298219,21.095023109728988,13.038404810405298,11.5,9.0,13.0,5.0,10.0,1.0,1.0,4.123105625617661,4.0,4.0,16.0,12.0,14.142135623730953,{}
413,413,3.0,27.16615541441225,4.0,8.06225774829855,7.071067811865476,8.06225774829855,5.385164807134504,20.223748416156685,12.16552506059644,10.5,9.0,12.0,5.5,9.5,1.5,1.5,4.123105625617661,5.0,4.5,15.0,11.0,12.16552506059644,{}
414,414,4.123105625617661,27.16615541441225,4.0,7.0,7.071067811865476,7.071067811865476,5.0990195135927845,20.09975124224178,13.152946437965904,11.0,9.0,12.0,5.5,9.5,1.5,1.5,4.123105625617661,4.0,4.0,15.0,11.0,14.0356688476182,{}
415,415,3.1622776601683795,27.16615541441225,4.0,7.0,6.082762530298219,8.06225774829855,6.082762530298219,20.09975124224178,13.152946437965904,11.5,9.0,12.0,4.5,9.5,1.5,0.5,4.123105625617661,4.0,4.0,16.0,12.0,13.152946437965904,{}
416,416,4.123105625617661,27.16615541441225,3.0,7.0,7.071067811865476,8.06225774829855,6.082762530298219,20.09975124224178,13.152946437965904,11.0,9.0,12.0,4.5,9.5,1.5,0.5,4.123105625617661,4.0,4.0,15.0,11.0,14.142135623730953,{}
417,417,3.1622776601683795,27.29468812791236,4.0,7.0,8.06225774829855,8.06225774829855,6.082762530298219,20.09975124224178,13.152946437965904,11.5,9.0,13.0,5.0,9.0,1.0,1.0,4.123105625617661,4.0,4.5,16.0,11.0,13.152946437965904,{}
418,418,2.23606797749979,27.29468812791236,4.0,8.0,8.06225774829855,8.06225774829855,6.082762530298219,20.09975124224178,12.16552506059644,11.0,9.0,13.0,5.0,9.0,1.0,1.0,4.123105625617661,4.0,4.0,15.0,11.0,14.142135623730953,{}
419,419,4.0,28.284271247461906,3.0,7.071067811865476,8.06225774829855,8.06225774829855,6.324555320336759,20.223748416156685,13.152946437965904,11.0,9.0,13.0,5.0,9.0,1.0,1.0,4.123105625617661,4.0,3.5,15.0,11.0,14.142135623730953,{}
420,420,3.0,27.29468812791236,5.0,7.071067811865476,7.071067811865476,8.06225774829855,5.385164807134504,20.223748416156685,13.152946437965904,11.5,9.0,13.0,6.0,9.0,1.0,1.0,4.123105625617661,4.0,4.5,15.0,11.0,14.142135623730953,{}
421,421,4.123105625617661,27.16615541441225,4.0,7.071067811865476,7.071067811865476,8.0,5.0990195135927845,20.223748416156685,13.152946437965904,11.0,9.0,12.0,5.5,9.5,1.5,1.5,5.0990195135927845,4.0,4.0,16.0,12.0,14.142135623730953,{}
422,422,3.1622776601683795,28.284271247461906,4.0,8.06225774829855,7.071067811865476,8.06225774829855,6.082762530298219,21.213203435596427,13.152946437965904,11.5,9.0,13.0,5.0,10.0,1.0,1.0,4.123105625617661,4.123105625617661,4.0,16.0,12.0,13.038404810405298,{}
423,423,2.0,27.16615541441225,4.0,7.071067811865476,7.071067811865476,8.06225774829855,6.082762530298219,19.1049731745428,12.041594578792296,11.0,9.0,12.0,4.5,8.5,1.5,0.5,4.123105625617661,4.0,4.0,15.0,11.0,14.0356688476182,{}
424,424,0.0,28.16025568065745,4.123105625617661,6.0,7.0,7.071067811865476,6.082762530298219,16.1245154965971,10.198039027185567,10.0,9.0,12.0,4.5,5.5,1.5,0.5,3.0,4.0,4.0,15.0,11.0,14.0356688476182,{}
425,425,1.0,28.16025568065745,4.0,6.0,7.071067811865476,7.071067811865476,6.082762530298219,16.1245154965971,10.198039027185567,10.0,9.0,12.0,4.5,5.5,1.5,0.5,3.1622776601683795,4.0,4.0,15.0,11.0,14.0356688476182,{}
426,426,0.0,28.16025568065745,4.0,6.082762530298219,8.06225774829855,8.06225774829855,6.082762530298219,16.1245154965971,10.04987562112089,10.0,9.0,12.0,4.5,5.5,1.5,0.5,3.1622776601683795,3.0,3.5,15.0,11.0,14.0356688476182,{}
427,427,0.0,28.16025568065745,3.0,6.082762530298219,8.06225774829855,8.06225774829855,7.071067811865476,16.1245154965971,10.04987562112089,10.0,9.0,12.0,3.5,5.5,1.5,0.5,3.1622776601683795,4.0,4.0,15.0,11.0,15.132745950421556,{}
428,428,2.23606797749979,28.16025568065745,4.0,7.0,7.0,8.06225774829855,6.082762530298219,19.1049731745428,12.16552506059644,11.0,9.0,12.0,4.5,8.5,1.5,0.5,3.1622776601683795,4.0,3.5,15.0,11.0,13.038404810405298,{}
429,429,3.1622776601683795,28.16025568065745,4.0,7.0,7.0,8.0,6.082762530298219,20.09975124224178,13.152946437965904,11.5,9.0,12.0,4.5,9.5,1.5,0.5,3.0,4.0,3.5,15.0,11.0,14.0356688476182,{}
430,430,2.23606797749979,28.16025568065745,4.0,7.0,8.06225774829855,8.06225774829855,6.082762530298219,19.1049731745428,12.16552506059644,11.0,9.0,12.0,4.5,8.5,1.5,0.5,3.1622776601683795,4.0,4.0,15.0,11.0,14.142135623730953,{}
431,431,2.23606797749979,28.16025568065745,4.0,7.0,8.06225774829855,8.06225774829855,6.082762530298219,19.1049731745428,12.16552506059644,11.0,9.0,12.0,4.5,8.5,0.5,0.5,3.0,4.0,4.0,15.0,11.0,14.0356688476182,{}
432,432,2.23606797749979,28.16025568065745,4.0,7.0,8.06225774829855,8.06225774829855,6.082762530298219,19.1049731745428,12.16552506059644,11.0,9.0,12.0,4.5,8.5,1.5,0.5,4.0,4.0,3.5,15.0,11.0,14.142135623730953,{}
433,433,3.1622776601683795,28.16025568065745,3.0,7.0,8.0,8.06225774829855,6.082762530298219,19.1049731745428,12.16552506059644,10.5,9.0,12.0,4.5,8.5,0.5,1.5,4.123105625617661,4.0,4.0,15.0,11.0,14.0356688476182,{}
434,434,2.23606797749979,28.16025568065745,4.0,7.0,8.06225774829855,8.06225774829855,6.082762530298219,19.1049731745428,12.16552506059644,11.0,9.0,12.0,4.5,8.5,1.5,0.5,4.123105625617661,4.0,4.0,15.0,11.0,15.132745950421556,{}
435,435,3.1622776601683795,28.16025568065745,4.0,6.0,7.071067811865476,8.0,5.0990195135927845,18.110770276274835,12.16552506059644,10.5,8.0,11.0,4.5,8.5,1.5,0.5,4.123105625617661,4.0,4.0,16.0,12.0,14.142135623730953,{}
436,436,2.23606797749979,28.16025568065745,4.0,7.0,7.071067811865476,8.06225774829855,5.0990195135927845,18.110770276274835,11.180339887498947,10.0,8.0,11.0,4.5,8.5,1.5,0.5,4.123105625617661,4.0,4.0,16.0,12.0,14.142135623730953,{}
437,437,1.4142135623730951,28.16025568065745,4.0,7.0,7.071067811865476,8.06225774829855,6.082762530298219,18.110770276274835,11.180339887498947,10.5,8.0,11.0,3.5,8.5,1.5,0.5,4.123105625617661,4.0,4.0,15.0,11.0,14.142135623730953,{}
438,438,0.0,27.073972741361768,4.0,6.082762530298219,6.082762530298219,7.071067811865476,6.082762530298219,16.1245154965971,10.04987562112089,10.0,9.0,11.0,4.0,6.0,0.0,0.0,4.123105625617661,4.0,4.0,15.0,12.0,15.132745950421556,{}
439,439,0.0,27.073972741361768,4.0,6.082762530298219,7.071067811865476,7.071067811865476,6.082762530298219,16.1245154965971,10.04987562112089,10.0,9.0,11.0,4.0,6.0,0.0,0.0,4.123105625617661,4.0,4.0,15.0,11.0,14.142135623730953,{}
440,440,1.0,27.16615541441225,3.0,6.082762530298219,6.0,7.071067811865476,7.071067811865476,17.11724276862369,11.04536101718726,10.5,9.0,12.0,3.5,6.5,0.5,0.5,4.123105625617661,4.0,4.5,15.0,11.0,13.038404810405298,{}
441,441,1.0,26.1725046566048,4.0,6.082762530298219,6.082762530298219,8.0,6.082762530298219,17.11724276862369,11.04536101718726,10.5,8.0,11.0,3.5,7.5,1.5,0.5,3.1622776601683795,4.0,4.0,15.0,11.0,14.0356688476182,{}
442,442,3.0,27.073972741361768,3.1622776601683795,7.071067811865476,7.0,7.071067811865476,7.071067811865476,20.223748416156685,13.152946437965904,11.5,10.0,12.0,4.0,9.0,1.0,1.0,4.0,5.0,4.5,15.0,11.0,13.152946437965904,{}
443,443,2.0,27.16615541441225,4.0,7.071067811865476,7.071067811865476,8.0,7.071067811865476,20.09975124224178,13.038404810405298,12.0,10.0,13.0,4.5,8.5,0.5,0.5,3.1622776601683795,4.0,4.0,14.0,11.0,15.033296378372908,{}
444,444,3.1622776601683795,27.16615541441225,4.0,8.0,7.071067811865476,8.0,6.082762530298219,21.095023109728988,13.152946437965904,11.5,10.0,13.0,5.5,9.5,1.5,0.5,4.123105625617661,5.0,4.5,15.0,12.0,14.0356688476182,{}
445,445,2.23606797749979,26.0768096208106,4.0,8.0,7.071067811865476,8.0,6.082762530298219,20.09975124224178,12.16552506059644,11.0,10.0,12.0,5.0,9.0,1.0,1.0,4.123105625617661,4.0,4.0,15.0,12.0,13.038404810405298,{}
446,446,3.0,26.1725046566048,4.123105625617661,7.0,7.071067811865476,7.0,6.082762530298219,20.09975124224178,13.152946437965904,11.5,10.0,13.0,5.5,8.5,1.5,1.5,2.0,2.0,2.0,15.0,11.0,13.152946437965904,{}
447,447,4.0,26.1725046566048,4.0,7.071067811865476,7.071067811865476,7.0,6.082762530298219,21.095023109728988,14.0356688476182,12.0,10.0,13.0,5.5,9.5,1.5,1.5,2.23606797749979,2.0,2.0,15.0,12.0,12.041594578792296,{}
448,448,4.0,26.1725046566048,4.123105625617661,6.082762530298219,7.071067811865476,7.0,6.082762530298219,20.223748416156685,14.142135623730953,12.0,10.0,13.0,5.5,8.5,1.5,1.5,2.0,2.0,2.0,15.0,11.0,13.152946437965904,{}
449,449,3.1622776601683795,26.1725046566048,4.0,7.0,7.071067811865476,8.06225774829855,6.082762530298219,20.09975124224178,13.152946437965904,11.5,9.0,12.0,4.5,9.5,1.5,0.5,2.23606797749979,2.0,2.0,16.0,12.0,14.0356688476182,{}
450,450,0.0,26.1725046566048,4.0,7.071067811865476,7.071067811865476,7.071067811865476,7.280109889280518,18.24828759089466,11.180339887498947,11.0,9.0,12.0,3.5,7.5,0.5,0.5,1.4142135623730951,2.0,2.0,16.0,12.0,14.142135623730953,{}
451,451,0.0,26.1725046566048,4.0,6.0,7.071067811865476,7.0,6.082762530298219,16.0312195418814,10.04987562112089,10.0,9.0,12.0,4.5,5.5,0.5,0.5,2.23606797749979,2.0,2.0,15.0,12.0,14.142135623730953,{}
452,452,1.0,26.1725046566048,3.0,6.082762530298219,6.0,7.071067811865476,7.071067811865476,17.11724276862369,11.04536101718726,10.5,9.0,12.0,3.5,6.5,0.5,0.5,2.23606797749979,2.0,2.0,15.0,12.0,14.142135623730953,{}
453,453,1.4142135623730951,26.0768096208106,4.0,6.0,7.071067811865476,8.0,6.082762530298219,17.11724276862369,11.180339887498947,10.5,9.0,11.0,4.0,7.0,0.0,0.0,2.23606797749979,2.0,2.0,15.0,12.0,14.0356688476182,{}
454,454,2.0,27.073972741361768,4.0,7.071067811865476,7.071067811865476,8.0,7.071067811865476,20.09975124224178,13.038404810405298,12.0,10.0,12.0,4.0,9.0,2.0,0.0,1.4142135623730951,2.0,2.0,16.0,12.0,14.142135623730953,{}
455,455,2.23606797749979,27.073972741361768,5.0,7.0,7.071067811865476,8.06225774829855,6.082762530298219,20.09975124224178,13.152946437965904,12.0,10.0,12.0,5.0,9.0,1.0,0.0,2.23606797749979,2.0,2.0,15.0,12.0,14.142135623730953,{}
456,456,2.23606797749979,27.073972741361768,4.0,7.0,7.071067811865476,8.0,6.0,19.026297590440446,12.041594578792296,11.0,9.0,11.0,4.0,9.0,2.0,0.0,2.23606797749979,2.0,2.0,15.0,12.0,14.142135623730953,{}
457,457,2.0,28.0713376952364,4.0,6.082762530298219,8.06225774829855,8.0,6.0,18.027756377319943,12.0,11.0,9.0,11.0,4.0,8.0,1.0,0.0,2.0,2.0,2.0,15.0,12.0,14.142135623730953,{}
458,458,2.0,28.0713376952364,4.0,6.082762530298219,7.071067811865476,7.0,6.082762530298219,18.110770276274835,12.041594578792296,11.0,9.0,11.0,4.0,8.0,1.0,0.0,2.23606797749979,2.0,2.0,15.0,12.0,14.0356688476182,{}
459,459,1.0,28.0178514522438,4.0,7.071067811865476,8.06225774829855,7.071067811865476,6.082762530298219,18.110770276274835,11.04536101718726,10.5,9.0,10.0,3.5,8.5,1.5,0.5,2.23606797749979,3.0,2.5,15.0,12.0,13.152946437965904,{}
460,460,1.0,29.017236257093817,4.0,7.071067811865476,8.06225774829855,8.0,6.082762530298219,18.110770276274835,11.04536101718726,10.5,9.0,10.0,3.5,8.5,1.5,0.5,2.23606797749979,2.0,1.5,15.0,13.0,14.0356688476182,{}
461,461,2.0,28.0713376952364,4.0,6.082762530298219,7.0,7.071067811865476,6.082762530298219,18.110770276274835,12.041594578792296,11.0,8.0,10.0,3.0,9.0,2.0,0.0,1.4142135623730951,2.0,2.0,16.0,13.0,14.0356688476182,{}
462,462,2.0,28.0713376952364,3.0,7.071067811865476,8.0,8.0,6.082762530298219,18.110770276274835,11.04536101718726,10.0,8.0,10.0,3.0,9.0,1.0,0.0,1.0,2.0,1.5,16.0,13.0,14.0356688476182,{}
463,463,2.0,29.068883707497267,3.0,6.082762530298219,7.0,7.0,6.082762530298219,17.11724276862369,11.04536101718726,10.0,8.0,10.0,3.0,8.0,2.0,0.0,2.23606797749979,2.0,2.0,15.0,12.0,13.038404810405298,{}
464,464,0.0,28.0713376952364,4.0,6.0,7.0,8.0,6.082762530298219,16.0312195418814,10.04987562112089,10.0,8.0,10.0,3.0,7.0,1.0,0.0,2.0,2.0,2.0,15.0,12.0,13.038404810405298,{}
465,465,1.0,28.0178514522438,3.0,5.0990195135927845,7.0,7.0,6.0,15.033296378372908,10.0,9.5,8.0,9.0,2.5,6.5,0.5,0.5,2.23606797749979,2.0,2.0,15.0,12.0,13.038404810405298,{}
466,466,0.0,28.0178514522438,3.0,6.082762530298219,7.071067811865476,7.0,7.0,16.0312195418814,10.0,10.0,9.0,10.0,2.5,6.5,0.5,0.5,2.23606797749979,2.0,2.0,15.0,12.0,14.0356688476182,{}
467,467,0.0,28.0713376952364,3.0,6.082762530298219,7.071067811865476,7.0,7.0,16.0312195418814,10.0,10.0,9.0,11.0,3.0,6.0,0.0,0.0,2.23606797749979,2.0,2.0,15.0,12.0,13.038404810405298,{}
468,468,0.0,28.0178514522438,3.0,6.082762530298219,6.082762530298219,7.0,7.0,16.0312195418814,10.0,10.0,9.0,10.0,2.5,6.5,0.5,0.5,2.23606797749979,2.23606797749979,2.0,15.0,12.0,13.038404810405298,{}
469,469,0.0,28.0178514522438,3.0,6.082762530298219,7.0,8.0,7.0,16.0312195418814,10.0,10.0,9.0,10.0,2.5,6.5,0.5,0.5,2.23606797749979,2.0,2.0,15.0,12.0,14.142135623730953,{}
470,470,0.0,28.0713376952364,4.0,6.082762530298219,7.0,7.0,6.0,16.0312195418814,10.0,10.0,9.0,11.0,4.0,6.0,0.0,0.0,2.23606797749979,2.0,2.0,15.0,12.0,13.152946437965904,{}
471,471,1.0,28.0178514522438,3.0,6.0,7.0,8.0,7.0,16.0312195418814,10.04987562112089,10.0,9.0,10.0,2.5,6.5,0.5,0.5,2.23606797749979,2.0,2.0,15.0,12.0,13.152946437965904,{}
472,472,0.0,28.0713376952364,3.0,6.082762530298219,7.0,7.0,7.0,16.0312195418814,10.0,10.0,9.0,11.0,3.0,6.0,0.0,0.0,2.23606797749979,2.23606797749979,2.0,15.0,12.0,13.152946437965904,{}
473,473,0.0,28.0713376952364,4.0,6.082762530298219,6.082762530298219,7.0,6.082762530298219,16.1245154965971,10.04987562112089,10.0,9.0,11.0,4.0,6.0,0.0,0.0,2.23606797749979,3.0,2.5,15.0,12.0,13.038404810405298,{}
474,474,0.0,28.0178514522438,4.0,6.082762530298219,6.082762530298219,7.0,6.082762530298219,16.1245154965971,10.04987562112089,10.0,9.0,10.0,3.5,6.5,0.5,0.5,2.23606797749979,2.0,2.0,15.0,11.0,12.041594578792296,{}
475,475,0.0,28.0178514522438,4.0,6.082762530298219,7.071067811865476,7.0,6.0,16.0312195418814,10.0,10.0,9.0,10.0,3.5,6.5,0.5,0.5,2.23606797749979,2.23606797749979,2.0,16.0,12.0,13.038404810405298,{}
476,476,0.0,29.068883707497267,4.0,6.082762530298219,7.071067811865476,7.0,6.082762530298219,16.1245154965971,10.04987562112089,10.0,9.0,11.0,4.0,6.0,0.0,0.0,2.23606797749979,2.0,2.0,15.0,12.0,13.038404810405298,{}
477,477,0.0,28.0713376952364,4.0,6.082762530298219,8.06225774829855,8.0,6.082762530298219,16.1245154965971,10.04987562112089,10.0,9.0,11.0,4.0,6.0,0.0,0.0,2.23606797749979,2.0,2.5,15.0,12.0,13.038404810405298,{}
478,478,1.0,29.068883707497267,4.0,6.082762530298219,8.06225774829855,8.0,6.082762530298219,17.11724276862369,11.04536101718726,10.5,9.0,11.0,4.0,7.0,0.0,0.0,2.23606797749979,2.0,2.0,15.0,12.0,13.038404810405298,{}
479,479,1.0,28.0713376952364,4.0,6.082762530298219,8.0,7.071067811865476,6.082762530298219,17.11724276862369,11.04536101718726,10.5,9.0,11.0,4.0,7.0,0.0,0.0,2.23606797749979,2.0,2.0,15.0,12.0,12.041594578792296,{}
480,480,2.0,27.073972741361768,4.0,6.082762530298219,7.071067811865476,7.0,7.071067811865476,19.1049731745428,13.038404810405298,12.0,10.0,12.0,4.0,8.0,1.0,0.0,2.23606797749979,2.23606797749979,2.0,16.0,13.0,13.038404810405298,{}
481,481,2.0,27.073972741361768,4.0,6.082762530298219,7.071067811865476,7.071067811865476,6.082762530298219,18.110770276274835,12.041594578792296,11.0,9.0,11.0,4.0,8.0,1.0,0.0,2.23606797749979,2.0,1.5,16.0,13.0,14.0356688476182,{}
482,482,2.0,27.073972741361768,4.123105625617661,6.0,7.071067811865476,8.0,6.0,18.027756377319943,12.041594578792296,11.0,9.0,11.0,4.0,8.0,2.0,0.0,2.23606797749979,2.0,2.0,16.0,13.0,14.0356688476182,{}
483,483,2.0,27.073972741361768,4.0,7.071067811865476,7.071067811865476,7.0,6.082762530298219,19.1049731745428,12.041594578792296,11.0,9.0,11.0,4.0,9.0,2.0,0.0,2.23606797749979,2.0,1.5,15.0,12.0,14.0356688476182,{}
484,484,3.1622776601683795,27.073972741361768,4.0,6.0,7.071067811865476,8.06225774829855,7.0,20.024984394500787,14.0356688476182,12.5,10.0,12.0,4.0,9.0,2.0,0.0,2.23606797749979,2.0,1.5,15.0,12.0,15.033296378372908,{}
485,485,4.123105625617661,27.073972741361768,4.0,6.0,7.0,8.0,5.0,19.026297590440446,13.038404810405298,11.0,9.0,11.0,5.0,9.0,2.0,1.0,2.0,2.0,2.0,15.0,12.0,14.0356688476182,{}
486,486,3.0,28.0713376952364,5.0,6.082762530298219,7.071067811865476,8.0,6.082762530298219,20.09975124224178,14.0356688476182,12.5,10.0,12.0,5.0,9.0,2.0,0.0,2.0,2.23606797749979,2.0,15.0,12.0,14.142135623730953,{}
487,487,4.0,27.073972741361768,4.123105625617661,6.0,7.0,8.0,6.082762530298219,20.09975124224178,14.142135623730953,12.0,10.0,12.0,5.0,9.0,2.0,1.0,2.0,2.0,2.0,15.0,12.0,14.0356688476182,{}
488,488,4.0,28.0713376952364,4.123105625617661,6.0,7.0,8.0,6.082762530298219,20.09975124224178,14.142135623730953,12.0,10.0,12.0,5.0,9.0,2.0,1.0,2.23606797749979,2.0,2.0,15.0,12.0,13.152946437965904,{}
489,489,3.1622776601683795,28.0713376952364,5.0,6.0,7.071067811865476,8.0,6.082762530298219,20.09975124224178,14.142135623730953,12.5,10.0,12.0,5.0,9.0,2.0,0.0,2.23606797749979,2.0,2.0,15.0,12.0,14.142135623730953,{}
490,490,4.0,28.0713376952364,4.123105625617661,6.0,7.0,8.0,6.0,20.024984394500787,14.0356688476182,12.0,10.0,12.0,5.0,9.0,2.0,1.0,2.0,2.0,2.0,15.0,12.0,14.0356688476182,{}
491,491,4.0,27.073972741361768,4.0,6.082762530298219,7.0,8.0,6.082762530298219,20.09975124224178,14.0356688476182,12.0,10.0,12.0,5.0,9.0,2.0,1.0,2.0,3.0,2.5,16.0,12.0,14.0356688476182,{}
492,492,4.123105625617661,27.073972741361768,4.0,6.0,7.0,8.0,6.082762530298219,20.09975124224178,14.142135623730953,12.0,10.0,12.0,5.0,9.0,2.0,1.0,2.23606797749979,2.0,2.0,16.0,12.0,14.0356688476182,{}
493,493,4.0,27.16615541441225,5.0,6.082762530298219,7.071067811865476,7.0,6.082762530298219,21.095023109728988,15.033296378372908,13.0,10.0,13.0,5.5,9.5,2.5,0.5,2.23606797749979,3.0,2.5,16.0,13.0,14.0356688476182,{}
494,494,4.0,28.0713376952364,5.0990195135927845,6.0,7.071067811865476,8.06225774829855,6.0,21.02379604162864,15.033296378372908,13.0,11.0,13.0,6.0,9.0,2.0,1.0,2.23606797749979,3.0,2.5,16.0,13.0,14.0356688476182,{}
495,495,4.123105625617661,28.0713376952364,5.0,6.0,7.071067811865476,8.0,6.082762530298219,21.095023109728988,15.132745950421556,13.0,11.0,13.0,6.0,9.0,2.0,1.0,2.0,3.0,2.5,15.0,12.0,14.0356688476182,{}
496,496,5.0,28.16025568065745,4.0,6.082762530298219,7.0,8.0,6.082762530298219,21.095023109728988,15.033296378372908,12.5,10.0,13.0,5.5,9.5,2.5,1.5,2.23606797749979,2.0,2.0,15.0,12.0,14.142135623730953,{}
497,497,5.0,28.16025568065745,4.0,6.082762530298219,7.071067811865476,8.06225774829855,6.082762530298219,21.095023109728988,15.033296378372908,12.5,10.0,13.0,5.5,9.5,2.5,1.5,2.0,2.0,2.0,16.0,12.0,14.142135623730953,{}
498,498,5.0,26.1725046566048,5.0,7.071067811865476,7.071067811865476,8.06225774829855,6.082762530298219,23.08679276123039,16.0312195418814,13.5,11.0,14.0,6.5,10.5,3.5,1.5,2.23606797749979,2.0,2.0,16.0,12.0,14.0356688476182,{}
499,499,7.0,26.1725046566048,4.0,6.082762530298219,7.071067811865476,8.0,6.082762530298219,23.08679276123039,17.029386365926403,13.5,11.0,14.0,6.5,10.5,3.5,1.5,2.23606797749979,3.0,2.5,16.0,13.0,14.142135623730953,{}
500,500,7.0,28.16025568065745,5.0,7.071067811865476,7.071067811865476,8.06225774829855,5.0990195135927845,24.08318915758459,17.029386365926403,13.5,11.0,14.0,7.5,11.5,3.5,2.5,2.0,2.0,2.0,16.0,12.0,14.0356688476182,{}
501,501,8.0,27.073972741361768,4.0,6.082762530298219,7.0,8.06225774829855,6.082762530298219,24.08318915758459,18.027756377319943,14.0,12.0,14.0,7.0,11.0,4.0,3.0,2.23606797749979,2.0,2.0,16.0,13.0,14.142135623730953,{}
502,502,6.0,27.073972741361768,4.0,7.071067811865476,8.0,8.06225774829855,6.082762530298219,23.08679276123039,16.0312195418814,13.0,11.0,13.0,6.0,11.0,4.0,2.0,2.23606797749979,3.0,2.5,16.0,12.0,14.142135623730953,{}
503,503,5.0,28.16025568065745,4.0,6.082762530298219,8.06225774829855,8.0,6.082762530298219,21.095023109728988,15.033296378372908,12.5,10.0,13.0,5.5,9.5,2.5,1.5,2.0,3.0,2.5,16.0,12.0,14.0356688476182,{}
504,504,4.123105625617661,28.0713376952364,4.0,7.0,7.071067811865476,8.06225774829855,6.082762530298219,21.095023109728988,14.142135623730953,12.0,10.0,12.0,5.0,10.0,3.0,1.0,2.23606797749979,3.0,2.5,16.0,12.0,14.142135623730953,{}
505,505,3.1622776601683795,29.154759474226505,4.0,7.0,7.071067811865476,8.06225774829855,6.082762530298219,20.09975124224178,13.152946437965904,11.5,9.0,12.0,4.5,9.5,2.5,0.5,2.0,2.0,2.0,16.0,12.0,14.0356688476182,{}
506,506,3.0,29.154759474226505,4.123105625617661,6.0,7.0,9.0,6.0,19.026297590440446,13.038404810405298,11.5,9.0,12.0,4.5,8.5,1.5,1.5,2.0,3.0,2.5,16.0,12.0,14.0356688476182,{}
507,507,3.0,29.154759474226505,4.0,7.071067811865476,8.06225774829855,8.06225774829855,5.0990195135927845,19.1049731745428,12.041594578792296,10.5,9.0,12.0,5.5,8.5,1.5,0.5,2.23606797749979,3.1622776601683795,2.5,16.0,12.0,14.0356688476182,{}
508,508,3.0,29.154759474226505,4.0,7.071067811865476,7.0,8.06225774829855,5.0990195135927845,19.1049731745428,12.041594578792296,10.5,9.0,12.0,5.5,8.5,1.5,1.5,2.23606797749979,2.23606797749979,2.0,16.0,12.0,14.0356688476182,{}
509,509,1.4142135623730951,28.16025568065745,5.0,6.0,7.0,8.0,6.082762530298219,18.110770276274835,12.16552506059644,11.5,9.0,12.0,4.5,7.5,0.5,0.5,2.23606797749979,3.1622776601683795,2.5,16.0,12.0,14.0356688476182,{}
510,510,0.0,27.29468812791236,4.123105625617661,6.0,7.071067811865476,7.071067811865476,6.082762530298219,16.1245154965971,10.198039027185567,10.0,8.0,12.0,4.0,6.0,0.0,0.0,2.23606797749979,3.0,2.5,18.0,13.0,13.152946437965904,{}
511,511,1.0,27.16615541441225,3.0,5.0990195135927845,6.0,8.06225774829855,7.071067811865476,16.1245154965971,11.04536101718726,10.5,9.0,12.0,3.5,5.5,0.5,0.5,2.0,3.0,3.0,17.0,12.0,13.038404810405298,{}
512,512,1.0,27.16615541441225,4.0,6.082762530298219,6.082762530298219,8.06225774829855,7.071067811865476,18.110770276274835,12.041594578792296,11.5,10.0,13.0,4.5,6.5,0.5,0.5,3.1622776601683795,2.0,2.5,18.0,13.0,15.132745950421556,{}
513,513,4.123105625617661,26.1725046566048,4.0,7.071067811865476,7.071067811865476,7.071067811865476,6.082762530298219,21.213203435596427,14.142135623730953,12.0,10.0,13.0,5.5,9.5,2.5,0.5,2.23606797749979,2.0,2.0,18.0,12.0,14.142135623730953,{}
514,514,6.0,26.30589287593181,4.123105625617661,7.071067811865476,7.071067811865476,8.06225774829855,7.071067811865476,24.186773244895647,17.11724276862369,14.0,12.0,16.0,7.0,10.0,3.0,3.0,2.23606797749979,2.0,2.5,18.0,12.0,14.142135623730953,{}
515,515,7.071067811865476,26.30589287593181,4.0,7.071067811865476,7.071067811865476,8.06225774829855,6.082762530298219,24.186773244895647,17.11724276862369,13.5,11.0,15.0,7.0,11.0,3.0,2.0,2.23606797749979,3.0,2.5,18.0,12.0,14.142135623730953,{}
516,516,5.0990195135927845,27.29468812791236,4.0,7.0,7.071067811865476,7.071067811865476,6.082762530298219,22.09072203437452,15.132745950421556,12.5,10.0,14.0,6.0,10.0,2.0,1.0,3.1622776601683795,3.0,3.0,17.0,12.0,14.142135623730953,{}
517,517,2.0,27.16615541441225,5.0,7.071067811865476,6.082762530298219,7.071067811865476,6.082762530298219,20.09975124224178,13.038404810405298,12.0,10.0,13.0,5.5,8.5,1.5,0.5,3.1622776601683795,4.0,3.5,18.0,13.0,14.142135623730953,{}
518,518,3.1622776601683795,27.29468812791236,4.0,6.0,7.0,8.06225774829855,5.0990195135927845,18.110770276274835,12.16552506059644,10.5,8.0,12.0,5.0,8.0,1.0,1.0,3.1622776601683795,4.0,3.5,17.0,12.0,14.142135623730953,{}
519,519,3.0,28.284271247461906,3.0,6.082762530298219,8.0,8.06225774829855,6.082762530298219,18.110770276274835,12.041594578792296,10.5,8.0,12.0,4.0,8.0,1.0,1.0,3.1622776601683795,3.1622776601683795,3.0,17.0,12.0,14.0356688476182,{}
520,520,3.0,29.154759474226505,4.123105625617661,6.082762530298219,7.071067811865476,9.055385138137416,6.082762530298219,19.235384061671343,13.152946437965904,11.5,9.0,12.0,4.5,8.5,1.5,0.5,2.23606797749979,2.0,2.0,17.0,13.0,14.142135623730953,{}
521,521,3.1622776601683795,28.284271247461906,4.0,6.0,7.071067811865476,8.06225774829855,6.082762530298219,19.1049731745428,13.152946437965904,11.5,8.0,12.0,4.0,9.0,2.0,0.0,1.4142135623730951,2.0,2.0,17.0,13.0,14.142135623730953,{}
522,522,3.1622776601683795,28.16025568065745,4.0,6.0,7.071067811865476,8.06225774829855,5.0990195135927845,18.110770276274835,12.16552506059644,10.5,8.0,11.0,4.5,8.5,1.5,0.5,2.23606797749979,2.0,2.0,17.0,13.0,13.038404810405298,{}
523,523,2.0,28.16025568065745,4.0,6.082762530298219,7.071067811865476,8.06225774829855,6.082762530298219,18.110770276274835,12.041594578792296,11.0,8.0,11.0,3.5,8.5,1.5,0.5,2.23606797749979,2.23606797749979,2.0,17.0,12.0,13.152946437965904,{}
524,524,2.0,29.154759474226505,4.123105625617661,6.082762530298219,7.071067811865476,8.0,6.082762530298219,18.24828759089466,12.16552506059644,11.0,8.0,11.0,3.5,8.5,2.5,0.5,2.0,2.0,2.0,17.0,13.0,13.152946437965904,{}
525,525,3.0,28.0713376952364,4.123105625617661,6.0,7.0,8.06225774829855,5.0990195135927845,18.110770276274835,12.16552506059644,10.5,8.0,10.0,4.0,9.0,2.0,0.0,2.23606797749979,2.0,2.0,16.0,13.0,14.0356688476182,{}
526,526,3.0,28.0713376952364,4.0,6.082762530298219,8.06225774829855,8.0,5.0990195135927845,18.110770276274835,12.041594578792296,10.5,8.0,10.0,4.0,9.0,2.0,0.0,2.23606797749979,1.0,1.5,17.0,13.0,14.0356688476182,{}
527,527,3.0,28.0713376952364,4.0,6.082762530298219,7.071067811865476,9.055385138137416,5.385164807134504,18.24828759089466,12.16552506059644,10.5,8.0,10.0,4.0,9.0,2.0,0.0,2.23606797749979,2.23606797749979,2.0,17.0,13.0,13.152946437965904,{}
528,528,3.1622776601683795,29.068883707497267,4.0,6.0,7.071067811865476,8.06225774829855,6.082762530298219,19.1049731745428,13.152946437965904,11.5,9.0,11.0,4.0,9.0,2.0,0.0,2.23606797749979,2.0,2.0,17.0,13.0,13.152946437965904,{}
529,529,3.1622776601683795,29.154759474226505,3.0,7.0,7.071067811865476,8.06225774829855,6.082762530298219,19.1049731745428,12.16552506059644,10.5,8.0,11.0,3.5,9.5,2.5,0.5,1.4142135623730951,2.0,2.0,17.0,13.0,14.0356688476182,{}
530,530,3.0,29.154759474226505,3.1622776601683795,7.0,7.071067811865476,8.06225774829855,6.082762530298219,19.1049731745428,12.16552506059644,10.5,8.0,11.0,3.5,9.5,1.5,0.5,1.4142135623730951,2.0,1.5,17.0,13.0,14.0356688476182,{}
531,531,3.1622776601683795,29.154759474226505,3.0,7.0,7.071067811865476,8.0,6.082762530298219,19.1049731745428,12.16552506059644,10.5,8.0,11.0,3.5,9.5,1.5,0.5,1.4142135623730951,2.0,1.5,17.0,13.0,14.142135623730953,{}
532,532,3.0,29.068883707497267,3.1622776601683795,7.0,7.071067811865476,8.0,6.082762530298219,19.1049731745428,12.16552506059644,10.5,8.0,10.0,3.0,10.0,2.0,0.0,2.0,2.23606797749979,2.0,16.0,12.0,14.142135623730953,{}
533,533,3.1622776601683795,29.154759474226505,3.0,7.0,7.0,8.06225774829855,6.082762530298219,19.1049731745428,12.16552506059644,10.5,8.0,11.0,3.5,9.5,2.5,0.5,1.0,2.0,2.0,16.0,12.0,14.0356688476182,{}
534,534,3.1622776601683795,29.154759474226505,3.0,7.0,7.0,8.0,6.082762530298219,19.1049731745428,12.16552506059644,10.5,8.0,11.0,3.5,9.5,2.5,0.5,1.4142135623730951,2.0,2.0,17.0,13.0,13.038404810405298,{}
535,535,3.0,29.068883707497267,4.123105625617661,6.0,7.0,8.06225774829855,6.082762530298219,19.1049731745428,13.152946437965904,11.5,9.0,11.0,4.0,9.0,2.0,1.0,1.4142135623730951,2.0,2.0,17.0,13.0,14.142135623730953,{}
536,536,3.0,29.068883707497267,4.123105625617661,6.0,7.0,8.06225774829855,6.082762530298219,19.1049731745428,13.152946437965904,11.5,9.0,11.0,4.0,9.0,2.0,1.0,1.4142135623730951,2.0,2.0,17.0,13.0,14.0356688476182,{}
537,537,3.1622776601683795,29.068883707497267,4.0,7.0,8.0,8.0,6.082762530298219,20.09975124224178,13.152946437965904,11.5,9.0,11.0,4.0,10.0,3.0,1.0,1.4142135623730951,2.0,1.5,17.0,13.0,14.142135623730953,{}
538,538,4.123105625617661,27.16615541441225,4.0,7.0,7.071067811865476,8.06225774829855,6.082762530298219,21.095023109728988,14.142135623730953,12.0,9.0,12.0,4.5,10.5,3.5,0.5,2.23606797749979,2.23606797749979,2.0,16.0,13.0,14.142135623730953,{}
539,539,5.0990195135927845,27.16615541441225,4.0,7.0,7.071067811865476,8.0,6.082762530298219,22.09072203437452,15.132745950421556,12.5,10.0,13.0,5.5,10.5,3.5,1.5,2.23606797749979,2.0,2.0,16.0,13.0,14.0356688476182,{}
540,540,6.0,28.16025568065745,4.0,7.071067811865476,8.06225774829855,8.06225774829855,6.082762530298219,23.08679276123039,16.0312195418814,13.0,10.0,13.0,5.5,11.5,3.5,1.5,2.23606797749979,2.0,2.0,16.0,13.0,14.142135623730953,{}
541,541,5.0990195135927845,28.0713376952364,4.0,7.0,8.0,8.06225774829855,6.082762530298219,22.09072203437452,15.132745950421556,12.5,10.0,12.0,5.0,11.0,3.0,1.0,2.0,2.23606797749979,2.0,16.0,13.0,13.152946437965904,{}
542,542,4.0,28.16025568065745,4.0,6.082762530298219,7.071067811865476,8.0,5.0990195135927845,19.1049731745428,13.038404810405298,11.0,8.0,11.0,4.5,9.5,2.5,0.5,2.23606797749979,2.23606797749979,1.5,16.0,13.0,14.142135623730953,{}
543,543,3.0,28.16025568065745,4.0,7.071067811865476,7.071067811865476,8.0,6.082762530298219,20.09975124224178,13.038404810405298,11.5,9.0,12.0,4.5,9.5,1.5,0.5,2.23606797749979,2.0,2.0,16.0,13.0,13.038404810405298,{}
544,544,1.0,27.073972741361768,4.0,7.071067811865476,7.0,7.0,7.071067811865476,19.1049731745428,12.041594578792296,11.5,9.0,11.0,3.0,9.0,1.0,0.0,2.23606797749979,2.0,2.0,16.0,13.0,14.142135623730953,{}
545,545,1.0,28.0713376952364,4.0,6.082762530298219,7.071067811865476,7.0,7.071067811865476,18.110770276274835,12.041594578792296,11.5,9.0,11.0,3.0,8.0,1.0,1.0,1.0,3.0,2.5,16.0,13.0,14.0356688476182,{}
546,546,1.0,27.073972741361768,3.0,6.082762530298219,6.0,7.0,7.071067811865476,17.11724276862369,11.04536101718726,10.5,9.0,11.0,3.0,7.0,1.0,0.0,1.4142135623730951,2.23606797749979,2.0,17.0,13.0,13.038404810405298,{}
547,547,1.0,27.073972741361768,4.0,6.0,7.071067811865476,7.0,6.082762530298219,17.029386365926403,11.04536101718726,10.5,9.0,11.0,4.0,7.0,1.0,0.0,2.23606797749979,3.0,2.5,17.0,14.0,14.0356688476182,{}
548,548,1.4142135623730951,26.019223662515376,4.0,7.0,7.0,7.0,6.082762530298219,18.110770276274835,11.180339887498947,10.5,9.0,10.0,3.5,8.5,1.5,0.5,2.0,2.0,2.0,16.0,12.0,14.0356688476182,{}
549,549,1.0,26.0768096208106,4.0,6.082762530298219,6.0,7.0,6.082762530298219,17.11724276862369,11.04536101718726,10.5,9.0,11.0,4.0,7.0,0.0,0.0,1.4142135623730951,2.0,2.0,16.0,12.0,13.038404810405298,{}
550,550,1.0,27.018512172212592,4.0,6.0,7.071067811865476,7.0,6.082762530298219,17.029386365926403,11.04536101718726,10.5,9.0,10.0,3.5,7.5,0.5,0.5,1.0,2.0,2.0,16.0,12.0,13.038404810405298,{}
551,551,1.4142135623730951,27.018512172212592,4.0,6.0,7.071067811865476,7.071067811865476,6.082762530298219,17.11724276862369,11.180339887498947,10.5,9.0,10.0,3.5,7.5,0.5,0.5,1.4142135623730951,3.0,2.5,17.0,14.0,13.038404810405298,{}
552,552,2.0,27.073972741361768,4.0,6.0,7.071067811865476,7.0,6.082762530298219,18.027756377319943,12.041594578792296,11.0,9.0,11.0,4.0,8.0,1.0,0.0,1.4142135623730951,1.0,1.5,17.0,13.0,13.038404810405298,{}
553,553,4.0,28.0178514522438,3.1622776601683795,6.0,7.0,8.0,6.082762530298219,19.1049731745428,13.152946437965904,11.0,9.0,10.0,3.5,9.5,2.5,0.5,2.0,1.0,1.0,16.0,13.0,15.033296378372908,{}
554,554,4.0,28.0713376952364,4.123105625617661,6.0,7.0,8.06225774829855,5.0,19.026297590440446,13.038404810405298,11.0,8.0,10.0,4.0,10.0,3.0,1.0,2.23606797749979,1.0,1.0,16.0,13.0,14.0356688476182,{}
555,555,6.0,27.073972741361768,3.0,6.082762530298219,7.0,7.0,5.0990195135927845,20.09975124224178,14.0356688476182,11.0,8.0,10.0,4.0,11.0,4.0,1.0,1.4142135623730951,2.0,2.0,16.0,13.0,13.038404810405298,{}
556,556,5.0,28.0713376952364,3.0,7.0,8.0,9.0,6.082762530298219,21.02379604162864,14.0356688476182,11.5,8.0,10.0,3.0,12.0,5.0,1.0,2.23606797749979,1.0,1.0,16.0,13.0,15.132745950421556,{}
557,557,7.0,27.073972741361768,2.0,6.082762530298219,8.0,9.055385138137416,6.082762530298219,21.095023109728988,15.033296378372908,11.5,9.0,11.0,4.0,11.0,4.0,2.0,2.0,2.0,2.0,16.0,13.0,14.0356688476182,{}
558,558,6.0,28.0713376952364,3.0,7.071067811865476,8.06225774829855,9.0,6.082762530298219,22.09072203437452,15.033296378372908,12.0,9.0,11.0,4.0,12.0,5.0,1.0,2.0,2.0,2.0,17.0,13.0,14.0356688476182,{}
559,559,7.0,29.068883707497267,3.0,6.082762530298219,8.06225774829855,9.0,5.0990195135927845,21.095023109728988,15.033296378372908,11.5,8.0,10.0,4.0,12.0,5.0,1.0,3.1622776601683795,3.0,3.0,16.0,13.0,14.0,{}
560,560,6.082762530298219,28.0713376952364,3.0,6.0,8.06225774829855,9.055385138137416,5.0990195135927845,20.09975124224178,14.142135623730953,11.0,8.0,10.0,4.0,11.0,5.0,1.0,3.0,3.0,3.0,16.0,13.0,15.033296378372908,{}
561,561,6.082762530298219,29.068883707497267,3.0,6.0,7.0,8.06225774829855,5.0990195135927845,20.09975124224178,14.142135623730953,11.0,8.0,10.0,4.0,11.0,4.0,1.0,3.0,3.0,3.0,16.0,13.0,14.142135623730953,{}
562,562,5.0990195135927845,29.068883707497267,3.0,6.0,8.06225774829855,8.0,5.0,19.026297590440446,13.038404810405298,10.5,7.0,9.0,3.0,11.0,4.0,0.0,4.0,3.0,3.0,16.0,13.0,15.033296378372908,{}
563,563,4.0,30.14962686336267,3.0,7.071067811865476,8.06225774829855,9.0,6.082762530298219,20.09975124224178,13.038404810405298,11.0,7.0,10.0,2.5,11.5,3.5,0.5,3.1622776601683795,3.0,3.0,16.0,12.0,15.033296378372908,{}
564,564,5.0,30.066592756745816,3.0,6.0,8.06225774829855,9.0,5.0990195135927845,19.026297590440446,13.038404810405298,10.5,7.0,9.0,3.0,11.0,4.0,0.0,3.1622776601683795,3.0,3.0,16.0,13.0,14.0356688476182,{}
565,565,4.0,30.066592756745816,3.0,6.0,8.06225774829855,9.055385138137416,5.0990195135927845,18.027756377319943,12.041594578792296,10.0,7.0,9.0,3.0,10.0,4.0,0.0,4.123105625617661,3.0,3.0,16.0,13.0,15.033296378372908,{}
566,566,4.0,30.01666203960727,3.1622776601683795,6.0,8.06225774829855,8.0,5.0,18.027756377319943,12.041594578792296,10.0,7.0,8.0,2.5,10.5,3.5,0.5,4.123105625617661,3.0,3.0,16.0,13.0,14.0356688476182,{}
567,567,4.0,30.01666203960727,3.0,6.0,9.0,8.06225774829855,5.0990195135927845,18.027756377319943,12.041594578792296,10.0,7.0,8.0,2.5,10.5,3.5,0.5,3.1622776601683795,3.0,3.0,16.0,13.0,15.033296378372908,{}
568,568,4.0,30.066592756745816,3.0,6.0,7.071067811865476,8.0,5.0990195135927845,18.027756377319943,12.041594578792296,10.0,7.0,9.0,3.0,10.0,3.0,0.0,3.1622776601683795,3.0,3.0,16.0,13.0,14.0356688476182,{}
569,569,4.0,30.066592756745816,3.0,6.082762530298219,8.06225774829855,9.0,5.0990195135927845,18.110770276274835,12.041594578792296,10.0,7.0,9.0,3.0,10.0,4.0,0.0,2.23606797749979,2.0,2.0,15.0,13.0,14.0356688476182,{}
570,570,4.0,30.066592756745816,3.0,6.0,8.0,8.0,5.0990195135927845,18.027756377319943,12.041594578792296,10.0,7.0,9.0,3.0,10.0,4.0,0.0,1.0,2.0,1.5,16.0,13.0,14.0356688476182,{}
