,video_id,frame_seq,gap,time_seconds,m1,m3,m4,m5,m6,m7,m8,m9,m10,m11,m12,m13,m14,m15,m16,m17,e1,e2,e3,b1,b2,b3,label_measures
0,88,0,0,0.0,36.36252500215994,180.6794888429144,7.131277867289239,18.23497388102487,49.02940539229839,50.4257493848573,35.214807106905035,96.75357746557437,78.51882452208525,60.13802211895688,25.17405577072612,34.963966348230656,4.894955288752271,66.43153606163844,42.6560389448415,9.090631250540014,15.94602207769838,13.985586539292283,13.985586539292283,64.33369808074457,43.35531827180608,74.45272673470919,{}
1,88,1,0,0.0333333333333333,39.77215276311061,184.73521611497355,8.634657835526939,18.670988955289644,46.93041033295778,51.181846105297154,31.518658891055665,98.20432561517974,79.60761178815275,59.62021816333345,24.13199306611125,32.64916708944452,2.8390580077776804,69.55692119055561,45.42492812444448,8.517174023333268,11.705736043323435,14.26608992965699,12.775761035000016,62.4592761711113,45.42492812444459,65.85145936030281,{}
2,88,2,0,0.0666666666666666,37.02873512268229,185.41188489547767,7.26193242131596,18.56906300564621,48.5058951573619,52.77166511023854,34.29884739329435,97.0117903147238,78.44645405527366,59.81564904433287,24.211096041753763,34.18037088247593,4.984637420361082,67.6486507049002,43.43755466314644,10.6813659007737,11.744106622602873,11.39345696082529,11.39345696082529,64.0881954046423,45.57382784330122,67.17853624832807,{}
3,88,3,0,0.0999999999999999,37.92463075839987,181.3913451068096,7.162164158625188,19.714724388633208,46.437376694342944,50.58567913767683,33.82763171429983,98.48351348926246,78.7712834836933,59.69617804562938,25.28308717226662,33.710782896355454,4.2138478620444175,68.82618174672564,43.54309457445902,9.83231167810368,11.582759883661536,12.719338434776445,11.939235609125944,60.3984860226368,40.733862666429445,70.73465205187726,{}
4,88,4,0,0.1333333333333332,34.99192634178196,177.7050253943738,8.507100176545018,19.62970613052131,46.23711901891176,50.36753222165044,33.6817526105545,96.75357746557437,77.12388439445142,59.43874279199224,26.572614424655285,32.1668490403722,4.195675961787742,67.13081538860308,41.95675961787697,9.789910577504656,15.946022077698348,15.384145193221514,14.684865866256873,62.93513942681534,43.35531827180608,72.93989552409924,{}
5,88,5,0,0.1666666666666665,35.134166594812704,179.79255704600166,7.160266118989479,19.70949980462929,47.82681764526521,50.5722734656096,35.21825327254529,96.98435440197332,77.28445101854805,59.68035800722748,28.084874356342425,32.2976055097937,4.914853012360027,66.70157659631309,41.425189675605,9.1275841658113,15.699922050080508,15.510378819407263,14.744559037079682,61.78672358395312,43.53155525233064,71.9597839099711,{}
6,88,6,0,0.1999999999999998,34.78670576656932,172.454641474199,7.487298301390376,19.51458187174194,47.292559261321294,50.07213682576386,34.86996086554173,96.09565645115497,76.58327340133516,59.09014657963894,30.587840582401327,34.758909752728755,2.085534585163714,63.26121574996648,39.625157118110906,6.256603755491256,14.178908728030018,13.9729087896276,13.208385706037006,59.78532477469355,43.10104809338373,72.51211777990768,{}
7,88,7,0,0.2333333333333331,33.03986548213254,173.48114416785236,7.019621617494874,22.0695557157624,44.1391114315248,48.20279973608815,34.5264837778476,96.52347879007026,74.45433070641371,57.81976459373209,30.286543358621657,33.039865482132655,2.7533221235109977,64.7030699025097,38.54650972915477,8.259966370533107,15.391538580311936,15.143271679310772,13.766610617555216,57.81976459373209,42.67649291442132,71.91654196264633,{}
8,88,8,0,0.2666666666666664,39.38172784584913,180.05273093619712,7.171721384463723,18.33838963526397,52.05914352350865,54.87114989196267,35.19037556789687,99.94991389204196,81.62492150825524,61.885572329191405,29.53629588438685,32.34927644480456,4.219470840626741,68.91802373023597,45.00768896668478,8.438941681253482,14.135052378414882,14.064902802088966,13.361657661984566,57.66610148856478,40.78821812605804,73.35355854105586,{}
9,88,9,0,0.2999999999999997,39.37418291727965,177.20614268735193,7.170347393820745,19.687091458639884,49.23781341733837,53.454890805225766,33.866281968649425,99.9307650379393,80.26552731049287,60.46749519439379,29.53063718795977,32.34307882490839,2.812441636948506,68.90482010523942,44.99906619117678,7.031104092371379,14.34069478764149,14.062208184742758,13.359097775505631,57.655053557445285,42.186624554228274,70.43748709805702,{}
10,88,10,0,0.333333333333333,38.276989795663965,179.94256763413065,8.617418968803488,19.88426119955375,49.58432330800417,52.41771321131876,34.11853249935702,100.6750920514029,80.80130554901012,61.62623039709104,29.75059398480255,32.58398388811713,2.833389903314469,69.41805263120591,45.33423845303241,7.083474758286343,14.447510406617608,14.166949516572627,13.458602040743983,56.66779806629063,43.91754350137524,69.47585285157051,{}
11,88,11,0,0.3666666666666663,43.41240686814717,177.87288031689118,7.140668056539166,18.25898498519105,49.03400939067667,51.81480819746605,35.121858876643934,103.78090058700192,85.52765933522463,63.71821008066763,30.80880487416892,33.60960531727517,2.8008004431062545,71.42041129920995,47.61360753280667,7.00200110776575,14.073848046399124,12.68116335369659,12.60360199397826,57.4164090836785,44.8128070897003,72.87465316325425,{}
12,88,12,0,0.3999999999999997,37.59211710464979,176.82766186880082,6.9615031675277805,19.49220886907756,47.33822153918857,51.51512343970524,34.91872224185339,98.89255693798412,79.40997373665992,60.56507755749135,30.630613937122007,29.23831330361645,4.873052217269446,68.91888135852457,45.249770588930346,7.657653484280559,14.1987361980648,13.923006335055447,13.22685601830267,57.08432597372746,44.55362027217751,72.5200204058482,{}
13,88,13,0,0.433333333333333,37.86110162049988,177.96538444291866,7.1452674647124885,21.01953359562026,51.84818286919676,54.650787348612766,36.54149172608152,102.33344813924782,81.32383631440464,62.35794966700689,32.229951513284504,32.229951513284504,4.203906719124007,70.0651119854009,44.84167167065664,7.006511198540011,12.919368297092188,12.61172015737219,12.61172015737219,56.052089588320825,43.44036943094864,71.521346142693,{}
14,88,14,0,0.4666666666666663,41.89844610101304,175.88133093607763,5.755194185008901,18.19952200118461,50.26960920230204,53.060268649043074,35.00747954316235,100.5876547028345,82.40184052536604,61.41694323013053,29.31263199619866,30.708471615065264,4.88543866603311,70.48990075276345,48.1564668508978,7.677117903766316,12.869005421391403,14.028014556642148,13.260476379232728,57.22942437353072,44.66686780373129,69.84779221249981,{}
15,88,15,0,0.4999999999999996,40.48467855285331,178.59030231939929,6.975970797866125,18.13752407445168,48.83179558506231,53.01737806378208,36.38221248325745,101.8587293249595,83.72327538509724,63.48133426058121,33.484659829757106,32.08946567018393,3.487985398932892,69.06211089887381,46.73900434570248,7.673567877652545,16.973269512685714,15.347135755305317,15.347135755305317,57.202960542501614,44.64621310634272,75.4566612235365,{}
16,88,16,0,0.533333333333333,39.42048498636812,180.0986085880227,7.174205435537955,19.69768419787067,50.67072552265534,54.8901554739597,36.60846076985665,102.7189896972168,83.0235918010413,63.31398492172741,33.76745862492123,32.360481182216176,3.51744360676264,69.64538341390016,45.72676688791432,6.331398492172752,14.1399483009085,12.662796984345505,12.662796984345505,56.27909770820213,47.83723305197179,68.99929844495124,{}
17,88,17,0,0.5666666666666663,34.81278847342321,179.63938577332786,6.96255769468462,19.49516154511707,50.13041540172958,54.30795001854028,37.62358996471395,98.87812519752552,79.38537179314339,61.966763482693295,33.42027693448631,32.02776539554941,4.873790386279325,66.14429809950423,42.47160193757634,7.658813464153127,14.200887019885034,12.532603850432338,11.836348080963887,54.30795001854028,43.167857707044845,71.07267580244081,{}
18,88,18,0,0.5999999999999996,37.88133060614461,180.8645722993737,7.149085143194788,19.628713272800155,47.69034617317028,51.875885078114834,38.08833395384487,102.43611054574616,82.8278729939896,63.79331813660088,33.64922275337187,33.64922275337187,4.20615284417147,68.70049645480083,44.86563033782909,8.41230568834294,17.056685944822384,15.422560428628742,14.721534954600145,57.48408887034356,46.26768128588628,71.6282018975363,{}
19,88,19,0,0.633333333333333,41.907377631307305,178.7055579241054,5.756421025047076,19.545920397948976,48.86480099487255,51.65707533743671,37.798979718492845,104.747511554351,85.2101301422389,64.22230987897547,33.507292110769754,33.507292110769754,4.18841151384629,71.2029957353858,47.46866382359053,6.980685856410446,15.609288104504966,15.420839086325104,14.659440298461789,55.845486851283,44.676389481026376,68.4676828692954,{}
20,88,20,0,0.6666666666666663,37.460506678781066,176.08785405741435,7.0696659137516455,20.84329795055535,49.913120006033296,52.68607111747952,37.46050667878107,102.63665659531968,81.81380673678008,63.08463778540317,33.27541333735553,34.66188889307864,3.4661888893078867,68.63054000829572,43.67398000527908,6.239140000754105,14.139331827503405,15.251231112954656,13.86475555723149,55.459022228925846,42.98074222741752,66.56526756164986,{}
21,88,21,0,0.6999999999999996,38.070008311311135,176.64099222262462,8.265116990819118,19.022876085513417,47.5765973519975,50.27474394028548,35.432565580157416,100.58620487572593,81.57189178288338,62.50373570954412,32.61064471802308,32.61064471802308,2.71755372650182,67.93884316254787,44.83963648728161,8.152661179505685,15.191587162415374,16.361840110311128,15.62593392738603,57.06862825654031,43.4808596240307,65.27788058720134,{}
22,88,22,0,0.733333333333333,34.423662862344486,177.62610036969716,8.375638664587472,19.326365298316688,48.1931280072821,52.32396755076354,35.80060937683811,97.80198206351815,78.4980288750859,61.27411989497307,31.66976983335678,31.66976983335678,4.130839543481329,66.09343269570127,42.68534194930714,8.261679086962658,15.394730038947383,15.208871353941468,14.457938402184652,56.45480709424481,42.68534194930703,67.52655772051928,{}
23,88,23,0,0.7666666666666663,38.58662821616226,177.68219146720412,7.022450332186437,17.956697350918347,48.22222414031165,50.956985278885895,35.91339470183668,99.24557758274696,81.30240516076876,61.9747118256721,31.675963822010203,34.4303954587067,2.754431636696495,66.1063592807169,42.6936903687963,8.263294910089598,18.11444589225417,16.526589820179197,15.837981911005102,57.8430643706273,45.44812200549285,67.60993579973251,{}
24,88,24,0,0.7999999999999996,40.47023283664737,180.02816879098694,7.115810584610647,19.58713056142017,48.86331646638468,51.65329000549944,37.78241312606744,104.8131455931195,85.2299278941048,64.89192506565871,32.097081215272055,33.492606485501256,4.884338445802314,71.86955141680482,48.14562182290808,9.070914256489914,17.261694277121165,18.19542339639884,17.444065877865228,58.61206134962725,44.65680864733508,69.99919143889035,{}
25,88,25,0,0.8333333333333329,35.54896004215186,175.01560563083834,6.971724651648581,20.55454047140791,47.87389769856277,51.97415962009555,36.94153883109166,99.89478972572994,79.34865940285466,61.52704622680142,31.44715696036519,32.81442465429416,4.785436928751324,67.6797508494816,43.06893235876112,8.887240010537994,16.63352939503623,16.40721232714708,15.723578480182596,56.05797545108578,41.01803081786761,65.7569057216893,{}
26,88,26,0,0.8666666666666663,36.805232874515696,174.5053649853983,6.950762986277123,20.447351596953126,47.71048705955741,50.43680060581789,36.90606931792999,100.95646184815146,80.53015208340528,62.023633177424585,31.35260578199484,34.07891932825521,4.089470319390671,68.15783865651053,43.62101674016674,6.815783865651042,16.58351788503735,16.414581209368727,15.67630289099742,57.25258447146888,40.89470319390631,69.64117010089161,{}
27,88,27,0,0.8999999999999996,36.42645989199036,169.9954997614314,6.87923073334678,20.23692216221684,47.23875437266116,51.26686947761607,37.7996719327742,101.22058116800126,80.99264710201362,62.7344587028723,32.379075459546925,33.72820360369474,4.721948504517286,68.13097127946344,43.84666468480316,8.769332936960609,16.41285224758595,14.901607410560214,14.840409585625707,56.66338205420726,43.172100612729366,69.01683883662706,{}
28,88,28,0,0.9333333333333328,37.88759972101525,171.85265450126371,6.899628939308821,20.34198270254217,47.37882611591802,50.06575677419869,36.55952050850605,101.56579737441874,81.23280545125947,62.24391382738213,32.47508547515588,33.82821403662069,3.382821403662092,68.33299235397385,43.976678247606856,7.442207088056534,16.461519424709174,14.884414176113124,14.207849895380718,56.83139958152282,41.94698540540969,66.52385163691277,{}
29,88,29,0,0.9666666666666662,38.045752171026834,176.6462182101769,6.928429740335006,19.022876085513417,46.21839104372607,50.27474394028548,36.71212921906692,100.58620487572593,81.57189178288338,62.50373570954412,31.25186785477206,32.61064471802308,4.755719021378354,68.61823159417338,44.16024805565621,8.832049611131197,19.21600668248277,17.71628279007876,17.664099222262507,58.42740511979122,43.4808596240307,66.80153906493828,{}
30,88,30,0,0.9999999999999996,40.878564794227486,178.50826702757885,6.948019985781112,19.125266613922623,49.0731993652531,51.77951540602135,35.45428401278757,102.27813643844124,83.16441244201843,62.68046601781532,31.340233008907603,32.70285183538192,3.406547066185567,70.17486956342373,45.64773068688726,7.494403545608407,16.576973481512965,16.408103473832615,15.670116504453802,55.86737188544413,42.241183620701634,69.70697657629262,{}
31,88,31,0,1.0333333333333328,38.52917130461174,177.53072906771263,8.370135697683331,20.640627484613447,46.80565383336972,52.30769230769221,35.88278089135576,103.28566693439532,82.66564865441765,63.29792428614792,31.64896214307396,34.401045807689115,2.7520836646151565,70.1781334476857,45.40938046614963,8.256250993845356,18.09900451674181,17.94139044567788,17.200522903844558,60.54584062153276,45.40938046614957,67.55230276953898,{}
32,88,32,0,1.066666666666666,37.17755589133196,180.40101425802632,8.375638664587472,20.65419771740665,48.21279465899124,50.96562502485261,35.90637211649296,101.97774093013848,81.34479790484576,62.65106640946681,31.66976983335689,34.423662862344486,2.753893028987477,68.84732572468874,44.06228846380077,8.261679086962545,17.031887760251756,17.95318605824642,17.211831431172186,60.58564663772614,45.43923497829456,66.2223956138342,{}
33,88,33,0,1.0999999999999992,38.54650972915477,181.7401174556892,8.373902323367023,20.695753753936284,49.578914828817496,53.70742800924057,35.8196520732929,103.33214628190969,82.64553966760504,63.3264088407542,31.66320442037704,34.41652654388815,2.7533221235111114,70.2097141495318,45.42981503793237,8.25996637053322,19.710786746995684,17.949464209890902,17.208263271944077,60.57308671724314,45.42981503793237,67.6807798125248,{}
34,88,34,0,1.1333333333333324,41.13015408387139,176.8809171770628,6.99078194235792,19.24297407909096,48.00476155670659,50.745713751117286,37.118555683824674,104.34060687205404,85.10176870033267,64.437241398065,31.53311813096797,34.27512840322606,4.113015408387128,71.29226707871032,46.61417462838756,8.226030816774255,18.291489956425533,17.823066769677553,17.13756420161303,60.32422598967793,45.24316949225846,67.30504253571374,{}
35,88,35,0,1.1666666666666656,38.00739616388023,172.41206490641437,6.9214448107313,20.36110508779302,47.528632777665024,50.22405921655604,36.87552968161101,101.950212703929,81.62520730026363,62.440722269231856,32.577768140468834,35.29258215217453,2.7148140117056982,67.87035029264325,43.43702418729163,6.787035029264303,16.7901973862543,14.931477064381513,14.252773561455117,57.011094245820345,42.079617181438834,67.9924071706683,{}
36,88,36,0,1.1999999999999988,41.92779779815487,173.14236129109136,5.5765399668171325,18.983376948541867,47.35715384796077,50.042855436507466,36.61780821588935,102.93300106058162,83.95370422399638,62.89169669723219,32.46023055341016,35.16524976619439,2.705019212784123,68.97798992599667,45.98532661733111,5.410038425568359,16.729619900451453,14.877605670313017,14.877605670313072,58.15791307485995,40.57528819176275,67.84153671773188,{}
37,88,37,0,1.233333333333332,35.42808948833044,173.10086599822958,6.94801998578109,21.84444155910944,46.34907428056356,49.05427775307294,38.25053322784525,102.34165478330044,80.49837222735975,62.68046601781532,32.70285183538192,36.79070831480465,3.406547066185567,67.4496319104752,41.55987420746453,7.494403545608293,15.234541617087,16.35142591769096,14.9888070912167,57.22999071191839,39.51594596775317,69.7069765762925,{}
38,88,38,0,1.2666666666666653,36.41155121168436,174.01333722249376,8.203067384461727,21.61931745685074,45.87141071980367,49.91553159255937,36.63562441097956,102.71333954997782,81.0941690313413,62.70878264234523,31.017247328471854,35.0629752408812,3.3714399270078275,69.45166249636088,43.82871905110153,7.417167839417175,17.992247567408306,16.182911649637447,16.182911649637447,56.640190773731206,39.108703153290605,66.30003264855665,{}
39,88,39,0,1.2999999999999985,38.5443857788511,177.59960264451115,8.368105811703074,22.054278915032608,48.228332063002135,52.29500689193437,36.00572720582979,104.8791366955951,82.82859726567686,63.28257357097084,30.26557866437736,37.14411926991773,2.063562181662064,70.84896823706526,43.33480581490392,7.566394666094311,18.354235602114173,16.508497453296798,16.50849745329674,61.90686544986278,42.64695175434992,70.37658067738987,{}
40,88,40,0,1.3333333333333317,40.65764819428489,176.23004860212072,7.2982712065572946,21.72638947530532,44.80547439100163,48.80799718884002,36.81706632101466,106.02217515922604,84.2986003312993,63.69698217104633,29.815608675808903,33.88137349523731,4.743392289333201,73.86139421961752,48.11155036323714,10.164412048571194,18.08135612818606,16.26305927771392,16.263059277713978,60.98647229142733,40.65764819428489,70.9408324461014,{}
41,88,41,0,1.366666666666665,42.070655181448274,175.19966459167483,6.919970700639884,19.19254552758901,48.931582080347205,51.64185840690576,38.38509105517805,106.28061626845852,87.12020504962004,65.82021859033023,31.21371190881632,37.99930145421126,3.3927947726974708,71.2486902266462,46.8205678632246,7.464148499934367,15.473524888937684,14.928296999868678,14.928296999868678,62.427423817632814,40.71353727236925,73.59784429790892,{}
42,88,42,0,1.399999999999998,38.29582406501727,180.60871828169687,8.314142291982337,21.912057181472125,47.85880231244725,50.59142059793154,35.95585647125696,104.31927395040888,82.41922532520165,62.87448236326907,28.7035680354054,36.90458747409275,2.73367314622908,71.0755018019563,45.10560691277999,8.20101943868724,18.235874389055912,17.768875450489077,17.085457163931835,62.87448236326907,38.27142404720723,72.76399140157416,{}
43,88,43,0,1.4333333333333311,41.91366379590727,178.59907404235344,8.551138237264906,20.460284712091752,47.39907572221422,50.09901649603832,35.56697902751465,106.01342388578638,85.56481029562006,64.22254936469653,29.74518075838569,36.50544911256429,2.028080506253559,72.33487138971088,47.997905314667946,7.436295189596421,16.723980289079293,17.6286230857505,16.900670885446516,62.19446885844303,39.20955645423584,71.97701877041608,{}
44,88,44,0,1.4666666666666646,38.94119887269007,174.64602067905923,8.163081531577014,21.513934091484707,46.98924934889276,51.06667166478997,35.531396836978345,103.89039823052684,82.39938063000726,62.40310867432822,28.182049078728937,36.23406310122289,2.684004674164612,71.12612386536341,45.6280794607992,8.05201402249395,20.5286883122098,18.83590039601728,18.788032719152625,63.07410984286952,38.91806777538756,68.77025473415553,{}
45,88,45,0,1.4999999999999978,45.0512812013808,178.69953027528422,6.948382843512005,21.845582376855152,47.71361263415415,50.437940951009935,36.07913147201504,109.70289184383746,87.89086336134112,64.72777446467705,28.616489763330947,36.792629695711184,2.72537997746008,76.31063936888222,49.05683959428143,6.813449943650198,18.180552053184343,16.40896038086618,15.670934870395511,64.04642947031192,38.15531968444117,68.62331438845366,{}
46,88,46,0,1.533333333333331,49.04048740361359,182.7180083433621,9.628747365078516,21.82988015810922,47.73761650593879,51.8166188376077,36.053198429591895,116.25690714582797,94.44029348711744,69.44723607302763,29.95763124718837,39.48960482583925,0.6808552556179848,81.02177541853223,53.78756519381557,7.48940781179715,20.83016540596777,19.11251780202707,19.063947157301754,65.36210453932011,42.213025848310906,67.07029061224534,{}
47,88,47,0,1.5666666666666642,47.80440984339543,179.03958875641712,8.304693105929664,21.88715369800577,46.49986806056968,50.53392245451391,36.14778870144397,113.84365766964224,91.97186046957913,67.58151525658275,30.03622900292578,38.227927821905496,1.3652831364966005,79.18642191680408,53.24604232336833,6.826415682483116,19.30801928112804,19.16266198710414,19.113963910952748,64.16830741534119,39.59321095840198,74.04065264353655,{}
48,88,48,0,1.5999999999999974,45.58909643936033,167.74100418992677,8.480316542202935,22.83395109821602,44.26855199659179,49.62978013719877,36.59824027487244,113.02229163981418,90.1968476677854,67.0427888814122,30.83968288544964,37.54396177359092,2.0112836664424094,78.44006299125226,51.62294743868733,7.37470677695535,19.198133095741472,16.09026933153899,16.090269331538934,63.0202215485275,42.907384884103806,68.59365250747547,{}
49,88,49,0,1.6333333333333306,42.60190373458087,159.8177399754021,6.785060867284428,22.66032179663105,41.27191400931023,43.93193404850714,39.158497526769786,110.73297368450092,88.0752126815999,66.53299569845751,34.597157763197856,41.25045733304364,0.6653299569845785,72.52096531131872,44.57710711796653,5.987969612861207,19.052150544284984,16.02326720626711,16.63324892461435,61.21035604258088,42.5811172470128,65.54091078799001,{}
50,88,50,0,1.666666666666664,30.543216124525657,146.13056681065822,9.29576142920348,23.940246055338243,37.206751836988666,39.83897755372914,41.69897566915576,105.2114469895376,81.27758964358839,65.734312963653,42.49490939064447,46.47880714601729,3.319914796144076,60.422449289822566,32.53516500221224,3.319914796144189,21.61771894430669,19.963705232551924,19.919488776864625,62.41439816750904,46.47880714601735,65.28678076436329,{}
51,88,51,0,1.699999999999997,22.45153890265385,141.31879847213892,10.64765255759702,26.413575179592726,37.00258128522528,38.32244756903769,43.60240473893382,103.0468011941611,76.64489513807538,65.37359856949217,47.54443532326707,46.22375656428744,3.301696897449119,56.128847256634685,27.0739145590826,3.301696897449119,22.60637893681919,19.85415520436265,19.8101813846946,60.75122291306343,47.54443532326701,64.83443256829042,{}
52,88,52,0,1.7333333333333305,22.28575937482274,138.72464703870344,9.253657905935665,26.17329702427048,34.025286131551525,37.97383716901732,43.205763795515296,100.77569100886464,74.60537515223393,63.470245283855775,45.80326979247332,44.494604941259695,1.9629972768202608,55.618256176574846,26.82762944987724,4.580326979247388,22.591057975555536,21.10158667324441,20.284305193809587,61.50724800703563,48.42059949490039,65.48556823282125,{}
53,88,53,0,1.7666666666666635,23.68794597533501,136.65928314062052,9.29117682808959,26.279416561381822,36.79118318593464,39.441018276052816,44.69432707769711,103.81201135541812,77.53541340246865,65.69854140345456,48.6169206385564,47.30294981048724,3.2849270701727846,55.84376019293643,26.9364019754164,3.284927070172671,21.38989537864533,18.58235365617914,18.395591592967264,61.756628919247305,49.930891466625496,67.12835071423449,{}
54,88,54,0,1.7999999999999967,16.1033936445695,143.1488347473002,9.456238350895829,25.40896699725181,36.13223600518933,38.80515781094508,45.48833991640876,96.29589823438133,70.89025982947945,62.85376046688623,46.805991837042825,42.79404967958203,0.6686570262435225,51.486591020747255,23.402995918521583,7.355227288678293,21.563541163142705,20.104238501999152,20.05971078730414,57.504504256938446,49.4806199420168,64.24677177455405,{}
55,88,55,0,1.83333333333333,10.850819880842783,146.79951031950483,9.421149947969525,25.6070860791758,39.053676264819785,40.39878200180928,44.41399261185632,90.21403032145416,64.61618911927543,59.218656815808345,45.75987117585191,40.37635691986941,1.3458785639955977,47.10574973984751,20.188178459934647,6.729392819978216,20.58798318222011,18.89030583335081,19.515239177936905,60.564535379804056,52.489263995830186,68.75845820370021,{}
56,88,56,0,1.8666666666666631,21.420363298106427,144.82373756284608,9.39345070353706,23.91182168836542,38.54749884826676,41.20289147796063,43.85846293945147,98.3041558299468,74.39233414158139,63.76485783564112,45.16677430024584,42.509905223760825,0.0,54.46581606794348,27.89712530309305,5.313738152970132,21.62534752171262,18.645467264510728,18.598083535395347,59.77955422091367,53.13738152970103,65.14749162754845,{}
57,88,57,0,1.8999999999999964,40.11243902572642,146.23920996738548,9.05764752193818,24.58504327383241,40.11243902572653,44.01331252154648,42.876422934102536,116.52014765995972,91.95239918632606,71.81420535251016,41.40638867171754,43.99428796369989,0.0,73.75512982149701,45.28823760969112,6.469748229955826,18.29921138388581,17.019250387146833,16.82134539788524,58.22773406960283,50.46403619365583,68.68910702698358,{}
58,88,58,0,1.9333333333333296,41.69625084930488,152.39979337615964,9.209161225776686,26.079980384740363,42.99800670397652,45.58302246250855,41.85865166205588,118.63029739927748,92.55092489390508,71.63046386965618,39.071162110721616,41.675906251436345,1.3023720703573645,78.14232422144312,49.490138673580645,7.8142324221443005,16.109452829813613,15.84404006015363,15.6284648442886,57.304371095725,50.79251074393807,74.2808912196242,{}
59,88,59,0,1.9666666666666628,41.53655463924031,153.25402114136674,9.178368578916327,22.066294652096417,42.91316758271064,45.44914595865544,41.71868900453708,114.34346594524844,92.30537021095924,71.39095328619442,37.642502641811575,42.83457197171663,1.29801733247632,73.98698795114683,46.72862396914536,7.788103994857579,18.58477990342638,17.072752449611674,17.523233988429524,57.112762628955466,46.72862396914536,70.20102073026221,{}
60,88,60,0,1.999999999999996,22.063855225854923,150.64284701904666,10.463793397175694,24.65960289948498,40.3177357861125,42.84949685766325,40.42205093015719,97.47887933068168,72.86610951809192,61.64900724871245,32.446845920374926,37.63834126763493,5.191495347260116,62.29794416712002,33.74471975719007,12.97873836815006,17.315796728404422,15.574486041780006,16.22342296018752,57.10644881985996,48.02133196215499,72.78515357425964,{}
61,88,61,0,2.033333333333329,14.433448641997316,156.85816010207537,10.535299205479951,24.862481967919525,41.83619018224276,44.448476041501685,40.69828071751669,90.31664917645683,65.45465325605859,58.150065314247286,33.975319060009724,37.89554818231852,4.573600642693577,54.22983619193849,24.174746254237675,12.414058887311285,17.434126668083007,15.73526991560576,15.680916489235187,58.80343683463218,49.65623554924491,70.75745093152074,{}
62,88,69,1,2.299999999999995,41.81577730462732,168.59011062400268,7.948607605121269,23.52137473385278,44.4484760415018,48.36714797465014,34.200738319528284,107.280340719083,83.79473828561264,62.72366595694086,27.44160385616157,30.055089937700814,5.226972163078358,78.40458244617605,50.96297859001447,9.147201285387156,15.897215210242669,15.73526991560576,15.680916489235187,57.496693793862505,47.04274946770568,69.30667467675242,{}
63,88,70,0,2.333333333333328,40.64175960552279,169.12724235309668,7.974650725608469,23.59844106127128,44.57483311573469,48.52561993916285,32.88032726909223,104.955679492825,81.37861858356386,60.9626394082843,26.220490068079243,27.531514571483285,5.899610265317847,78.00595795253571,50.47444338105254,9.832683775529745,15.786825552852942,15.786825552852942,15.07678178914557,56.37405364637033,47.19688212254255,69.53375370352539,{}
64,88,71,0,2.3666666666666614,39.46322367495384,171.00730259146712,8.00151394315967,22.362493415807307,46.04042762077961,50.00405542413639,32.991087152499425,102.68024432424993,80.33887024567684,60.51027630159615,26.308815783302634,26.308815783302634,6.577203945825659,76.29556577157769,49.98674998827505,10.5235263133211,15.840004675533065,15.840004675533184,15.127569075399038,56.56395393410071,48.67130919910994,69.73077054024483,{}
65,88,72,0,2.3999999999999946,36.956451427119305,172.90843535914064,8.028475642631054,22.43784550932253,47.51543754915349,50.15518407966192,31.78675751115725,99.06965563834294,76.65498494390984,58.07442367118768,25.07759203983096,23.7577187745768,7.259302958898502,74.57283948686597,48.17537418178063,11.21892275466132,15.893378755578626,15.893378755578626,15.178542550424028,55.43467714067907,48.83531081440776,70.0030718783439,{}
66,88,73,0,2.433333333333328,35.63657816186503,174.22827046177576,8.028475642631054,21.11797224406825,47.51543754915349,50.15518407966204,31.78675751115725,96.43207609061052,75.33690457918186,57.41448703856042,23.7577187745768,22.43784550932253,8.579176224152661,73.25296622161159,48.17537418178063,12.53879601991548,15.893378755578626,16.056951285262,15.178542550424028,55.43467714067907,50.15518407966204,69.96573358506006,{}
67,88,74,0,2.466666666666661,33.10804545620954,176.15471531515126,8.055535134097724,21.18914909197406,48.99990727519014,51.648550911686925,31.89389285439218,94.11074755498409,72.94597313305191,56.28367727555633,23.83779272847096,21.189149091974173,9.27025272773858,71.51337818541253,46.35126363869336,13.243218182483702,15.946946427196083,16.111070268195355,15.22970090985632,54.29719454818371,50.32422909343853,70.201548857495,{}
68,88,75,0,2.4999999999999942,31.91854293572988,178.1019858949953,8.082691691801463,21.26058126133728,49.16509416684255,51.83969974750841,30.677414597736995,91.72476414887532,70.4758004704176,54.4802394821769,22.589367590170923,18.603008603670105,9.965897466251818,71.0900685925966,45.8431283447585,13.952256452752636,16.000706253655842,14.856282794221372,13.952256452752522,54.48023948217684,50.49388049567614,70.43821003278708,{}
69,88,76,0,2.5333333333333274,30.462908149332293,177.4844938259004,9.27131987153598,23.87729942003636,49.00554789240414,51.65449642712872,29.258592881981865,92.72265876320952,68.92358439549047,53.64120782817213,19.8671140104342,18.542639743071845,9.93355700521704,73.50832183860621,45.694362223998496,15.231454074666203,14.8080724813564,14.629296440990942,13.90697980730397,54.30344496185319,49.00554789240414,68.88539605509706,{}
70,88,77,0,2.5666666666666607,35.064195820834016,175.32578894159707,7.792043515740829,20.778782708642325,46.75226109444532,50.64828285231579,28.6886445643304,92.2424233794362,71.47427446602019,53.89496765054116,20.778782708642325,19.480108789352244,8.44138047538604,72.07640252060321,47.401598054090414,12.337402233256398,13.051511361259598,14.34432228216514,13.636076152546591,53.245630690896064,49.34960893302565,72.73733385887603,{}
71,88,78,0,2.599999999999994,37.66233766233768,177.92681764470805,6.493506493506402,19.480519480519547,48.05194805194799,50.6493506493506,28.68924939529169,92.24436808872612,72.7736401356982,53.89610389610391,19.480519480519547,18.181818181818244,9.740259740259717,73.37662337662334,49.999999999999886,12.337662337662325,14.344624697645845,14.344624697645845,13.636363636363626,51.94805194805196,49.35064935064935,72.73886735034,{}
72,88,79,0,2.633333333333326,38.98185613498451,179.2217061405599,6.621963656254503,19.480108789352244,49.34960893302559,51.94695677160587,28.60032631094532,93.51354032289326,74.03580439959036,54.54430461018626,19.480108789352244,18.18143487006205,9.740054394676122,74.67375035918349,51.29761981196077,12.337402233256398,14.34432228216514,14.344322282165264,13.636076152546591,51.94695677160587,49.34960893302559,72.73733385887603,{}
73,88,80,0,2.66666666666666,40.14695979115578,179.93882421567383,6.600119533054945,19.458947511105208,50.48120743663799,53.06998730518353,28.50598132750614,94.490465201912,75.08577389259895,55.01157220659263,19.415849014091464,16.82706914554592,10.355119474182176,76.36900612209331,53.06998730518353,12.943899342727718,14.297004121055942,13.008457844672089,12.94389934272749,51.775597370910646,49.1868175023651,73.7915796776748,{}
74,88,81,0,2.699999999999993,41.4363590092481,182.50822954075247,6.599428507890405,19.456910180972287,51.7701765235289,54.35868534970541,28.50299678300853,95.7748265685284,76.37197784233307,55.65293976279361,19.413816196323296,16.825307370146902,10.354035304705803,77.6552647852933,54.3586853497053,12.942544130882196,14.29550724064729,13.007095873623424,12.942544130882196,51.7701765235289,49.18166769735245,73.78385378146488,{}
75,88,82,0,2.7333333333333267,45.1776042949344,184.5480876347338,7.741572983737569,19.353932459343923,50.3202243942942,54.20636897372828,27.126208575246856,99.3501866246321,79.99625416528818,57.41666629605368,20.644194623300223,16.773408131431438,8.386704065715662,80.64138524726627,57.41666629605356,12.257490557584449,12.96697426639876,12.90262163956254,12.257490557584449,54.19101088616287,51.61048655825039,69.68610270145038,{}
76,88,83,0,2.76666666666666,48.42440206050496,182.20568798694663,7.748742076813055,19.15069602340504,48.40764331210187,53.51834786649688,26.87264090411332,101.91878949793433,82.84173497013553,58.59872611464971,20.382165605095565,16.56050955414014,8.280254777070013,83.43949044585986,60.50955414012742,12.10191082802544,14.242471194266152,14.070523588773668,14.012738853503263,52.229299363057294,50.9554140127388,71.33757961783442,{}
77,88,84,0,2.799999999999993,43.60500977603137,182.07694293095707,7.691675595039442,20.55115668483487,49.99589136775671,52.57541439541514,28.319111258099987,99.99178273551342,79.4909854167805,57.68756696279627,21.793080852611865,17.947243055092144,8.332648561292785,80.12162078166136,54.48270213152978,12.178486358812506,12.883397174693014,11.537513392559276,11.537513392559276,52.55978323276992,51.27783730026334,70.507026287862,{}
78,88,85,0,2.8333333333333264,41.79111737454169,182.31712078551496,7.59489867970035,20.25306314586794,48.10102497143612,51.91390880212907,26.70242719405524,96.21037732223812,75.95953453496193,55.06301542782819,20.253063145867827,16.455613806017595,8.227806903008855,77.84771146692958,53.79719898121141,12.025256242858973,15.242448461326248,13.981399634375103,13.923980912784144,53.16429075790308,51.89847431128635,69.61990456392073,{}
79,88,86,0,2.86666666666666,42.46123742370397,189.0762255918189,9.002796583552367,20.617972645975264,50.15843810836304,52.7306657036637,29.83118705101307,101.61112964907912,81.06598797962427,59.80429159074061,23.15004835770594,20.57782076240528,7.71668278590198,79.73905545432069,54.01677950131398,11.575024178853027,12.925283700993251,12.925283700993251,12.861137976503189,55.30289329896437,52.7306657036637,70.73625887076844,{}
80,88,87,0,2.899999999999993,44.72752141871649,186.59516583326376,10.223433467135235,21.72479611766232,48.57812091641649,52.39509651906792,26.957945656249265,103.54381285390836,81.8273932789945,59.42370702772337,23.002725301054284,20.446866934270474,5.111716733567505,81.78746773708156,56.22888406924358,11.501362650526971,10.223433467135235,13.032371686210029,11.501362650527083,56.22888406924358,54.95095488585167,70.28610508655458,{}
81,88,88,0,2.933333333333326,45.3241043970511,179.8463875383308,8.64926024689136,18.347851718472384,45.27456081759026,48.94289207072821,25.71609948874728,97.855209165186,79.50735744671363,56.87834032726437,22.017422062166816,18.347851718472384,5.504355515541761,77.67257227486641,55.6551502126996,9.173925859236192,9.785520916518635,9.86167397879248,9.173925859236192,55.04355515541715,53.82036504085232,64.84061457448723,{}
82,88,89,0,2.9666666666666592,43.22730373878424,179.04980294491875,8.729671768711606,18.51843031556632,45.69547500344752,49.397910456272434,27.18840821264798,97.5382130326872,79.02161377359259,57.407133978255615,23.45667839971736,19.75299233660417,5.555529094669851,75.92556429382194,53.70344791514231,9.25921515778316,12.407194757989132,12.407194757989064,12.345620210377549,55.55529094669902,53.08616690462355,67.91213352078553,{}
83,88,90,0,2.9999999999999925,41.12129578907423,178.23149037205886,7.579729612820881,19.937597958338984,47.35179515105506,51.1052888488081,29.932346093746183,98.47343169835852,78.54384072516163,57.943644066422735,26.16809732031993,22.429797703131385,5.607449425782761,74.14294240757306,50.46704483204553,9.345749042971306,15.005029468079687,15.00502946807964,14.95319846875418,54.828394385432205,51.09009476824366,71.0714020800898,{}
84,88,91,0,3.0333333333333257,43.20802438707437,182.7248992815433,7.4070898949271395,19.7522397198054,48.146084317025725,51.86432378916138,29.731057841126823,100.02619078843468,80.2814499517966,58.63946166817243,24.69029964975676,22.22126968478108,6.172574912439131,76.53992891424605,53.08414424697708,9.8761198599027,16.237509441528946,15.018522957137638,14.814179789854052,58.022204176928426,53.08414424697708,72.87821991736979,{}
85,88,92,0,3.066666666666659,46.091607200268754,185.6163281330054,8.808564326242406,18.685786702811583,51.07448365435175,53.58040502938867,30.00088904813948,103.4622033659551,84.79129693937739,61.66309611927852,24.91438227041556,23.66866315689481,5.6057360108434295,79.10316370856924,55.43450055167455,9.342893351405792,15.15482709400094,15.154827094000996,14.32576980548896,58.54879833547653,51.074483654351866,73.53964334032085,{}
86,88,93,0,3.099999999999992,41.34304093604653,178.67059049712543,7.292677163148028,20.69830284220249,46.1869553666038,51.06320768948291,30.48323546070989,99.69622851794664,79.08810411176829,58.34141730518377,24.308923877159827,24.308923877159827,6.077230969289985,75.3576640191958,51.048740142035854,9.723569550864,13.425042008127743,12.215083072437665,12.15446193857997,55.91052491746785,46.186955366603854,71.75251517418157,"{'neutral': (['m1', 'm3', 'm12', 'e1', 'e2'], 2.631756820642463, 80)}"
87,88,94,0,3.1333333333333253,44.59491887758497,176.06777751173885,7.1384289892174095,18.77680794845685,46.956686960977095,50.47631545294285,28.38439975701755,98.68994515529704,79.93937931826736,57.50397434214915,21.12390894201394,24.644560432349635,5.280977235503542,75.69400704221664,52.22299710664561,8.801628725839123,12.962288908818548,12.962288908818556,12.32228021617476,57.50397434214909,43.42136838080643,72.91139942675817,"{'neutral': (['m1', 'm3', 'm12', 'e1', 'e2'], 2.631756820642463, 80)}"
88,88,95,0,3.1666666666666585,44.35944418340876,187.324480082643,8.967141907232683,19.746160808605488,50.5610472156515,54.25215236662879,30.891673109040585,103.72906692370516,83.98386956464331,61.58658346927041,22.17117004893737,28.32982839586441,5.542792512234314,78.21496100597335,53.58032761826519,10.469719189776017,14.984662491838444,13.604920964664569,12.933182528546808,62.818315138655805,45.57407176726008,72.93266172447412,"{'neutral': (['m1', 'm3', 'm12', 'e1', 'e2'], 2.631756820642463, 80)}"
89,88,96,0,3.199999999999992,43.92549820847934,188.0843381142059,8.624455985800342,20.77044048872918,50.14066161833164,52.50303603935986,29.676150256458843,102.80843522468425,82.0457330707462,59.764430853722274,18.295233934812927,28.05269203337992,6.098411311604309,79.27934705085613,52.44633727979715,12.196822623208618,15.086636391723678,15.902711076210323,15.246028279010773,63.42347764068484,42.68887918123016,71.11908598589041,"{'neutral': (['m1', 'm3', 'm12', 'e1', 'e2'], 2.631756820642463, 80)}"
90,88,97,0,3.233333333333325,47.26049812687808,185.91485174180312,7.661626282866306,20.735990191213755,48.59247172478958,52.3155007529666,31.86720805562893,107.1601077662842,86.42708386963996,62.38758830978304,18.17114222615044,32.708056007070695,6.057047408716812,81.1644352768052,54.5134266784512,10.902685335690308,16.1622183495173,15.748323262663687,15.142618521791974,65.41611201414145,42.39933186101763,75.45826779045453,"{'neutral': (['m1', 'm3', 'm12', 'e1', 'e2'], 2.631756820642463, 80)}"
91,88,98,0,3.266666666666658,53.64241614842019,185.37127994622344,7.537348677007177,16.854024011906137,46.72244314729479,50.28038699140837,29.48250097439765,106.87365073809846,90.0232098821643,62.56737201277349,16.684632536739628,32.1775056065693,4.171158134184907,81.63552348333315,58.99209361204373,10.129955468734806,12.442334119435989,13.163413557671282,12.51347440255472,65.54677068004855,39.32806240802916,66.2365287942305,"{'neutral': (['m1', 'm3', 'm12', 'e1', 'e2'], 2.631756820642463, 80)}"
92,88,99,0,3.2999999999999914,46.53945825622251,179.9166168774025,8.459741181769104,17.775714661656714,45.55710048952943,49.15008937266075,28.74715381083524,101.07031232975042,83.31878793924241,59.263775798975416,13.94441783505306,32.5369749484571,4.648139278351096,76.69429809279177,53.453601701036746,10.45831337628988,11.85047644110445,11.850476441104426,11.620348195877511,65.07394989691414,36.02307940722034,64.42746937468648,"{'neutral': (['m1', 'm3', 'm12', 'e1', 'e2'], 2.631756820642463, 80)}"
93,88,100,0,3.3333333333333246,48.83295541175632,179.20183651023405,7.790729677934334,16.909852098640332,45.664280945479135,50.42286934938012,29.85881777542876,102.53026487831218,85.73736454815257,60.39141733451231,12.775107513069884,36.00257571865154,4.645493641116445,76.65064507841953,53.42317687283787,10.452360692511888,13.24169421763791,13.24169421763794,12.194420807930328,68.52103120646592,33.67982889809343,65.69720111184688,"{'neutral': (['m1', 'm3', 'm12', 'e1', 'e2'], 2.631756820642463, 80)}"
94,88,101,0,3.366666666666658,49.977939460606976,179.5665146709061,7.777889138956158,16.881981587922656,45.94151556269758,50.51305042617536,30.101313029545057,103.91886034843084,87.11390157461197,60.871610926571634,10.435133301697988,38.26215543955925,4.637837022976896,77.68377013486281,53.335125764234135,11.594592557442184,13.219869498032988,13.219869498032988,12.754051813186493,70.72701460039752,31.305399905093964,66.90793226429916,"{'neutral': (['m1', 'm3', 'm12', 'e1', 'e2'], 2.631756820642463, 80)}"
95,88,102,0,3.3999999999999906,51.13836260400613,178.89442508471066,7.764494175155714,16.852907692909525,46.080962838779485,50.6249254418768,30.049473000563854,105.09988518528972,88.30915135447965,61.3455099791413,8.102237167056387,40.51118583528205,4.629849809746474,78.70744676569075,54.40073526452147,12.73208697680286,14.64087062329626,14.317019847248003,13.310818203021256,75.23505940838089,30.094023763352368,68.32950944409114,{}
96,88,103,0,3.433333333333324,52.25299442731641,179.2647562297315,7.741774366413973,16.803594134178265,46.46498060592225,50.70057763359238,30.293110131432663,106.40051147474684,89.63237811486569,61.74304370750235,5.770377916589041,42.700796582758585,4.616302333271165,79.63121524892824,54.24155241593667,13.848906999813607,14.598029741086766,14.27512658989682,13.848906999813607,77.32306408229266,27.69781399962721,69.48455143798095,{}
97,88,104,0,3.466666666666657,53.20872083122236,178.5072968719489,7.714019663909659,17.095059690459134,46.59733306008344,50.76687189326806,30.55461636657341,107.65902563427902,90.67756379549908,62.09666045378003,4.599752626205941,45.997526262059296,3.449814469654484,79.34573280205234,54.04709335791972,13.799257878617825,14.949196035169244,15.6408499232046,14.374226956893551,80.49567095860374,26.448577600684075,69.73026242482267,{}
98,88,105,0,3.4999999999999907,43.68306769509159,176.13172102762132,7.29783701803993,19.47572606832589,47.596549743634114,50.58658299162016,30.68818721960964,99.88749323732851,80.47015040165131,55.8468023771037,1.139730660757209,45.58922643028882,6.268518634164593,73.51262761884061,45.01936109991016,15.38636392022238,13.77141797144478,14.816498589843825,13.106902598708077,79.78114625300537,20.51515189362999,68.27928440517329,{}
99,88,106,0,3.533333333333324,46.00736672309693,178.09070735784672,8.23004795668845,19.931987847941286,44.3935788877114,49.089268240737645,31.793003267122263,104.7265362458054,84.98679847179916,59.34771981473602,1.1413023041294537,50.21730138169983,3.994558064453372,74.75530092048496,46.22274331724634,14.26627880161925,14.30047688217391,14.436459119390207,13.124976497489683,83.31506820145654,22.826046082590835,71.82954497014825,{}
100,88,107,0,3.566666666666657,45.33232123575304,171.2612103784627,7.027654021048171,20.177938515030124,43.736466509113306,48.25411681399881,29.55203874510427,100.7104392042291,80.6669681023245,55.42552586879401,1.097535165718682,48.29154729162258,2.743837914296819,71.88855335457447,43.3526390458884,12.62165440576507,12.5138262413456,12.846319756199252,12.072886822905616,80.12006709746464,20.853168148655183,69.0749955178939,{}
101,88,108,0,3.5999999999999903,47.34823923207463,172.63540006843837,7.145942364318452,18.47323105041312,44.821332583835,49.066322354680906,29.463475162660675,100.93556829188424,82.62987510387286,55.800435063738064,0.0,50.22039155736422,1.674013051912084,70.86655253094739,44.08234370035302,11.718091363384929,11.4900128224482,14.116517538378847,12.834100064659763,80.35262649178293,18.972147921670967,68.52329777805579,{}
102,88,109,0,3.633333333333324,55.02103001760746,177.80167412568045,8.202050887428461,18.37557938194426,44.24256031414247,50.00768089523344,30.028744631569307,110.14781888714532,91.87789690972146,61.42066969552934,2.274839618352985,52.32131122211752,0.0,78.48196683317633,51.18389141294108,11.374198091764695,15.260088073640553,16.561082402098357,15.355167423882278,84.16906587905868,21.6109763743529,70.5016803012781,{}
103,88,110,0,3.6666666666666567,51.45416657394711,172.5357446072842,8.194930777148251,18.81130387517484,44.95735875893157,48.87980692831452,31.039379538158084,107.87132495608964,89.30941842090128,60.7991348730726,4.545729710136243,55.6851889491694,1.7046486413011053,73.29989157594741,46.02551331512973,10.796108061573705,12.705700799006456,13.301600533096888,11.932540489107735,79.55026992738476,17.046486413010996,73.86810778971444,{}
104,88,111,0,3.69999999999999,47.16315708365726,169.96154757694703,9.176443598734984,19.877769075346905,44.27281996608614,49.71722801023619,31.087595689027875,106.19452068555456,86.45808818210575,59.75538167770162,7.967384223693557,56.90988731209677,3.9836921118467217,68.86096364763716,40.40601999158878,8.53648309681455,13.752895694883078,15.481163078618794,14.227471828024193,83.08843547566124,18.211163939870914,69.12150371643551,{}
105,88,112,0,3.733333333333323,45.96584701282246,172.20232741238067,9.775961385662846,21.94815575525462,44.20415383351466,48.87980692831452,34.18754436088727,110.70741847640912,88.82366322271399,62.50378351437382,9.0914594202726,59.09448623177161,2.2728648550681783,71.59524293464631,40.91156739122641,9.091459420272486,10.721082079213703,12.705700799006406,10.796108061573593,82.95956720998697,19.31935126807917,71.96408434787052,{}
106,88,113,0,3.766666666666656,46.27509727565268,175.9503512177831,9.187422547014048,23.074321576334583,47.58940257792919,52.28330857134023,33.22358362988431,111.0120490144099,87.97517560889163,61.53621392760101,10.256035654600169,60.39665441042314,4.558238068711148,70.65269006502331,38.74502358404504,7.976916620244538,11.732483312504334,12.273431615082108,10.825815413189048,80.90872571962336,17.09339275766689,71.06503661166867,{}
107,88,114,0,3.7999999999999896,50.65010050307377,179.39088428823703,10.760237556628631,20.969361477523133,45.45190656102112,50.14674900994748,32.200010761956435,113.2915221054329,92.43648619474205,63.87264239099056,13.68699479806935,63.87264239099056,9.124663198712938,69.57555689018625,39.92040149436912,4.562331599356526,13.301368042090134,13.35018056591524,12.546411898230303,82.12196878841644,19.38990929726498,70.69774089813328,{}
108,88,115,0,3.833333333333323,56.38010852267044,175.77606773075206,10.013739200563988,20.58304544965236,46.75461909305509,51.3661875283,33.07945949419438,118.72194768009264,98.2992729587312,67.17420468424626,17.913121249132303,66.05463460617563,11.755485819743171,72.21227003556487,44.22301808379552,1.6793551171061836,11.195700780707716,11.526679440732648,10.076130702636988,80.60904562109562,20.15226140527392,69.39528490907131,{}
109,88,116,0,3.866666666666656,52.65223732836858,177.2962333628778,9.697440570454246,21.92048266495814,44.90067476860922,48.48720285227169,34.01213271609698,117.08663477869548,95.26561938128184,65.82997501547203,18.15999310771639,63.5599758770075,10.214996123090373,71.50497286163352,41.99498406159432,2.269999138464641,12.689680956181752,13.284829356659795,11.91749547693894,78.31497027702704,24.969990523110084,66.10337270637616,{}
110,88,117,0,3.899999999999989,55.19391710907325,175.92477968816644,9.238551899415558,22.13103069202109,47.53764462986446,50.860466309675,35.15135221548297,120.34146466009436,98.44086143800524,68.75407996995801,22.91802665665267,65.3163759714601,10.886062661909932,72.76473463487241,42.971299981223865,1.7188519992490685,11.797776300908868,12.811566378606882,11.459013328326364,76.77538929978653,24.063927989485364,71.15668990228409,{}
111,88,118,0,3.9333333333333225,44.58551309299523,171.66798404801972,10.923428185274703,24.223242681591344,44.65443493517769,48.96423912696845,36.12690712710046,115.1388883549842,90.94669952785551,66.54636550818691,25.50944011147169,63.2190472327776,9.981954826228048,67.65547159999005,36.60050102950288,3.327318275409312,11.418946108320466,11.945438185913284,9.981954826228048,75.41921424261187,26.61854620327477,70.49588601056178,{}
112,88,119,0,3.966666666666656,44.80046379412013,165.51204989000556,10.710936781366424,23.47656469061448,42.46943767939639,45.65039512549731,36.46067835459559,114.77444348458566,91.30079025099448,66.88314780358616,30.45086404065711,64.16432065709893,12.506604873841354,64.70808608639629,34.25722204573924,0.543765429297423,14.792018900518253,15.57107223415305,14.681666591031105,73.952098384453,29.36333318206221,70.81487895915444,{}
113,88,120,0,3.999999999999989,41.47914216168889,159.04050605234292,8.287259834665782,22.433210109001585,36.94975920995145,42.25689961117474,38.56486173396822,110.12586804698624,87.71086465558126,65.29023162429729,32.645115812148674,59.84937898893924,9.249449480108808,61.48163477954654,33.18920107568442,1.6322557906074735,14.800719332439783,14.518005616672918,14.146216851931172,70.7310842596554,27.20426317679056,71.06511721221578,{}
114,88,121,0,4.033333333333323,33.89522281487672,149.19718547522234,8.75971229197461,21.917272747811715,36.40708900026281,39.44203097949659,40.03716649054871,104.17233769225624,82.25648869800304,64.07792348504694,36.90888392738702,58.43906621836277,8.714597593966403,54.850702503200125,27.169039557659914,0.5126233878803532,12.968459900591524,12.968459900591489,11.790337921248636,66.64104042444882,27.681662945540268,64.74496299648938,{}
115,88,122,0,4.066666666666656,27.632733012857845,163.11975415768066,10.411192263654089,22.38339079911233,40.24763391966011,43.303551716554864,42.61670641648041,102.87840823000604,80.49526783932023,65.29744341029135,39.50769685328555,63.65128937473781,9.876924213321333,49.384621066607,20.851284450345247,1.0974360237024712,15.712892615764138,14.641622760107715,14.266668308130932,73.52821358805926,32.92308071107135,71.67021869926485,{}
116,88,123,0,4.099999999999989,24.225012096440004,155.21209955332364,9.98268396969243,23.529411764705884,39.44248144527104,42.561577617298965,42.116989807556585,99.4823974622862,75.95299948973631,62.60990336999407,39.98615677411385,62.08376972822941,9.996539193528465,46.82589411705442,18.41467746176301,0.5261336417646589,16.335581136668054,16.096594236693733,15.257875611175052,70.50190799646393,32.62028578940868,69.55319589223436,{}
117,88,124,0,4.133333333333322,24.18078408200829,159.82506720890336,9.936376277821472,22.39055582289728,39.259515593307874,43.56420832322025,41.69859364163367,97.99078545948812,75.60066858276534,62.319468440657374,39.80066892008364,62.843161452763695,10.473860242127271,45.03759904114736,16.758176387403694,1.0473860242126989,17.2739328344993,16.02192532717515,15.187097351084503,70.17486362225281,33.5163527748073,69.04808458046016,{}
118,88,125,0,4.166666666666655,20.96099352483064,158.25546675243658,11.231821060080254,22.512003084898307,41.51794168210587,43.37547391010057,42.3478639420814,96.73789179433828,74.24758408508814,62.57090430287195,41.71393620191464,65.69944951801557,11.99275665805044,41.19251199939072,13.03560506309833,0.5214242025239741,14.18427182634033,13.91333308995857,13.035605063098274,70.91369154325483,32.32830055648381,72.00941862633702,{}
119,88,126,0,4.199999999999989,21.35659515917209,161.62905383648408,11.025127234590318,23.61322815195852,41.00823068567389,45.15007300075568,38.9439335329334,94.85348806477292,71.2478047827348,59.13687731390991,38.01656398751351,64.416955645509,13.20019582899772,41.712618819632894,12.14418016267797,0.5280078331598475,16.15393346767334,17.027740976223235,16.36824282795726,70.75304964342797,34.84851698855408,76.76296931736124,{}
120,88,127,0,4.233333333333322,23.72952019648448,157.85956875236317,10.7309606285684,23.8405620766805,42.59028047284995,45.64348618332437,37.90485212291714,95.98062971741123,72.16868834486523,59.10077789536757,43.169263854007625,65.78173539658303,17.47327346471735,40.085745007292815,11.306235771287731,6.16703769342962,12.713673903587996,13.9801302189072,12.847995194645137,65.78173539658303,28.77950923600505,72.83170268828054,{}
121,88,128,0,4.266666666666655,35.987680556727575,157.34097481225427,9.718909356592745,21.732141988500143,41.60127151978617,44.63179781488652,38.01572235206762,105.1011164088362,83.3852467577141,64.02893737407231,45.07637191134688,67.61455786702032,19.464796961717923,47.12529790731725,19.46479696171804,8.19570398388123,12.671907450689208,12.671907450689153,11.781324476829298,64.54116887306486,28.6849639435844,68.72306711784114,{}
122,88,129,0,4.299999999999988,44.34897086036637,161.9155673530041,10.99619486523527,23.762277844420225,41.732942280070695,46.06665342488038,37.81426271522116,116.53472778993788,92.81109754794844,69.51413356361905,47.39600015701296,71.6206224594863,22.644755630572888,55.29533351651514,25.804488974373783,10.005822255369424,15.080165541402922,15.335470642462724,14.745422271070652,68.46088911568543,31.59733343800866,70.65378547511456,{}
123,88,130,0,4.3333333333333215,37.85229837300418,161.9654345277431,10.939569907596471,22.39984942646347,42.549780766746345,45.64940308004635,41.71590139413619,112.65900623109052,90.26475646128462,70.2039909636186,46.10411346864504,69.15617020296753,16.765132170416393,53.438858793202144,25.14769825562456,5.239103803255148,15.00251015738743,15.00251015738746,14.14558026878882,69.15617020296753,33.53026434083273,71.87317211625849,{}
124,88,131,0,4.366666666666655,27.347947834707963,154.54686613432244,11.957543312024924,23.450671801017787,39.49193394173588,42.27629981132348,43.62077105462392,106.20850422840704,82.76459389521395,68.1684851446471,47.19356663860185,68.1684851446471,14.682442954231648,47.19356663860185,18.87742665544073,2.097491850604513,10.949228910126685,12.275256338252971,11.011832215673737,72.36346884585615,36.7061073855792,66.89815361013503,{}
125,88,132,0,4.399999999999988,21.85946738183809,149.2254872064834,11.814932548252742,24.03536425648215,37.81914296017931,40.6252928066204,44.12233345354243,101.70982133228064,77.68331109224356,65.80112150275585,47.66695415947669,65.28300243580497,12.95297667377082,44.04012069082086,16.061691075475892,1.5543572008524509,11.814932548252688,11.814932548252742,11.398619472918313,70.46419310531331,36.26833468655832,69.17229126606512,{}
126,88,133,0,4.433333333333321,17.57892943184941,144.5989737028532,10.473100768936256,23.709490263310308,37.325877065436416,39.24054589542612,44.74110609743965,96.43699291298336,72.77022592323284,63.15877940578304,47.24071305148004,62.64529339435393,10.783206240011737,40.5653949029014,12.837150285728285,0.5134860114291087,12.702942374396518,12.493653880613586,11.81017826287001,68.80712553150352,35.94402080003914,71.60138500895764,{}
127,88,134,0,4.466666666666654,13.34838769303492,140.6706038403215,9.356538806688008,23.363811578079723,35.75128458166867,37.76857915078362,45.06705878834962,91.00972345614852,67.74517225893251,60.384117846252366,46.68351967945557,59.87668828451911,8.626302549464583,37.04235800652458,9.641161672931048,0.5074295617332609,13.53990949770275,12.346294099505768,12.178309481597124,66.9807021487841,36.53492844479132,72.63158930764314,{}
128,88,135,0,4.499999999999988,19.81368591255775,151.606371635944,12.668985721800098,25.07985294946993,39.69573028859645,43.84957180409716,46.24496385000107,103.7314862235159,78.66415332630623,68.21066584833613,47.90367372554908,61.44166847407382,8.851765797112364,48.42436583126158,19.26560791136211,2.6034605285624366,17.174948402222995,16.694658920802883,16.66214738279973,72.89689479974857,44.77952109127412,80.8599802499958,{}
129,88,136,0,4.533333333333321,43.00939393984277,153.94594432186943,9.441119512133415,20.70978958501785,42.03528390844732,47.15002885681337,42.29641375673954,115.14796735200328,94.48336433403531,72.7063564221151,47.10552669601822,57.34585858645698,10.24033189043871,62.46602453167634,37.88922799462341,3.072099567131602,16.88878801026395,16.416500871735273,15.872514430180104,69.63425685498348,41.98536075079886,69.22646136589377,{}
130,88,137,0,4.566666666666654,45.49234866901538,161.1871276345725,9.751287425216056,22.436688153985152,45.52921941558036,50.81248059803709,39.48970430082381,116.92459301595116,94.51265321430766,71.39310453472814,43.36470053220529,54.99913238230914,10.04791841599888,67.1624020437813,38.605160229889975,2.6441890568418103,18.47151064461447,18.011566829405314,17.98048558652414,70.86426672335978,42.30702490946851,71.36763743117115,{}
131,88,138,0,4.599999999999987,38.13730641048668,157.66836462123712,8.264568650812416,23.13818769482583,45.20028878054526,49.201037009548784,39.40673741388175,108.80040916785752,85.66542407332363,66.14692667155566,41.09127262929968,51.11353424620205,7.015583131831647,62.13802202479468,34.07568949746809,0.0,17.503127439083126,16.066907628673334,16.035618587043757,67.14915283324589,42.09349879099,71.01675857672207,{}
132,88,139,0,4.63333333333332,38.26015962296956,154.28307252935946,9.303807286384483,22.747338440630728,43.25130882966851,47.11480018602251,36.405253554117934,106.3694611761258,83.6423256479202,64.23633456080262,36.28617372136938,46.0932477001179,4.903536989374288,64.72668825974006,38.24758851711909,1.961414795749704,15.22467297052376,14.71061096812275,14.71061096812275,67.66881045336461,45.11254030224308,76.0285464248871,{}
133,88,146,1,4.866666666666653,34.91060600775995,168.40485613359957,7.260448895123274,20.56130413258697,46.21662112044064,49.28556142272009,36.171320306270665,98.763456926563,78.2041686150546,60.58016924876,28.74991082992,30.803475889199945,6.160695177840012,68.79442948587996,44.15164877452003,10.26782529640002,17.72501464670273,16.42852047424003,16.941911739060004,61.6069517784,49.28556142271998,76.09282974466885,{}
134,88,147,0,4.899999999999986,33.12462565937403,171.84646677655098,8.345602183805592,19.694968292724827,46.593005020025785,50.764316256427406,36.28916222423783,97.32560973457232,77.69792523865509,61.07352855947107,28.984047451952392,26.913758348241515,8.281156414843565,69.35468497431464,45.54636028163941,11.386590070409852,10.807226402399692,10.351445518554442,10.351445518554442,60.03838400761566,50.72208304091669,74.59507621233823,{}
135,88,148,0,4.933333333333319,34.71329121235192,180.9329393455172,7.4381829131992765,21.038358310516287,46.284388283135854,49.45133137964267,36.01186866543993,99.02006795694504,78.01941224351785,60.48528014273438,27.349865803671207,26.297947888145416,8.9413022819694,72.05637721351837,47.8622651564246,12.097056028546888,13.835820000047836,13.715331609943334,13.674932901835632,61.01123910049728,57.855485353919846,71.5613503299604,{}
136,88,149,0,4.966666666666653,37.64636607063674,182.85822917881444,8.601373624733924,20.456536783844108,46.28236420238689,49.504622866898856,35.885617298827604,102.19222828895114,81.82614713537643,62.89754463086672,31.17997938966039,25.804120874201715,6.988616070096327,73.64926166178418,49.99548419376583,10.21413117937152,16.270300235969348,16.163374870218068,16.12757554637608,59.134443670045584,61.284787076229065,72.04452732977057,{}
137,88,150,0,4.999999999999986,43.020305670669394,179.75957728208604,7.526201921642212,20.54112654559516,45.20838119106245,47.35640115961765,36.80795011955177,107.5225460332996,87.14861924160806,65.58547388859603,35.48066620202735,26.879292577293484,5.375858515458674,76.33719091951343,53.75858515458685,8.601373624733924,16.163374870218068,15.090753978925347,15.589989694830251,60.20961537313735,64.51030218550432,69.88616070096305,{}
138,88,151,0,5.033333333333319,42.65969746503709,180.72253679764893,8.73922329968741,22.092481670686595,50.35728608354876,52.537652753555264,37.15776029967572,110.4191872196828,88.49137888026567,67.18277911634698,41.51131067351525,28.40247572398408,2.1848058249219093,75.37580095980388,51.34293688566356,5.462014562304603,16.386043686913865,14.368316996276484,14.201237861992013,53.52774271058541,58.98975727289002,76.47600635214553,{}
139,88,152,0,5.066666666666652,53.764330980051525,179.18350919510758,7.752141794761105,19.855170807220407,47.25628319504184,51.63182505716589,36.3276977640691,117.32655962371469,97.57233816595487,70.7125372101583,41.66009944164364,28.50427856533514,1.096318406359046,82.22388047692834,60.29751234974742,3.2889552190771383,17.54109450174468,16.590307924202413,16.444776095385635,50.43064669251606,63.58646756882456,71.29442130704473,{}
140,88,153,0,5.099999999999985,48.56237441771936,177.1818423472327,8.889057723497494,23.388658081429625,46.51671627354436,49.81045976947451,36.38421321091136,117.05757911058096,93.7752650451904,69.4607706753763,46.30718045025077,29.76890171801841,1.6538278732232357,78.83246195697461,54.57631981636701,1.6538278732232357,17.67525181341642,16.865801195377923,17.08955468997351,49.61483619669724,62.84545918248318,76.20380705512409,{}
141,88,154,0,5.133333333333319,50.6001573458986,174.43309615048625,7.761709822894483,20.24006293835944,46.31081257917497,49.69919229089623,36.22316048584804,114.49508604285188,94.50180538446232,69.15330638207348,48.297547314464,29.63713130660296,2.744178824685377,75.19049979638157,54.33474072877209,0.5488357649370528,17.59701328028586,17.040444588877776,16.46507294811272,46.10220425471567,62.56727720282839,72.57925011278328,{}
142,88,155,0,5.166666666666652,51.47130850340297,175.75597663033145,7.89533831045445,19.785661095586462,47.22706017281841,50.69028555103753,36.91440075930428,115.6606431161402,96.25838974504865,70.34387546446152,52.47876423539202,29.03080574723816,3.907993081359109,74.25186854582046,54.153618413117215,2.791423629542237,15.671799071067918,15.18698646984178,14.51540287361911,42.42963916904034,62.52788930174364,72.79142255860219,{}
143,88,156,0,5.199999999999985,51.44105141845287,176.52302564145978,9.1800492814614,20.17684038326315,48.30861503963703,50.730435417617805,37.85031283584114,118.358845399047,98.45823011775292,72.30395598501224,58.070893783238205,29.604769379690023,6.262547368780474,73.4426009611542,52.94699139059958,5.12390239263857,14.976536383053734,14.402846283666312,13.66373971370308,38.71392918882543,63.76411866394778,74.32657168466012,{}
144,88,157,0,5.233333333333318,51.5489140121585,173.52331938157857,8.050587822551126,20.174715257778928,47.17671940343863,49.60102987232767,36.874856078024095,116.42497245573831,96.452627512094,70.01929047492365,59.203302515382575,28.4631262093186,7.400412814422793,71.15781552329645,51.80288970095978,6.261887766049995,14.082777095556828,12.98118281014409,11.95451300791376,35.294276499555,61.48035261212806,74.43202743033524,{}
145,88,158,0,5.266666666666652,52.49675056371055,175.36988932717853,9.561145960066966,19.436078827026616,46.8972245739108,50.51305042617536,36.11115330142496,117.24306143477706,98.0823037024042,71.30674422826974,59.13242204295534,28.986481393605573,8.116214790209597,71.88647385614172,53.33512576423425,5.797296278721092,16.600930153905356,15.770350873085382,15.072970324674884,33.62431841658247,64.92971832167649,69.19941919939525,{}
146,88,159,0,5.299999999999985,57.445843125757534,174.73506338907077,8.68265510645997,18.857521858656085,47.06075840534531,50.78243455636573,35.097288165477,119.60486371287678,101.03831351864189,71.55926411971802,59.63272009976504,27.43105124589192,8.944908014964767,74.54090012470635,56.65108409477682,6.55959921097417,14.752320222853433,15.504507225938902,14.31185282394364,34.58697765786371,70.36660971772278,70.19457633095415,{}
147,88,160,0,5.333333333333318,54.66254021757083,178.10074572510973,9.422451267989244,22.304453346396063,45.15460168241272,50.46921667806606,37.62883473534387,123.2766396087923,101.30929526860348,72.99647942286003,64.33588016930037,28.45625469026743,9.279213485956802,74.85232212005133,55.056666683343565,6.804756556368261,16.506686547859502,16.083970042325063,14.846741577530906,37.116853943827095,76.70816481724273,72.81801648954998,{}
148,88,161,0,5.366666666666651,54.04747786897976,173.87753688082444,10.036364680496863,21.941365781386214,47.263148330554586,52.27814419608099,37.49342228270925,123.17267202346716,101.4572608209317,73.02527942630695,65.72275148367623,25.558847799207456,9.128159928288367,74.85091141196449,54.16041557451092,7.911071937849897,16.237979104912394,14.706130142377582,13.387967894822909,30.427199760961173,74.24236741674531,76.85985342010721,{}
149,88,162,0,5.399999999999984,54.50237495503887,175.83208773407398,9.37325920721716,21.49446054962823,46.590752567994336,51.66299535216085,37.9148844326138,122.41669066694357,101.38730006950884,72.61538461538464,66.46153846153845,25.84615384615381,9.23076923076917,73.23076923076928,54.76923076923083,7.999999999999886,20.03547150289194,18.74651841443422,17.230769230769226,30.769230769230774,78.76923076923077,73.15574696228222,{}
150,88,163,0,5.433333333333318,54.94685427597444,176.15928545231662,9.423307766361289,21.609230317145364,46.83952409814397,52.2181328017192,38.41739346698169,123.64125745804265,102.40818389205614,73.00311478387255,65.57906921263134,22.272136713723853,6.805375106971155,76.09646710522327,57.53635317711996,6.805375106971155,20.142450991917546,19.367448992910447,17.94144346383308,28.45884135642489,80.42716035511393,75.32551093203047,{}
151,88,164,0,5.466666666666651,52.25472835397228,173.27431194944512,10.523271417312433,24.26080486109692,46.62431207983945,51.978207867196,37.05216858992672,123.37477970052647,99.5281502022272,71.43603401843268,65.27775522374009,20.93814790195438,7.389934553630951,76.36265705418657,55.42450915223219,6.158278794692478,19.12043916741585,17.634626768035197,16.62735274566967,30.79139397346233,83.75259160781746,73.48764681464375,{}
152,88,165,0,5.499999999999984,52.45281358346746,167.44677749902104,9.740242956719891,21.611658717495665,47.17892417420408,50.98531082824253,36.34439142735621,118.99298628557808,97.88823023453337,69.46738587334141,66.44706474841348,19.33005519953849,7.852834924812441,71.88364277328378,54.96984447368766,7.852834924812441,15.705669849624964,14.74708711552308,12.081284499711614,19.33005519953849,74.9039638982116,75.61185578554172,{}
153,88,166,0,5.533333333333317,53.18566902822294,171.7063537156913,10.106832132239337,23.552972596808484,45.63166475962751,49.59244781952507,39.26384962709229,125.01460926482814,101.85823210239526,72.70869798147953,68.94790325829956,18.80397361589985,6.267991205300064,76.46949270465939,56.41192084769955,7.521589446360053,19.461078093139623,17.948795300734965,16.29677713377987,27.57916130331984,86.49827863313942,75.10089337624062,{}
154,88,167,0,5.56666666666665,50.40577881769981,167.9463290009546,9.490796829565122,25.69112633453057,44.7419737223311,48.9679956295114,40.59255349414412,125.47720122467604,100.04609469064152,72.27975524782016,71.03355257113355,22.43164818035791,8.100317398462607,74.14905926284996,52.96361375917854,6.854114721776,20.28670980015965,18.981593659130148,18.06993881195501,27.416458887104227,84.74178201468573,75.86498690948945,{}
155,88,179,1,5.966666666666649,41.71332947397065,144.1391593014578,10.898231862740946,26.246417943360683,37.83115205350559,41.67772269883132,45.08299646733972,123.0161304810932,96.93454982608677,73.1075618389292,77.98139929485785,35.33532155548244,14.01228268579473,61.53219788109868,38.38146996543776,11.575363957830405,17.445683146369998,16.3473477941115,14.62151236778584,26.806106007607355,76.76293993087558,68.5917952053347,{}
156,88,180,0,5.999999999999982,43.084270565333256,151.66005679138777,10.366272745925444,24.567056782475444,40.01986773363616,44.164075170233005,42.67229995074264,120.35962256646457,95.94125952252952,72.19018703270058,76.43666862285943,33.97185272127081,13.95272522480775,61.2706629437206,40.64489522009183,11.526164316145582,16.187180237256143,14.6601235085464,13.346084997642151,27.905450449615387,76.43666862285943,70.67293556025797,{}
157,88,181,0,6.033333333333316,41.43865994382602,150.6159240471599,11.439367400137607,24.41589688690682,40.67727812024333,44.74533088138422,43.2919564094585,120.20713601064504,96.01197044044928,73.55472715102405,74.76054235022127,37.38027117511058,13.866874790766817,60.89366755945446,39.18899397390635,10.2494291931755,18.24729507260697,16.795062284947583,15.675597589562583,28.93956478073079,75.96635754941838,70.23808845368696,{}
158,88,182,0,6.066666666666649,39.83308679302335,151.16068627335338,12.510540481801153,23.87580795295062,41.37146989192008,45.36134453144441,43.02186986371821,118.92713010575494,95.17942729455726,73.69498577212357,73.09583954633388,39.54365090211502,14.379509418950876,59.91462257896217,38.345358450535855,9.586339612633878,19.321885204944863,18.94666724988722,17.375240547899068,31.155603741060304,76.69071690107154,69.5629152232332,{}
159,88,183,0,6.099999999999982,45.36454995193155,149.60938724764264,8.423985444573649,20.860338597975872,41.301363265333336,44.71050516887991,40.41658251586587,114.60195866866064,93.97665797716144,70.00596517741246,67.11315669900705,33.556578349503525,10.992672217940822,61.90610143787717,43.39212717608211,9.835548826578702,15.437951568296924,14.636581802251737,13.306919000665175,30.085208175416938,68.27028009036923,69.66805378210348,{}
160,88,184,0,6.133333333333315,45.12633887345861,157.73009999571275,8.597884511490511,22.06309250952844,44.26819706692337,46.79543607291972,40.774796308719885,116.3040296898586,94.37003655778705,70.8606159158428,64.95556458952262,34.249297692657365,9.448082122112396,64.95556458952251,44.87839008003368,7.0860615915843255,16.702007344382622,16.063476293502763,14.172123183168594,33.06828742739327,68.49859538531467,69.50925186208632,{}
161,88,185,0,6.166666666666648,44.57843945568303,166.82318304846814,8.742551256540048,23.316906301638667,46.02683905976493,48.572661626429046,41.26911932459946,117.6925403412991,94.43543667445732,71.45246537144567,62.44585208933063,34.82557135751131,7.8057315111663,67.84982005859968,45.033066410574975,5.403967969268933,16.983032872822264,17.485102513080175,15.611463022332655,36.02645312845999,68.45026094407399,69.12115242883915,{}
162,88,186,0,6.1999999999999815,51.51908846224256,167.42375886017172,8.270891193427385,20.191818668850605,47.02058019032935,50.63514974485737,39.040008253773536,118.83633045328668,98.69776135968078,72.52020029167466,57.314351843420354,36.26010014583733,8.187764549060148,71.35051964180877,50.29626794422586,5.848403249328726,16.541782386854756,15.605486292817362,14.62100812332153,38.59946144556875,63.16275509274885,69.36709217872276,{}
163,88,187,0,6.233333333333315,56.93603823710557,169.04439048729938,7.964676158927091,18.34664916428541,49.04479651947705,52.53680796898926,36.69329832857061,119.81640201375563,101.49502648728092,72.81989631019042,52.33930047294939,37.54775903494192,8.533581598850446,74.52661262996071,54.04601679271957,6.257959839156911,14.965565559158875,13.842066772994672,13.653730558160705,42.09900255432888,58.02835487218306,69.63923132274475,{}
164,88,188,0,6.266666666666648,58.8492240856421,174.34384126202056,7.920546471900707,21.52838203618527,46.40556900244048,50.93036949216834,35.09495116599199,123.38092836754134,101.86073898433656,72.4164248859496,45.26026555371857,39.60273235950376,7.354793152479374,80.90272467727175,56.00957862272651,2.8287665971074603,13.57807966611557,12.49789931936468,11.880819707851174,47.52327883140447,55.443825303305175,67.92810474744238,{}
165,88,189,0,6.299999999999981,58.91526203020926,175.5839905846175,9.132735022187155,23.788303655561663,48.72255371340962,53.25253858274231,36.24884366561776,128.0037291942126,104.21542553865096,74.76324006033656,44.17827821747164,43.04550185292101,7.363046369578569,84.39183915901629,56.07243004525242,1.6991645468258412,12.511923898197791,12.460540010056093,11.894151827780831,49.84216004022437,50.974936404774894,67.97602102062038,{}
166,88,190,0,6.333333333333314,59.93614129440618,179.9007573958017,9.292704222191228,24.232407886458343,48.46481577291669,54.28329566070491,36.955747676301954,130.32742124038998,106.0972284472385,76.07279471982338,41.494251665358206,47.257342174435735,7.492017661800787,85.87004858525506,55.90197793805192,0.5763090509077529,13.87935988623946,13.831417221786069,13.831417221786069,55.32566888714428,49.562578378066746,73.80356904238708,{}
167,88,191,0,6.366666666666648,61.28494403085806,176.24598824492404,8.023624234072585,20.550505122097324,48.91121306787407,53.52424955388917,35.24919764898476,125.00384253539512,104.4921115495874,73.75626837287007,35.17606645475337,46.52318466596421,5.673559105605364,83.96867476295984,56.73559105605398,1.1347118211211864,13.80436509640349,13.61654185345293,13.049185942892391,57.87030287717499,45.388472844843136,68.31869856851556,{}
168,88,192,0,6.399999999999981,52.87863316719332,182.1973086188221,8.366767997040903,20.81405575654994,49.63170671868612,54.21067306731207,36.93770874230068,118.73070497329476,97.93050862797584,71.25436617108517,32.179391174038415,47.11982279055633,2.873159926253493,78.72458197934418,51.14224668731117,4.022423896754731,12.849161810661958,12.641903675515096,12.06727169026442,58.61246249557013,42.52276690855092,70.34021286861187,{}
169,88,193,0,6.433333333333314,48.04850782170996,179.19904862696478,9.423087653150494,20.695489186485062,48.48138600567509,51.73872296621247,34.7543876514888,112.68953311675254,91.99405982547516,67.42031638500623,29.710647898477305,47.9941235283095,4.570868907458021,73.13390251932879,45.708689074580434,4.570868907458021,13.028980999083528,12.775966991645506,12.569889495509642,60.56401302381914,41.13782016712241,71.29859576184087,{}
170,88,194,0,6.466666666666647,42.52665577433181,176.7395711213427,9.215765328402709,19.29234781067975,47.41472144479347,50.89572755094259,33.98973802619459,104.79618852955852,85.52923014755089,63.70181501720094,27.9393925514039,49.17333089047099,5.029090659252802,65.37817857028517,39.673937422993504,5.029090659252688,13.823647992604077,13.59589521047785,13.410908424673892,62.58423931514483,37.99757386990933,72.22859858757134,{}
171,88,195,0,6.4999999999999805,39.198189428527336,174.69127855035126,9.201590118038713,20.362474068603543,47.51243949340824,51.00087738621194,35.03861127607149,103.67864148603174,83.32394240212057,63.04590384963876,26.78056092728013,51.32940844395364,4.463426821213261,63.603832202290505,35.707414569707,4.463426821213375,13.802385177058206,13.574982712402356,13.390280463640067,62.48797549698708,36.823271275010256,68.97583177932552,{}
172,88,196,0,6.533333333333314,41.14684645869959,173.0744354265608,8.456979622942669,20.26391728910187,47.28247367457109,50.75402711595458,34.86902025908867,104.276473302483,84.0212296000154,62.74075422866167,27.761395676399047,54.41233552574204,6.66273496233589,62.18552631513353,34.4241306387346,2.2209116541117737,14.046278618011447,14.815328602632162,13.880697838199469,63.29598214218959,34.42413063873471,70.83454886773305,{}
173,88,197,0,6.566666666666647,40.49839323865176,173.95462432236505,9.262336892949724,21.809052201428205,46.9206297651213,50.2320745664556,34.60184235103835,105.80978431016712,84.03182010837928,62.90050669360255,29.20380667917265,56.16116669071664,8.985786670514699,61.77728335978816,33.696700014429894,2.246446667628561,16.354378600744724,14.985668388738851,14.040291672679189,67.39340002885984,34.81992334824423,66.10815833172889,{}
174,88,198,0,6.59999999999998,41.546615457006425,171.99322712339827,9.579918441777114,19.581695881363768,45.737986573350746,49.04083619209576,35.40364365565432,105.62338799312508,86.10253650500174,64.47156705708039,28.03111611177405,58.30472151249012,8.40933483353217,61.10783312366755,33.07671701189349,2.803111611177428,12.076174399186185,12.78415589149812,12.33369108918066,68.39592331272871,32.516094689657905,67.2933634842459,{}
175,88,199,0,6.633333333333313,41.503011938894254,167.30585763803967,10.000000000000025,23.04886114323217,44.51123453691204,49.11720676097124,34.44198019858906,108.31666538441807,85.30093786119826,63.16892036436912,27.95084971874735,59.25580140374439,10.062305898748946,62.609903369994186,32.42298567374701,1.1180339887499713,12.041594578792251,13.086252328302376,11.73935688187396,72.67220926874313,35.77708763999664,66.21933252457322,{}
176,88,200,0,6.666666666666647,42.24778384629447,164.76587239575417,8.44082938861784,21.775331620402547,42.20414694308912,47.60683510338051,36.30537996225152,108.25433903260316,86.54955422122349,64.28344144902121,28.81671513231981,59.850100659433565,8.866681579175292,62.0667710542275,33.250055921907574,1.1083351973969684,12.97273088601914,14.787035874116784,13.300022368763052,72.0417878307997,33.250055921907574,64.55993064520467,{}
177,88,201,0,6.69999999999998,39.913537853977296,165.54769616393554,9.440095735987764,22.77767718486309,43.146929039522966,47.4584067131804,35.11362409352929,106.83106269070537,84.10159145968233,62.97813917113524,28.726870499114284,60.768379901972594,10.496356528522483,60.21594008468185,30.384189950986297,0.5524398172906331,13.350311419934467,14.532422654047428,13.25855561497582,72.92205588236703,34.2512686720209,69.99218452613154,{}
178,88,202,0,6.733333333333313,42.24011850395074,164.15085485814188,9.115975648814972,20.383941231983112,43.17015638306894,47.72782614556469,35.68474186519877,107.0998777194605,86.72163276078128,64.11751670223873,27.63686064751664,63.01204227633809,11.054744259006611,59.69561899863618,32.05875835111942,1.105474425900752,16.434058813841762,16.910507008335856,16.02937917555971,74.06678653534476,32.058758351119366,72.1951823701316,{}
179,88,203,0,6.766666666666646,41.93770701155627,166.1924690126258,9.050711253301303,19.44881196124352,41.793837952857366,46.31911075443013,36.48458346477045,106.553797634777,87.17832432372617,64.75603736986238,28.53655884095633,63.658477414441,10.975599554214,58.17067763733394,31.829238707220497,0.0,14.928429365233148,14.643276215469752,13.719499442767471,73.53651701323349,30.73167875179905,72.97742089336226,{}
180,88,204,0,6.799999999999979,38.66465542299668,166.19246901262568,9.377556369831034,21.563631705198,43.92982864640928,47.38612627244346,36.48458346477043,105.71388455516524,84.1693247545333,63.10969743673036,28.53655884095633,63.658477414441,10.975599554214,57.07311768191255,28.53655884095621,0.0,14.928429365233114,15.714667047941123,14.817059398188915,75.73163692407633,30.73167875179905,75.98571735914547,{}
181,88,205,0,6.833333333333313,41.817992136778926,166.0505457702699,9.322098956832356,21.43610773391371,43.67003445759093,47.932594066040025,36.26881930047346,108.52162375336832,87.10121997701056,64.37308021482755,29.45886721695507,63.28201105864406,11.456226139926912,59.463269012001774,31.09547095123025,0.5455345780917469,14.840144950821015,15.430047981616992,14.183899030385705,72.01056430811224,28.36779806077152,76.60828469966434,{}
182,88,206,0,6.866666666666646,38.53864317444997,166.49398888759316,9.346993910367386,21.49335352249403,41.65762736367124,45.92122678554134,36.36567630396976,105.36935169564096,83.89500792033562,62.90401618101737,27.349572252616326,61.26304184586047,9.298854565889542,58.52808462059875,30.084529477877823,1.6409743351568975,13.837910615937473,14.3890983575976,14.221777571360462,75.48481941722088,31.72550381303484,73.80939684489722,{}
183,88,207,0,6.899999999999979,40.882368054449024,167.41293811954384,8.856616411595216,20.52219786455881,42.89889235610826,48.49724594193419,36.51676495058635,106.05206107039626,85.55128943863713,63.16536379331245,26.36467358329565,61.51757169435649,8.788224527765237,59.32051556241515,30.75878584717816,1.0985280659706405,12.857941355689665,15.728528281554835,14.280864857618552,74.69990848600435,29.66025778120764,73.89591802364073,{}
184,88,208,0,6.933333333333312,39.77109432581378,166.53447829276433,8.333551603003762,21.49858045654173,42.73178691234634,48.308333050266,36.37452001425638,105.63895304467094,84.15051773562102,62.372189240441685,27.356223351070867,61.27794030639882,9.30111593936408,58.54231797129182,30.09184568617809,1.6413734010643566,14.22523614255681,14.392597619266684,13.130987208514,73.31467858087001,28.450472285113733,74.06214365345124,{}
185,88,209,0,6.9666666666666455,40.19936098054739,170.71991872687624,10.492742024587573,22.801436347953853,42.11644849331292,47.7519042089923,34.97580674862488,108.10862883891232,85.30799309771245,63.043831026699536,25.438738835334902,60.831766780148655,9.95428910947885,61.937798903424095,32.074931574987545,2.212064246550881,13.990322699449935,14.756309032873157,13.272385479305171,76.31621650600465,30.968899451712048,76.78762933048979,{}
186,88,210,0,6.999999999999979,41.35971738710904,168.36878027400218,9.134833418165574,20.426108486155123,43.25946035702236,46.49959043775898,35.03048705342994,105.61561135027692,85.18965035265657,62.588511548141696,26.586270392130928,59.81910838229464,9.96985139704907,59.81910838229476,32.12507672382492,1.107761266338798,14.012194821372008,14.57032460220744,13.84701582923492,72.00448231202137,31.01731545748612,75.40103820563759,{}
187,88,211,0,7.033333333333312,39.09079031741934,162.5750912801713,9.480909262799583,22.632640517795515,43.09126374252808,46.57914497058254,35.81973921038788,106.64255024690917,84.01206330992889,62.69559205679707,29.96072540767296,59.92145081534591,10.541736717514596,59.36662256705563,29.405897159382675,0.5548282482901641,11.95136622678673,11.585153943904023,10.541736717514482,69.90835928457017,32.180038400833894,68.78080277395239,{}
188,88,212,0,7.066666666666645,42.88028176549501,159.7983695493237,9.25413133848144,20.69286674555548,40.29096425920674,44.67821727533416,34.07584727208988,106.52305128448448,85.83395726588682,62.84478279371331,26.93347834016288,56.111413208672616,8.977826113387664,62.84478279371319,34.78907618937694,2.244456528346859,11.052666595000836,12.795370881622311,11.78339677382121,68.45592411458051,33.66684792520357,64.94396146964529,{}
189,88,213,0,7.099999999999978,37.75957023095134,161.27885857970563,10.062176138003458,24.020229394213896,39.72844953228175,44.34744468870094,37.42753043550152,108.81358677964508,84.80175996962028,64.77287511648012,32.975281877480825,60.06212056255436,10.010353427092356,60.650964881795176,30.03106028127729,1.7665329577222335,12.295430357807971,13.007996177867454,12.365730704055297,68.30594103192459,35.33065915444371,70.1194668123158,{}
190,88,214,0,7.133333333333312,33.28425576784619,161.8636065272934,10.897119658978909,22.735427197885247,42.18780898376745,45.67012085084566,38.717037394717856,105.51256246221354,82.77930252172828,65.00772180449178,34.27679876964112,61.46184606970132,10.046647915239646,56.143032467515695,26.59406801092848,1.7729378673952851,12.05365970964782,12.053659709647842,11.22860649350315,63.82576322622833,31.91288161311417,70.5422348636798,{}
191,88,215,0,7.166666666666645,29.071396943650488,153.6084828583578,10.996686220251563,23.44240865068379,40.02014944297041,43.649441755144665,38.53201470472622,101.80104685486158,78.36076702363287,63.17381155916587,35.933727675855835,59.11677778931119,9.273220045382232,53.32101526094732,23.18305011345524,1.1591525056726368,12.959718994867648,11.82108249131092,11.591525056727676,61.43508280065674,31.297117653164776,67.86736456990769,{}
192,88,216,0,7.199999999999978,27.96721800585572,153.8898202730849,9.576123256624776,21.031594165386245,42.38257931278807,44.87094074426464,39.90802354742198,98.3799832107554,77.35350292553677,62.70887806570215,37.16081663152716,60.386327026231584,9.290204157881815,48.77357182887931,20.90295935523397,0.0,14.364184884937163,14.127526437596003,13.354668476955055,61.54760254596687,33.67699007232153,70.45603185890037,{}
193,88,217,0,7.233333333333311,25.7804952908626,154.7936730917327,8.522329516058413,22.36489273721672,41.388090866487694,45.23246869141639,41.3880908664878,97.86511429222256,75.50349455638317,62.0434953895641,39.80148760839961,60.87286340108176,9.365055907858732,46.82527953929355,18.730111815717464,1.1706319884823415,14.479918011718592,13.088063514411331,12.291635879064586,59.70223141259936,32.777695677505506,72.02003520239343,{}
194,88,218,0,7.266666666666644,19.654507929958346,153.60637409001058,8.402356636650879,22.20056556661177,40.98460177468899,43.26147657842228,40.54345508427553,90.62118081060883,68.44620292443766,58.2846985284724,36.9328782754676,56.55346985930976,6.347838453595955,43.28071672906367,15.581058022463026,2.8853811152710023,11.770091688734755,11.77009168873481,10.964448238029432,57.70762230541817,32.31626849103418,66.28091604295626,{}
195,88,219,0,7.299999999999978,20.01353512836803,169.86635816396662,11.50977169151336,25.092730874725227,46.79456433604491,49.260810424946754,42.61085110560413,99.12878693211368,74.03608243698065,63.66891108191896,39.94912067885116,61.17209103949074,8.114665137891734,48.06378581674278,16.853535286390297,4.369435074249282,17.87451129734446,16.2772752259561,16.22933027578324,61.17209103949085,36.20389061520888,76.80512283918036,{}
196,88,220,0,7.333333333333311,20.07591645208374,167.75696071152618,11.54564715225412,23.92518200311597,45.70470713239349,48.17699144310226,41.628422815867,97.08364063241704,73.16055006908468,62.615063063778734,40.073640360818445,60.11046054122755,8.766108828928964,46.33514666719634,17.532217657858155,2.504602522551181,16.471451413754764,16.471451413754693,16.90606702722016,61.36276180250314,38.8213390995428,74.40398057189638,{}
197,88,221,0,7.366666666666644,25.30944696452809,159.6766719143133,8.512488202065303,20.606552079063714,43.75452058258382,47.19635450644304,39.89079493280381,94.27748818341692,73.6809823349373,60.79430513775367,39.726971674175616,55.376990818547824,7.825009572186104,46.348133619871646,19.863485837087865,0.6019238132450937,13.45942563691899,12.276885077731537,12.03847626490176,57.7846860715282,34.91158116821492,67.9401089810883,{}
198,88,222,0,7.399999999999977,30.829738497828544,156.09743773405674,8.632457081614499,20.29692762925056,41.77172245760852,45.44722714534439,40.47244631886949,99.94901860489443,79.66678116347971,64.03099534164403,39.13005270878239,54.54492195769672,6.521675451463807,52.766283198206565,26.67958139235168,1.7786387594901498,13.257190578785924,14.425382934883396,13.043350902927386,58.10219947667696,35.5727751898022,67.96169157452131,{}
199,88,223,0,7.4333333333333105,36.03671936639647,160.32271432923446,8.489221287187755,21.74301543236928,42.29302440733864,46.01439858877118,40.889504411987545,107.09212377631113,85.3747272164068,67.23120251863315,42.019501574145806,56.42618782813861,8.403900314829116,57.62674501597132,30.01392969581832,0.0,13.422637414349891,13.422637414349946,12.605850472243787,58.82730220380404,37.21727282281478,72.39270248256985,{}
200,88,224,0,7.466666666666644,33.17008235823823,158.09585303139372,8.624351593016424,21.45484791554188,42.909695831083546,45.265252403679874,40.27795714928936,103.17305991004886,81.77489044723455,65.15551891796804,41.46260294779779,54.49370673139151,7.700197690305345,55.086029630645726,29.02382206345851,0.5923228992542136,14.265024425109177,13.244742673622746,13.031103783593608,54.49370673139151,36.724019753763855,75.09196770439627,{}
201,88,225,0,7.499999999999977,27.613416789280645,158.69500992355682,9.67027649217447,19.191202849777937,42.134689040470754,44.638243813265774,40.79894121597787,97.22207771177374,78.04725626086787,64.17058452894503,43.180206412000416,53.97525801500046,7.796426157722294,48.57773221350044,23.389278473166883,0.5997250890555961,14.59194120074771,12.23203972754195,12.594226870166835,56.374158371222734,40.78130605577815,71.13255321302549,{}
202,88,226,0,7.53333333333331,16.233926038294094,164.73283017853478,9.96068232232733,19.92136464465466,43.86165282684451,45.09890733365561,44.89218856469888,90.96794564552692,71.06808977566507,62.876807159691566,44.82307045047321,56.02883806309149,5.602883806309137,40.4652719344549,15.563566128636468,4.3577985160181925,16.23392603829399,14.941023483491108,14.941023483490994,54.78375277280054,44.82307045047315,72.31148375654689,{}
203,88,227,0,7.566666666666643,14.153135607042143,154.6670376129764,9.508852267549551,18.87084747605627,40.16986909027852,41.43134208718865,41.29682438767093,83.77260241001254,64.91141232008044,57.79197039542203,42.45940682112632,49.53597462464745,4.7177118690140105,37.741694952112425,15.332563574295705,3.5382839017605647,14.202193416555902,14.153135607042143,13.563421623415366,50.71540259190101,42.45940682112644,75.52023803427116,{}
204,88,228,0,7.599999999999976,8.46800310534429,165.37123350420765,9.580451870236402,20.39365205730209,44.37427546698253,45.64874199544867,43.12866293776814,81.44264598336177,61.07538067275664,56.883932979528254,43.11203341606347,49.09981583496119,2.993891209448861,35.32791627149652,11.376786595905742,4.191447693228383,13.173121321574968,13.227443701818473,11.975564837795504,50.29737231874083,47.902259351181726,69.45827605921352,{}
205,88,229,0,7.63333333333331,8.417602354902021,165.50812961323234,11.90428741296614,22.649451492122825,45.29890298424565,46.56387548089949,41.68200860103541,84.52882351734014,61.90229454742405,57.73579395288584,44.04586342797484,47.61714965186468,4.166500594538093,38.688934092140016,12.499501783614503,5.3569293358348204,13.148715212856978,13.094716154262812,12.499501783614503,48.80757839316124,48.80757839316124,73.81618156789122,{}
206,88,230,0,7.666666666666643,8.410640134420877,162.95818742399132,11.894441346337544,21.44300908360952,44.02550361663174,47.59263111462572,41.64753330489503,83.33751861122609,61.89682594620525,57.688040529736895,47.57776538535006,46.38832125071633,5.352498605851906,36.2780461063295,12.48916341365441,4.163054471218175,13.137839876805682,13.137839876805682,11.299719279020678,47.57776538535012,48.76720951998385,71.40628520858895,{}
207,88,231,0,7.699999999999976,6.140612120821143,163.78114384646435,12.04273116518118,22.91285869504085,46.98208840626501,48.18597572332013,42.16675947023084,83.17334750887832,60.26180749759629,57.20297303461075,44.55810531117049,44.55810531117049,2.40854623303619,38.536739728579846,12.042731165181294,7.225638699108799,12.042731165181236,12.102795034866771,11.44059460692216,46.96665154420669,49.37519777724293,68.68580984100261,{}
208,88,232,0,7.733333333333309,9.32548364080867,153.8881409606411,11.656854551010952,22.17867836560123,40.8156401807832,43.146111469295725,38.485277866416666,81.63128036156628,59.46138540069055,54.78721638975105,41.96467638363913,39.63330547343696,2.3313709102022813,40.79899092853793,16.319596371415173,6.994112730606503,12.82254000611198,12.82254000611198,12.239697278561437,48.95878911424569,48.95878911424569,68.78531983189137,{}
209,88,245,1,8.166666666666641,50.59280455923351,172.69633843460505,9.132564546344014,25.63520847398308,47.74120613754669,53.62826557636363,31.74956376849161,116.70772362744675,91.08125855986384,64.75488156584697,21.58496052194903,50.36490788454762,4.796657893766451,79.14485524714621,44.3690855173395,4.796657893766337,14.035860305230138,14.43985242247479,13.79039144457846,70.75070393305504,35.974934203248324,71.75974951502585,{}
210,88,246,0,8.199999999999974,48.87185801008485,175.26393459303307,9.278864336503506,26.04587358359235,48.50599990434038,52.09174716718479,32.258178242926974,115.97620498389324,89.94542525360878,64.57385258182569,23.149116963296024,51.17173223465443,5.48268559657015,77.36678564048918,43.252297484052974,4.264311019554498,14.260708802817298,14.822166449876622,13.402120347171376,71.8841000439192,35.332862733451805,70.5080010113392,{}
211,88,247,0,8.233333333333308,46.245758315667246,174.6331227499815,9.255536994693466,23.597081872361127,48.38405437323105,51.9607869604632,32.42855678597243,110.88677310862018,87.31656137499074,63.19620044266901,21.87560784553932,48.612461878976205,3.645934640923201,74.13400436543873,42.535904144104165,6.07655773487204,15.372610220567411,14.784903081149338,13.976082790205623,70.48806972451558,35.24403486225782,75.12355701692927,{}
212,88,248,0,8.26666666666664,46.52489729605866,173.46515243646854,8.201766463417465,22.54449963021254,47.24230139958527,51.073880712196896,33.81674944531884,110.35025600726482,87.84360335248707,63.57765213896892,22.0076488173354,50.12853341726395,3.0566178912965825,72.74750581285866,42.18132689989284,5.501912204333848,13.940322414298848,14.874144622894406,14.06044229996428,72.13618223459935,37.90206185207762,75.38886387021944,{}
213,88,249,0,8.299999999999974,39.15589599156564,170.47111979618057,8.1923192051904,21.08185106778926,45.98738600841153,49.8169655057377,34.73560517631661,102.5986002901908,81.52169481999026,61.06194212060928,21.982299163419384,47.628314854075256,0.6106194212061382,66.55751691146406,38.46902353598375,7.938052475679115,11.585688927269874,12.454241376434387,11.60176900291583,67.16813633267026,36.63716527236562,76.34452308008174,{}
214,88,250,0,8.333333333333307,29.37208540245831,161.66695417456367,9.320464086299223,21.12670035337283,43.68257734809747,45.873481625066816,33.60541117427219,92.76974255955378,71.6545787558722,56.296497021378514,25.70057472715098,46.50580188722563,3.059592229422833,55.6845785754939,28.7601669565737,6.731102904729937,11.610336187593989,13.953887483248392,12.238368917690993,66.08719215553117,37.93894364484197,69.23066921889559,{}
215,88,251,0,8.36666666666664,18.015740756312407,152.06327133290935,9.882170908155874,21.703752389521323,41.026239411607065,43.55613277451175,34.93875031000705,84.4333052511515,62.72969639780402,53.32832157884116,29.95973122406804,47.93556995850895,4.194362371369607,44.939596836102055,18.575033358922155,5.392751620332206,11.36891865054235,12.221220330681456,11.38469786514588,62.31624094606161,34.753288219919,66.78802943674451,{}
216,88,252,0,8.399999999999974,12.050762294137598,153.8443944293765,11.110253871507158,23.02294903622919,39.03033366388633,42.60587868325944,38.86254067152604,84.90444087100127,61.882747120719166,55.433506553033226,33.74213442358541,49.40812540596437,3.0126905735345417,42.78020614418858,15.063452867671913,7.832995491189422,13.739983021487063,13.473161835191531,13.255838523551349,65.07411638834327,36.152286882412966,69.73841838556366,{}
217,88,253,0,8.433333333333307,13.320903862180916,151.56532164432883,9.945078946175911,23.040940948115683,41.2874047216094,43.833402908984105,38.7618002694545,84.9707917636051,61.93110708241398,54.87381759510652,33.768503135450146,49.44673673405202,3.015044922807988,42.81363790387434,15.07522461404028,6.633098830177801,14.917618419263798,14.671841826898136,13.869206644916972,65.1249703326539,39.79859298106629,68.40365518541634,{}
218,88,254,0,8.46666666666664,12.069179662768192,150.35698576399363,9.95250051282996,24.258750891956307,40.2828647036981,41.31821566114768,38.696733772849285,84.7940400267627,60.53869720221577,54.31130848245675,36.207538988304464,50.690554583626295,4.827671865107277,41.03521085341174,12.069179662768192,6.034589831384096,16.41585912477706,14.682790764824675,13.879556612183364,62.75973424639443,36.207538988304464,73.05593186666611,{}
219,88,255,0,8.499999999999973,14.582153502480429,152.0686677229677,9.9860128567336,23.13577738139504,41.45734353669408,43.86363126390621,38.82703451972948,86.39658086780317,63.26149228570415,55.7051690060614,36.32945804743133,50.86124126640391,4.843927739657488,42.38436772200316,13.32080128405812,4.843927739657488,16.156514163353343,13.539189629963923,13.32080128405812,61.760078680633285,36.32945804743133,72.10174643871258,{}
220,88,256,0,8.533333333333307,17.054247309029176,155.00055587487154,10.01968111159388,23.213780610555965,42.80409647217271,45.36603571340178,37.842978463392,88.02303861736407,64.80978471531579,55.89298128449877,36.45194431597747,51.032722042368505,6.075324052662836,43.74233317917299,14.580777726391034,3.6451944315978153,14.781901402783054,13.584837567093782,13.365712915858351,60.7532405266291,36.45194431597747,72.34484045529283,{}
221,88,257,0,8.56666666666664,16.76199505778075,153.64942973133145,9.84797758762156,23.914691426316853,42.222855569805866,44.44444444444447,36.00597178262562,86.39089286913823,62.51264524215379,53.740921490045935,34.63303829358517,50.15819339070947,6.5683348487833655,43.589858541926105,14.928033747234965,2.985606749447016,15.707810264122305,14.528589492593309,14.330912397345628,58.51789228916107,34.63303829358512,68.58322779270007,{}
222,88,258,0,8.599999999999973,18.261889489157216,162.15591273593924,11.69331472093437,25.858474403316208,45.490069805030814,48.05688304936953,41.40256711426183,97.15771447162726,71.3149582320669,61.9829082962998,38.739317685187416,54.23504475926234,5.165242358025012,50.36111299074355,19.369658842593708,5.165242358025012,20.821757611413403,19.36965884259365,19.369658842593594,64.56552947531225,41.321938864199865,71.31495823206701,{}
223,88,259,0,8.633333333333306,19.28881972279942,157.16992083300133,10.58049267558003,25.69352084969691,43.92535098162013,46.35074194496171,41.07838559486215,96.444098613997,70.7554088152386,60.94597710127334,41.058342468226215,55.172147691679015,7.0569026117264,48.11524507995273,17.321488228782982,3.207683005330182,20.68893373104705,19.24609803198109,19.24609803198109,62.87058690447151,41.05834246822627,69.71233203437494,{}
224,88,260,0,8.66666666666664,19.397196256376063,159.12900504693351,11.684003180713855,27.218534976857136,44.04003982393285,46.61116911535847,42.57931596301637,100.77426930317458,73.59135034618168,63.86897394452467,45.15988056683557,56.7724212840219,8.386834962412422,49.675868623519136,17.41881107577933,1.93542345286437,18.247347306505127,18.10997510954553,17.418811075779445,60.6432681897507,41.28903366110683,68.82177599406349,{}
225,88,261,0,8.699999999999973,16.898621762366474,158.92765583366676,11.771040643226002,27.421293584591552,45.66311273689143,48.1662906126078,45.496289360217474,101.46669674382991,74.10535865959898,65.64464607688512,48.09607732365839,58.4952291774224,7.799363890322979,48.09607732365839,16.898621762366474,2.5997879634409173,19.670965387858256,18.19851574408699,17.548568753226732,58.4952291774224,41.59660741505593,74.27617415782464,{}
226,88,262,0,8.733333333333306,14.217981106298566,156.58995335159503,11.704481345844965,27.14341847566084,44.022453382290855,46.60332719303412,45.23903079276806,98.2418272163456,71.10165495815447,63.98091497834344,49.11666200357672,56.87192442519415,7.755262421617431,45.23903079276806,14.217981106298453,2.585087473872364,20.841641516257788,18.14171586269985,18.095612317107225,58.16446816213039,42.65394331889564,69.90499078955133,{}
227,88,263,0,8.766666666666639,10.244577480306477,153.75400998246553,12.869591183501983,25.611443700766245,40.99831397900571,43.55828216430846,43.53945429130249,92.2100897563347,66.60206567786538,61.46746488183874,49.94231521649397,55.06460395664726,8.964005295268066,39.69773773618772,11.525149665344884,1.2805721850384089,17.97368712466854,16.647438405498008,16.00715231297886,56.34517614168561,42.2588821062642,69.25753012632867,{}
228,88,264,0,8.799999999999972,10.16465215296076,150.07929050728572,12.670581003289366,25.21539863968212,41.62450594686728,42.88471441381262,41.62450594686727,89.5235433920859,64.31162583289561,59.256186803253286,47.90925741539616,51.69156721134857,8.19500455789671,39.714252857499446,11.97731435384901,1.891154897976208,17.695749258363126,16.39000911579342,15.129239183809318,55.47387700730087,42.86617768745975,69.44542355053423,{}
229,88,265,0,8.833333333333306,21.37508882349596,149.64675234242816,11.316223494791984,22.63244698958397,40.25510274206084,42.76866421116266,42.7501776469918,98.07393695486373,75.44148996527974,64.75394555353182,50.29432664351987,52.809042975695775,8.801507162616076,46.52225214525584,20.11773065740784,1.1368683772161605e-13,17.781729712422106,17.60301432523198,16.34565615914397,54.06640114178384,42.75017764699186,68.00204009180467,{}
230,88,266,0,8.866666666666639,28.04019856693561,156.65507393943628,11.529677021361344,25.46479657238058,42.03620143029301,45.85431430686549,43.30887424059136,108.2328748195287,82.77038243329756,68.75495074542755,50.92959314476116,54.74931263061819,9.54929871464276,55.38593254492764,26.101416486690027,0.6366199143095628,19.267614860450013,16.601016306265958,16.552117772047325,57.29579228785627,47.109873658904064,71.40367101498913,{}
231,88,267,0,8.899999999999972,41.25262253877252,156.20822935779412,10.07383869106493,22.49110635013301,42.50157199833895,46.248600741215824,39.98418906690324,113.70503765900617,91.21393130887316,70.59708382125109,51.2297422419698,53.72875405865125,12.495059083407227,61.2257895086957,33.7366595251998,4.998023633362777,17.670682018407692,14.994070900088786,14.994070900088786,56.22776587533275,44.98221270026619,67.57736432276559,{}
232,88,268,0,8.933333333333305,43.33617705616791,156.0298897594533,8.667235411233492,22.287176771743475,44.59154712312096,47.066995494385374,38.40343650283562,112.68086330817673,90.39536383734809,68.71879504620904,50.765235980082366,53.24158895472044,13.61994136050987,60.67064787863501,34.66894164493431,7.429058923914454,15.063067085921585,13.619941360509928,13.61994136050987,55.71794192935869,45.81253003080599,66.96463219654257,{}
233,88,269,0,8.966666666666638,49.04077778983856,158.1755152835313,8.669266632464465,20.842330560681376,42.98068172286484,46.60486794320496,36.80101132692656,115.27191037470318,94.43533653715252,69.88310835052005,47.81475834509263,50.2667972345846,12.26019444745964,66.20505001628214,41.68466112136287,4.904077778983833,14.915170279835534,14.712233336951556,14.712233336951613,55.170875013568434,44.13670001085472,67.6091643752555,{}
234,88,270,0,8.999999999999972,45.074841323047735,159.6311454804136,9.821756451623468,20.74586184521641,43.92423016855463,48.72955818707874,35.32892968563203,110.88651612566233,90.15791361462632,67.61226198457155,47.51131923240166,51.16603609643255,14.009747978785072,61.521067211186846,35.938049162970515,5.482075296046332,9.821756451623482,10.964150592092722,10.35503111475424,53.60251400578659,41.4201244590169,65.96513650277852,{}
235,88,271,0,9.033333333333305,48.26107497723776,165.80715815751682,8.747313005788735,19.792909899374425,43.36762175755193,48.24521787972503,33.400535455194245,110.09806131527,90.30515141589558,66.18254247603306,43.2969904048814,47.00816101101407,11.752040252753543,64.94548560732221,42.67846197052597,4.329699040488208,16.27094273487227,16.081739293241696,15.463210858886214,55.66755909199048,47.00816101101418,66.8468721299693,{}
236,88,272,0,9.066666666666638,41.4380358650256,162.0303607530054,7.4102582664587,20.7458618452163,43.92423016855452,47.526935114247294,36.547168640309,105.99379019896251,85.27672682738773,64.56666459787925,43.85660236837077,45.074841323047735,7.918553205400258,61.521067211186846,37.15628811764759,1.827358432015444,16.023431719509723,13.400628501446649,13.400628501446649,54.82075296046349,40.20188550433989,68.49277000048083,{}
237,88,273,0,9.099999999999971,41.26311047464516,162.59563929479245,8.577886299315871,17.02661814495541,43.73880962559203,48.53901389928542,33.98835232568175,100.71622106473168,83.71243576426735,63.0810083331321,38.81908205115826,42.45837099345431,6.672029727542849,60.04826754788519,39.425630208207394,0.606548157049474,13.56282910789558,13.399086737839278,12.73751129803628,55.80243044853989,42.45837099345425,72.94734570142968,{}
238,88,274,0,9.133333333333304,34.86329949008041,160.0032517644777,8.500715684128753,20.4724343795719,43.34531515287673,46.90053696722914,34.88402062087868,98.64493614674085,78.1788596546634,60.71022842238142,37.26766497215488,43.278578677341216,5.409822334667638,58.30586294030695,35.46439086059911,1.8032741115558792,14.625184263505211,14.426192892447034,13.825101521928444,55.30040608771384,42.07639593630404,74.69028921749266,{}
239,88,275,0,9.166666666666638,35.27155851726263,159.4044018012347,8.600261451922275,18.284406652315,43.8529009653514,46.28187371228095,35.27155851726275,97.33125284853318,79.06629680173991,61.4211622455781,38.92034043284161,43.78538298694684,6.081303192631481,55.94798937220981,34.05529787873638,1.2162606385262509,14.796449278208764,14.645717511276722,13.986997343052453,55.94798937220975,41.35286170989417,74.35123744011081,{}
240,88,276,0,9.19999999999997,36.7262819066965,161.66981787346748,7.446575048640839,17.182597694888802,42.91722670089207,46.53606231237663,34.27786311291675,95.51971778420996,78.35896495318853,59.98626044760431,36.7262819066965,41.62311949425612,4.896837587559503,56.31363225693474,35.50207250980668,1.2242093968899326,14.741433236895832,14.741433236895832,14.078408064233656,56.31363225693468,41.62311949425612,74.92721583834465,{}
241,88,277,0,9.233333333333304,33.124938486738984,168.19029316020013,8.675136529763067,17.21965434065145,46.68481017138742,50.36064327823872,34.35178806032184,93.27284751973352,76.07456686693202,59.50220431877176,35.578637633904805,41.71288550181941,4.293973507540272,54.59480602444,33.738363273530354,3.067123933957305,14.92526923300514,13.55099645400567,13.49534530941213,53.98138123764864,39.25918635465354,74.99854970172183,{}
242,88,278,0,9.266666666666636,33.06207400434288,161.64189562746938,7.443368592827124,18.39597806951647,42.89874677016388,46.5642856241909,34.263103246435776,93.00790186165568,74.64461778687792,58.12490729306069,35.48678550523698,41.60519679924346,4.2828879058045,54.453860516656846,32.4275798582338,1.835523388201864,14.735085653745749,13.516012318787272,13.460504846814048,55.06570164605751,37.93415002283962,74.80492856007008,{}
243,88,279,0,9.29999999999997,28.36886041301989,164.27307233210703,8.721658075035167,19.77336649713514,47.01612815759744,49.39878148352117,34.623993942734856,91.4069711916353,71.63449852354776,57.35443518284444,33.302575267458,41.93657626272488,3.0835717840238885,53.654149042015774,28.985574769824662,4.317000497633444,13.79015224515543,13.623665430782411,12.951001492900332,57.97114953964916,39.46971883550583,74.262242555638,{}
244,88,280,0,9.333333333333304,26.8673361202348,164.986617622665,10.060236620102854,20.77555996527577,45.28750010223669,48.93637114415893,33.029783463710075,90.41052757883756,69.63527246612146,56.119212863410894,31.71955509671045,41.47941820339065,3.659948665005004,53.679247086740816,29.27958932004049,4.879931553340157,14.841732401538522,14.639794660020245,13.419811771685204,57.33919575174582,36.59948665005055,69.80605205421847,{}
245,88,281,0,9.366666666666635,36.33832156348987,169.6209583312583,9.11689079657084,20.075916452083742,46.487204075008826,50.23273678019913,33.9047702117479,99.21672381370632,79.14306188969209,60.73661117186544,28.8029290093383,42.578242883369626,1.8784518919134143,63.2412136944165,36.94288720762938,5.635355675740016,16.47145141375482,16.27991639658245,15.653765765944684,62.61506306377868,40.07364036081839,74.26684970500801,{}
246,88,282,0,9.39999999999997,38.64637639637142,170.1156219741498,8.810615433235707,20.091294393949006,46.37096459480509,48.8492811427383,35.08793719776359,102.5443605302298,82.47225509618332,62.923463784604905,28.6582112286319,43.61032143487466,1.24600918385363,66.03848674423864,41.1183030671674,6.230045919267695,15.158355951903848,16.2459721365655,14.952110206242764,64.79247756038518,39.87229388331394,75.26761850833886,{}
247,88,283,0,9.433333333333303,47.67630403778867,165.32750935525377,7.538285558904731,15.902030807283117,44.357542367988046,49.10022819127299,31.804061614566315,102.15698133083312,86.34545900502249,61.97919524912527,25.030059619839108,41.71676603306514,2.3838152018894334,67.9387332538488,46.484396436843895,3.575722802834207,13.589837555860376,13.325932093055396,12.515029809919495,61.97919524912521,34.565320427396784,69.95797057561653,{}
248,88,284,0,9.466666666666637,49.84259209495516,167.3647710616241,7.686305110283652,18.59069187935144,47.78508568057208,51.27405033789126,32.7232648623538,108.1080931386933,89.54627924185581,63.80385621615631,26.736854033437,43.75121569107864,3.645934640923315,71.70338127148989,47.39715033200173,3.645934640923088,14.224856955367816,13.423554784688678,13.3684270167185,65.62682353661796,34.0287233152834,72.53282319348682,{}
249,88,285,0,9.49999999999997,43.21288591770714,168.5597573162302,8.708552012646617,20.64981414817808,48.38376553411802,50.59565068615245,32.5404740244954,104.63946148175428,83.99075300786271,61.006792397315394,25.12044392830637,44.25982977844456,3.5886348469008453,68.18406209111731,41.867406547177325,4.784846462534574,14.796320525544695,13.21258914762634,13.756433579786858,64.59542724421635,33.49392523774179,68.85234452017926,{}
250,88,286,0,9.533333333333305,37.51299402515317,167.33027132335042,9.932311169343208,22.20932294833184,46.164353574848285,48.5537237913676,32.76511681244343,102.04637638549794,79.8409851529824,59.62124761342216,26.49833227263207,45.76984665272812,4.817878595024013,63.83689138406817,36.134089462680095,4.817878595024013,15.235469850447853,14.503735192780148,13.851400960694036,66.24583068158017,34.92961981392409,71.71400555522796,{}
251,88,294,1,9.799999999999969,25.03881174987907,165.7305952027133,8.387794573851368,20.354688742116068,44.04812428497151,46.41583177860564,35.56442483744468,88.80329240260596,68.45180431774166,55.01665795541044,26.2579503878095,41.26249346655777,1.250378589895604,53.766279365514606,28.758707567600823,7.502271539374078,16.68213109936424,16.446162620077374,15.629732373696186,66.27006526447155,40.01211487666211,66.6933701983026,{}
252,88,295,0,9.833333333333302,24.808255655662848,162.86247966420015,8.310560191670811,21.38612862395524,43.51927205351128,45.98843718050826,35.23694943783396,89.20689490994168,67.82150361484867,54.51006739106003,27.25503369553008,40.882550543295,0.6194325839893509,53.8906348070708,29.11333144749801,6.813758423882518,16.528522891918424,15.071445247744183,14.866382015743682,64.42098873488919,39.64368537531641,64.8484087556528,{}
253,88,296,0,9.866666666666635,24.66354788486532,158.7652919169378,8.933112489671002,21.182294416866505,41.88204033688879,45.55011490195216,33.93872990644935,88.56940552137745,67.38768492824708,53.990524253525,26.99526212676244,39.26583582074545,1.1368683772161605e-13,53.99052425352511,29.4493768655592,7.362344216389829,14.927797178204496,13.718918451333296,13.497631063381275,62.57992583931304,39.26583582074545,63.01151664905827,{}
254,88,297,0,9.89999999999997,25.640339036377974,156.05405600165292,7.6872986497452,20.80547177751528,42.61080112243527,43.82434502918604,33.90264299897231,87.73292716580912,66.98324050289465,52.872885812011305,26.740310065844824,38.89499645941066,0.0,53.48062013168965,29.17124734455797,6.0773431967829765,13.858474725730565,13.42528992676285,13.370155032922412,60.77343196782914,37.679527820054034,61.076543234533446,{}
255,88,298,0,9.933333333333303,25.54267074980712,152.10226135568087,8.514223583268992,20.610752992157764,41.00993141716718,43.414192194180565,32.754872122223794,87.13674550888487,66.6071362349766,52.37804752073112,26.490047021978967,37.32688444006124,0.602046523226818,53.58214056718475,29.500279638112943,6.62251175549477,12.279387880096422,12.100985353115126,12.040930464535904,59.00055927622583,37.32688444006124,59.30693042571325,{}
256,88,299,0,9.966666666666637,25.316230339531938,149.4825208316409,8.438743446510651,21.613729078331986,40.646370934928726,42.97963961458178,32.46449423830883,87.53544006211673,66.0166518880563,51.913706626774456,27.448626492317544,36.99597483747152,1.1934185431442756,53.703834441490926,29.83546357860609,5.967092715721151,12.17052887875199,10.806864539165986,11.337476159870334,57.284090070923696,36.99597483747152,57.59403763178718,{}
257,88,300,0,9.999999999999968,24.61492696484156,146.6062559216128,8.94878965647891,21.21946828692894,41.95554122847321,44.268657659522376,34.702081538289605,88.54584780259158,67.38273015539058,52.85606413650192,30.73026984680348,40.5639561977805,3.687632381616481,50.39764254875752,27.042637465187,3.687632381616368,13.742994468872896,12.292107938721358,12.9067133356574,59.00211810586256,38.10553461003627,55.65488577233904,{}
258,88,301,0,10.0333333333333,22.20699630592814,146.21473459137178,8.859427089403821,22.20699630592814,40.17731893348176,42.592756544198096,33.89991148246657,86.77870846511262,64.69247733293871,51.1113078530376,30.423397531570004,37.72501293914684,2.4338718025256867,49.8943719517747,25.555653926518744,3.65080770378836,13.605756997417982,13.386294913890822,13.386294913890822,58.41292326061438,37.72501293914678,57.51872994691072,{}
259,88,302,0,10.066666666666634,27.920634998230565,144.62973487030928,8.511755804088741,23.154479109374307,38.53861350390053,40.944995984072285,33.532429023233455,92.57096978426368,69.48429408803716,53.56661021498894,32.501089343925855,39.72355364257601,4.814976199100101,54.168482239876425,28.88985719460072,1.2037440497749683,14.644178404081975,13.241184547525393,13.843056572412875,58.98345843897664,40.92729769235115,55.698370153053794,{}
260,88,303,0,10.099999999999968,35.08375800618985,146.16170234846416,7.633219444826078,23.21553061226594,37.49224177233887,39.846575326880135,34.07272852187572,98.96727323469896,75.81520135508235,56.12168543187192,37.41445695458128,43.44904678596538,9.051884747076087,56.12168543187204,30.77640814005884,1.810376949415172,14.682790764824734,14.483015595321774,14.483015595321774,59.13898034756397,41.03521085341174,54.52544951409137,{}
261,88,304,0,10.1333333333333,39.58505362353781,143.39928575958342,7.266594562985067,21.5363325169675,38.24652658893661,41.81172755596788,33.72556454543831,100.97902756544656,79.6911461417852,57.93910818469829,37.0332444067144,40.61710676865448,7.765035117536854,60.328349759324965,36.4359340130577,1.791931180969982,13.356266438835036,11.94620787313363,12.543518266790327,54.95255621641479,39.42248598134108,56.46400141793908,{}
262,88,305,0,10.166666666666634,43.71642805909647,134.1634679291089,8.786495421842202,19.647201047229725,36.22764870326141,41.035210853411854,32.96455109783901,104.21511256488223,84.59625435905446,60.34589831384085,41.03521085341174,48.276718651072656,14.483015595321833,56.72514441501028,35.000621022027644,7.2415077976609155,15.874527365457688,15.73628501726821,16.293392544737003,59.13898034756397,43.44904678596538,53.22768218597208,{}
263,88,306,0,10.199999999999967,42.0842845329358,129.88167500414286,9.815657545621258,20.548166387985788,34.53989296931347,39.29870058989255,31.9397262774415,103.3595511408762,82.89642681104245,58.92100428975368,42.851639483457234,48.80325607838188,17.2596881252814,54.15971101381399,32.73389127208543,8.927424892386966,15.519917288190596,15.656258858470537,15.47420314680403,55.94519599229142,45.23228612142708,51.23923668139319,{}
264,88,307,0,10.2333333333333,29.391099720505945,139.75205005500376,11.607188782942394,24.21689435421187,41.565291837799634,45.34063239152578,37.0276064258068,102.00816855540704,77.86338943899709,61.06035483427843,49.10007914508992,50.35905553342559,14.478228465859845,49.72956733925764,23.291063184209293,5.665393747510393,12.589763883356396,11.33078749502073,11.33078749502073,52.87700831009676,41.546220815076026,53.25038541161653,{}
265,88,308,0,10.266666666666634,39.11683179519776,127.11030001401782,10.84905713625282,20.313776299729028,35.302363972021,40.078506380673815,33.220922973739135,102.75488027258255,82.4813794446972,60.60239148530286,48.24656409509544,50.600055026563496,18.827927451744586,50.600055026563496,29.41863664335085,10.590709191606264,14.16989182080136,15.34288374104925,15.886063787409457,51.77680049229758,45.89307316362738,54.18143011388962,{}
266,88,309,0,10.299999999999969,35.65002229102064,140.06605700313142,11.227391263319584,24.628107964653243,37.7512284663469,40.35251102449531,34.87195703871094,105.44188231403304,80.96186977919024,60.280187389812,47.49348097379129,45.0579178469302,14.613378761166588,56.017951917805135,31.66232064919427,6.088907817152744,15.831160324597136,14.664031872358493,15.831160324597136,53.58238879094404,46.2756994103608,49.98841278286216,{}
267,88,310,0,10.3333333333333,35.481548641305515,138.25606223966315,9.771670953292682,23.31379739757513,36.36079839554213,40.16181451519262,34.216951695340164,102.01923985659374,78.78172985700783,58.783290739459744,47.26903791420466,42.42093146146578,13.332292745032078,54.541197593313086,30.30066532961837,4.848106452738989,14.594733094677329,13.332292745032078,13.938306051624464,50.90511775375893,44.84498468783522,48.61722631237318,{}
268,88,311,0,10.366666666666632,30.55102667134072,136.08852311204288,10.005427209112542,23.338989167849,38.90252027573684,42.6224843777029,34.934814833138866,98.31019230311364,75.04070406834376,57.63347287054376,48.53345083835268,41.2534332125997,12.133362709588257,50.96012338027026,27.90673423205272,6.066681354794127,14.610503462629786,13.401737147987872,13.953367116026412,49.74678710931147,46.10677829643498,46.17059393707552,{}
269,88,312,0,10.399999999999968,26.474653643472685,146.36011826281197,11.506241713962265,24.006281384045245,38.769275651614,43.96528785701091,35.933646866726946,97.47403576571588,73.55952857640546,58.03326207468047,47.42503137285712,37.4408142417293,8.736189989736886,52.41713993842097,27.456597110601365,1.2480271413910486,13.72829855530074,12.542517542762416,13.104284984605272,53.66516707981202,53.66516707981202,57.4634849341293,{}
270,88,313,0,10.433333333333302,20.86160514331912,150.48429219211377,11.604641015441011,24.48337115629299,39.80965746276971,44.04024566675906,37.69058149302035,94.25041579535944,69.93380058274127,57.66831975986554,51.26072867543599,38.44554650657699,8.97062751820124,47.41617402477834,23.067327903946307,1.2815182168858428,15.378218602630795,14.327809236805988,14.096700385744953,52.54224689232194,56.38680154297964,56.38680154297958,{}
271,88,314,0,10.466666666666631,13.418472404191608,156.06394740192357,13.223520554106427,25.0346020926848,40.980030269466816,43.91662965336484,37.97597286753108,89.33813261456827,64.5139509059541,56.57894736842104,53.94736842105272,38.1578947368422,9.210526315789592,42.10526315789468,18.42105263157885,1.3157894736842763,15.789473684210575,16.27541694322757,15.78947368421052,51.31578947368422,59.21052631578948,55.27881983578952,{}
272,88,315,0,10.499999999999966,7.273888202473453,160.50367146934266,13.507271296203951,25.66381546278751,42.068157379801725,43.976489234750254,40.00068416806592,85.77914909502789,60.40635361768725,56.05517587924624,58.08126657367677,39.17108675899135,9.455089907342767,36.46963249975056,13.50727129620384,1.350727129620395,17.559452685065082,17.085496907927684,16.884089120254885,49.97690379595451,60.78272083291762,54.1808288965416,{}
273,88,316,0,10.5333333333333,1.3861841367818215,166.44025549482015,15.248025504599696,26.373951901558176,41.792934487883485,45.13088575166028,40.57993392223689,81.972605755496,55.878868986687614,55.44736547127161,60.99210201839878,38.81315582989009,9.703288957472523,31.882235145981213,8.317104820690702,0.0,18.02039377816328,18.8541426561144,18.713485846554192,48.516444787362616,63.76447029196231,53.12902211884942,{}
274,88,317,0,10.566666666666633,13.501342391453294,158.63248646187796,13.239155444945824,26.47831088989153,41.23311530658034,44.18785058152492,39.20668090482771,91.96211274326424,65.73077353471908,58.25228395776139,58.25228395776139,39.71746633483724,10.591324355956544,42.36529742382652,18.53481762292415,2.647831088989051,15.94205424336476,15.0949596873946,15.225028761687668,47.66095960180479,58.25228395776139,53.220746220156144,{}
