,video_id,frame_seq,time_seconds,m1,m3,m4,m5,m6,m7,m8,m9,m10,m11,m12,m13,m14,m15,m16,m17,e1,e2,e3,b1,b2,b3,label_measures
0,273,0,0.0,8.196972380562014,121.67823391659178,11.928346918351052,27.832809476152534,32.05646912228957,33.855404729901124,55.66561895230507,103.39812079923414,75.57235127779383,71.57008151010643,77.53425496928196,67.59396587065612,16.898491467663916,30.814896205740297,2.9820867295877638,8.94626018876329,21.958816341906783,19.979733815834823,20.8746071071144,61.62979241148054,61.62979241148054,71.57008151010655,"{'others': ['m1', 'm3', 'm12', 'e1', 'e2']}"
1,273,1,0.0333666666666666,12.175057465719874,122.02083153725933,10.145881221433228,28.480845798261083,30.505207884314768,34.733902393778564,58.88108648774803,109.65064611164696,81.1924105125227,75.079521038606,77.10869728289265,68.99199230574607,14.20423371000652,36.525172397159736,6.087528732859937,8.116704977146583,22.320938687153102,20.291762442866517,20.291762442866517,64.93363981717278,64.93363981717278,66.99355410120596,"{'others': ['m1', 'm3', 'm12', 'e1', 'e2']}"
2,273,2,0.0667333333333332,10.1417061762603,126.1654336047219,10.1417061762603,28.469125887966563,34.54140657704754,36.73482215354546,56.82976342375255,105.55172852785158,77.10365102102112,72.00611385144782,77.07696693957791,66.93526076331761,15.212559264390508,33.46763038165875,5.070853088130093,9.12753555863435,20.28341235252049,20.384577131473804,20.28341235252049,66.93526076331761,66.93526076331761,66.9659861543152,"{'others': ['m1', 'm3', 'm12', 'e1', 'e2']}"
3,273,3,0.1000999999999998,14.340130552484425,131.50927162976058,8.19436031570524,26.71034673962168,34.88623195944022,37.10154430969075,55.349855983345165,104.5584000278956,77.87337346668606,70.67635772295853,73.74924284134806,63.50629244671632,13.31583551302117,35.850326381210834,9.218655355168494,7.170065276242212,20.48590078926333,18.550772154845315,19.46160574980024,65.55488252564271,67.60347260456905,71.70065276242167,"{'others': ['m1', 'm3', 'm12', 'e1', 'e2']}"
4,273,4,0.1334666666666664,16.388720631410706,133.72445366572546,10.445800787797914,26.71034673962168,35.06621371437604,39.138258503522266,53.26334205208468,106.6054469127886,79.92127273802365,71.70065276242167,73.74924284134806,61.457702367790034,14.340130552484425,38.92321149960026,12.291540473557916,8.194360315705467,20.48590078926333,20.588075491871923,20.485900789263383,63.50629244671643,67.60347260456905,65.55488252564282,"{'others': ['m1', 'm3', 'm12', 'e1', 'e2']}"
5,273,5,0.166833333333333,18.33301898385093,136.85865137590508,10.185010546583952,26.55925810092164,34.867859625373725,38.91687065498421,50.96577649211268,106.00242696665768,79.46919338394873,70.27657277142885,71.29507382608722,61.11006327950338,15.27751581987593,39.7215411316771,13.240513710558956,9.16650949192558,20.370021093167736,18.445838627061708,18.333018983851048,61.11006327950332,65.18406749813687,67.2210696074535,"{'others': ['m1', 'm3', 'm12', 'e1', 'e2']}"
6,273,6,0.2001999999999996,20.46738785346895,139.55396898030435,8.186955141387557,26.920645616175022,37.06801595695946,41.13894044332068,51.2093880485549,106.60739132544968,79.84904855779213,69.58911870179429,69.58911870179429,59.35542477505976,13.303802104754824,41.958145099611215,15.350540890101684,9.210324534060987,22.514126638815757,18.5340079784797,18.42064906812197,63.4489023457536,67.54237991644737,73.7110177185873,"{'others': ['m1', 'm3', 'm12', 'e1', 'e2']}"
7,273,7,0.2335666666666662,20.480261100417124,141.68433503502288,10.240130550208503,26.702993485003503,39.12748389311012,41.16481534945452,49.19527534893015,106.57609884769312,79.89927072234099,69.63288774141802,69.63288774141813,59.39275719120951,15.360195825312758,41.98453525585512,15.360195825312871,9.216117495187632,20.480261100417124,18.54566519938908,19.456248045396197,63.48880941129295,67.58486163137638,71.71016539883199,"{'others': ['m1', 'm3', 'm12', 'e1', 'e2']}"
8,273,8,0.2669333333333328,20.260502648538814,142.34354948267517,8.353619244803237,26.41646351939393,36.52514058299054,40.7231063278411,48.62520635649332,103.40798593549874,77.01656400676066,66.85965874017836,66.85965874017836,54.703357151055,12.15630158912336,42.54705556193164,16.20840211883103,6.07815079456168,20.260502648538875,18.346665457477265,18.234452383684925,64.83360847532435,66.85965874017825,68.88570900503214,"{'others': ['m1', 'm3', 'm12', 'e1', 'e2']}"
9,273,9,0.3002999999999994,20.363420950074783,144.93835628272674,8.145368380029822,26.550652567176297,38.90426109931012,42.95668355349672,48.91461567668688,103.93327271946188,77.40778894797789,67.19928913524677,65.16294704023926,54.981236565201925,11.19988152254109,43.78135504266072,17.308907807563514,7.12719733252618,20.363420950074783,18.43986194329436,18.32707885506727,63.12660494523181,67.19928913524677,71.27197332526157,"{'others': ['m1', 'm3', 'm12', 'e1', 'e2']}"
10,273,10,0.333666666666666,20.56220361675092,147.66791648151494,10.230078655668764,28.717199259210837,39.08907565800285,41.12440723350187,49.1469843904078,108.6124131415366,79.89946850493646,69.56453485854752,67.51851912741381,57.28844047174505,13.299102252369494,46.035353950509375,17.391133714636794,5.115039327834438,20.460157311337525,16.495506181473832,18.41414158020376,61.380471934012576,67.51851912741381,73.65656632081505,"{'others': ['m1', 'm3', 'm12', 'e1', 'e2']}"
11,273,11,0.3670333333333326,18.16306436745998,140.76196253982783,12.034649497765711,32.15501803471225,34.33333618142492,40.315576865443234,50.18447237230749,112.48445817826128,80.33122279534793,71.20500952844668,68.19634715400525,58.16747257253394,13.037536955912742,49.14148544920977,17.049086788501427,5.0144372907356,20.05774916294274,16.54004368219141,17.049086788501313,62.17902240512251,66.19057223771102,72.20789698659382,"{'others': ['m1', 'm3', 'm12', 'e1', 'e2']}"
12,273,12,0.4003999999999992,26.291969551658912,129.62202933517975,10.08251006698174,30.314672414972883,34.51695450672375,40.53118884874629,52.429052348304936,119.04195516522655,88.74900042677126,75.61882550236294,74.61057449566476,62.51156241528668,16.132016107170784,50.41255033490859,20.16502013396348,10.08251006698174,22.18152214735977,18.260202363133462,19.156769127265303,64.52806442868302,70.57757046887207,76.65360483823001,"{'others': ['m1', 'm3', 'm12', 'e1', 'e2']}"
13,273,13,0.4337666666666658,28.202015418972337,127.30813039600744,10.271616210284623,32.29376433607636,36.31564738018956,40.73931890441919,54.38960116516091,124.95960441904596,92.68565833641368,78.56275723856584,76.54832756578196,66.47617920186337,17.122652218661756,53.38238632876903,21.15151156422928,9.06493352752682,20.1442967278374,20.244767658971785,20.1442967278374,64.46174952907961,68.49060887464708,72.51946822021455,"{'others': ['m1', 'm3', 'm12', 'e1', 'e2']}"
14,273,14,0.4671333333333324,28.07132158287527,122.72095049677112,12.03056639266083,30.14317836342727,34.32168759787002,38.30727470105677,52.17099962623059,122.37648146732624,92.25613427371088,78.19868155229551,78.19868155229551,68.17320955841149,21.05349118715651,49.12481277003178,19.04839678837959,13.03311359204929,20.050943987768107,18.15690201924613,19.048396788379705,66.16811515963468,70.17830395718829,70.17830395718829,"{'others': ['m1', 'm3', 'm12', 'e1', 'e2']}"
15,273,15,0.5004999999999991,28.50878933010472,122.60402965904298,10.181710475037336,30.61293424200417,34.85656200021089,38.74405069555343,57.0539303238705,126.31888126545871,95.7297392279838,81.45368380029913,81.45368380029913,71.2719733252618,19.345249902571027,49.89038132768314,17.308907807563514,13.236223617548603,20.363420950074783,20.766696157587106,20.363420950074783,63.12660494523181,71.27197332526174,63.12660494523175,"{'others': ['m1', 'm3', 'm12', 'e1', 'e2']}"
16,273,16,0.5338666666666656,24.18205064927417,117.313411629802,12.091025324637144,30.294661203946934,30.294661203946838,34.494169300565005,54.44691915137295,120.97740696065472,90.70507795880395,78.59166461014104,80.60683549758062,70.53098106038294,21.15929431811492,45.34134496738909,15.113781655796402,11.083439880917354,20.25221677407089,20.25221677407089,20.151708874395126,64.48546839806443,68.51581017294347,72.54615194782264,"{'others': ['m1', 'm3', 'm12', 'e1', 'e2']}"
17,273,17,0.5672333333333321,16.10910594897871,117.2241885886553,12.248483257881402,32.281076761437944,32.46894106382873,36.46853964976557,56.38187082142508,116.86043330301696,84.59677471957718,76.51825325764844,82.55916798851536,72.49097677040368,21.143201558034438,39.26594575063541,7.0477338526782205,13.088648583545137,20.23681389433675,20.23681389433667,20.136382436223244,62.42278555229211,68.46370028315908,70.47733852678152,"{'others': ['m1', 'm3', 'm12', 'e1', 'e2']}"
18,273,18,0.6005999999999987,12.09102532463703,115.4993572399545,12.257805966264955,32.30564691095085,32.49365420280971,34.494169300565005,56.46075857516655,113.01138705484912,80.70753114645709,74.56132283526199,80.6068354975805,68.51581017294347,18.13653798695566,38.28824686135079,6.045512662318515,10.075854437197563,22.16687976183465,20.55079135655631,20.151708874395126,64.48546839806443,68.51581017294342,76.57649372270134,"{'others': ['m1', 'm3', 'm12', 'e1', 'e2']}"
19,273,19,0.6339666666666652,10.271616210284623,121.46860595383082,12.086578036702464,32.29376433607636,34.481481749358394,36.48287304149775,56.54773560801675,111.08625352826073,78.7948486075399,73.52668305660643,80.57718691134949,68.49060887464702,18.12986705505364,36.25973411010728,4.0288593455675255,10.0721483639187,22.250102979630835,18.24143652074888,20.144296727837343,62.44731985629585,68.49060887464702,72.51946822021455,"{'others': ['m1', 'm3', 'm12', 'e1', 'e2']}"
20,273,20,0.6673333333333318,18.3137938918195,131.0080795087107,12.377606585862624,30.590743487572915,34.83129511786763,39.14142879282622,56.97624766343813,118.09237424947676,87.52289551722728,78.34234053722753,79.35977353121746,65.1157116153579,15.261494909849604,45.78448472954847,17.296360897829345,7.122030957929837,20.3486598797993,20.45015008484759,20.3486598797993,67.15057760333781,71.22030957929769,71.22030957929769,"{'others': ['m1', 'm3', 'm12', 'e1', 'e2']}"
21,273,21,0.7006999999999983,20.44411683640692,143.6335616649942,10.424495068700958,28.694685379782378,37.02587035254892,41.34566754900066,53.15470377465806,112.51696028356668,83.8458071722818,73.59882061106498,71.55440892742433,59.28793882558011,12.266470101844106,47.02146872373601,18.399705152766277,4.088823367281293,22.488528520047623,18.5129351762744,19.42191099458654,67.46558556014293,71.55440892742433,79.73205566198726,"{'others': ['m1', 'm3', 'm12', 'e1', 'e2']}"
22,273,22,0.7340666666666649,20.56947022166034,143.7970560869311,10.233693926734418,26.686208824509944,37.06801595695946,41.13894044332068,53.21520841901918,110.59967357046916,83.94124671730565,73.68259627248801,69.58911870179429,57.30868598971301,10.233693926734531,47.07499206297837,20.46738785346884,4.093477570693835,20.46738785346895,18.869999223971355,18.42064906812203,65.49564113110046,67.54237991644737,71.63585748714104,"{'others': ['m1', 'm3', 'm12', 'e1', 'e2']}"
23,273,23,0.7674333333333314,18.313793891819387,149.22658888363011,10.375821380255926,28.56070515656783,37.13281975758779,43.16602616719421,50.871649699498334,107.92465744195174,79.38585727014065,70.20287658530765,67.15057760333775,52.90651568747819,9.15689694590958,47.81935071752855,19.33122688580943,3.052298981969784,18.313793891819444,18.426495225654804,19.331226885809315,61.04597963939801,67.15057760333781,69.21536162237706,"{'others': ['m1', 'm3', 'm12', 'e1', 'e2']}"
24,273,24,0.800799999999998,20.45015008484762,153.48070296305872,14.388675389064682,28.56070515656783,37.13281975758779,43.16602616719421,50.91233075334016,114.24282062627113,85.68211546970328,75.2900415552574,69.18544359131772,52.90651568747819,10.17432993989962,52.906515687478304,22.383525867779326,2.0348659879799698,22.38352586777927,18.42649522565478,19.33122688580943,65.11571161535784,69.18544359131772,75.31753472453448,"{'others': ['m1', 'm3', 'm12', 'e1', 'e2']}"
25,273,25,0.8341666666666645,26.89003737207772,156.2337214947094,14.310881785484868,28.694685379782378,39.05843037367735,45.39330602828847,51.15116398246781,120.89717988988156,92.20274027873664,78.70984982016671,69.50999724378357,53.154703774657946,10.22205841820346,59.28793882558011,28.621763570969733,0.0,20.44411683640692,18.512935176274457,18.399705152766277,65.42117387650222,69.50999724378363,75.64323229470551,"{'others': ['m1', 'm3', 'm12', 'e1', 'e2']}"
26,273,26,0.867533333333331,28.416564761440014,158.55317560454932,14.31605850707331,28.416564761440014,42.708908057731136,46.96016349497439,50.77661964151,121.89684577707986,93.48287548758692,78.9592599916765,66.81168153141857,52.63950666111759,9.11068384519342,61.75019050631113,33.405840765709286,1.012298205021466,20.245964100429887,18.66585661046689,19.23366589540842,66.81168153141857,68.83627794146156,78.95925999167639,"{'others': ['m1', 'm3', 'm12', 'e1', 'e2']}"
27,273,27,0.9008999999999976,26.66666666666667,162.4002962101681,14.462030521243758,28.706310936477028,41.10881463290894,47.43898730305999,51.17188770705325,120.94616098169118,92.24009591342391,78.7417388549967,67.49291901856861,51.13099925649135,8.180959881038689,61.3571991077896,32.723839524154414,2.0452399702595585,20.45239970259655,18.52043563061388,18.407159732336822,67.49291901856861,69.53815898882829,79.76435884012653,"{'others': ['m1', 'm3', 'm12', 'e1', 'e2']}"
28,273,28,0.934266666666664,25.1377164300818,159.76179097445797,14.464152934961476,29.00200867948916,41.78848428706788,45.87947342857766,51.822730014026,120.29033919738352,91.29245198540444,78.51968736121933,68.18814955053256,53.72399661557108,9.298384029618092,58.88976552091447,27.89515208885416,1.0331537810686768,20.766133994461928,16.659104153209764,17.56361427816745,66.1218419883952,72.32076467480726,80.5859949233568,"{'others': ['m1', 'm3', 'm12', 'e1', 'e2']}"
29,273,29,0.9676333333333308,24.74401829665541,156.83182342296362,16.43903098364376,26.792342581942787,43.59056356751335,47.662559983650326,49.48803659331082,117.41614561432208,90.6245847990431,78.08539717230792,69.86588168048593,55.48172956979772,13.356712674210485,54.45429013332,25.68598591194336,3.0823183094331625,20.651277089671545,18.94504712356487,19.521349293076923,65.75612393457499,69.86588168048593,76.03051829935248,"{'others': ['m1', 'm3', 'm12', 'e1', 'e2']}"
30,273,30,1.0009999999999972,24.522372768456197,154.1342703097437,12.430314185830952,26.878454629611603,41.327858119705866,45.373753099962734,51.12913088704829,114.72930117863407,87.96683236056948,75.6106493694067,71.52358724133069,55.17533872902652,12.261186384228154,51.08827660095051,24.522372768456197,6.130593192114134,20.43531064038018,18.50496082661202,19.413545108361177,65.39299404921667,71.52358724133074,83.78477362555873,"{'others': ['m1', 'm3', 'm12', 'e1', 'e2']}"
31,273,31,1.0343666666666638,24.54287964311584,154.0596607972616,10.428718518333884,24.881418113127445,41.362418609198926,45.41169697580368,49.08575928623168,108.57123200139463,83.87977702321365,71.58339895908784,69.53815898882829,55.22147919701069,13.294059806687756,46.01789933084228,21.47501968772633,9.203579866168411,18.40715973233688,18.52043563061388,18.40715973233688,65.447679048309,69.53815898882829,73.65703956258476,"{'others': ['m1', 'm3', 'm12', 'e1', 'e2']}"
32,273,32,1.0677333333333303,24.63729193614396,150.04425360828583,10.230078655668764,22.5989823972166,41.12440723350187,43.40254793697091,47.10281941863771,104.52717718872016,81.94286617371301,69.56453485854752,69.56453485854752,55.24242474061134,15.3451179835032,41.94332248824185,19.43714944577061,9.207070790101966,20.562203616750946,16.495506181473832,17.391133714636908,65.47250339628005,69.56453485854752,71.61055058968145,"{'others': ['m1', 'm3', 'm12', 'e1', 'e2']}"
33,273,33,1.1010999999999969,12.57372436997011,149.53348025504246,8.268430212319117,24.89127110494596,39.76160768027129,41.8046631026227,49.65362733951767,95.2889499181246,70.40314636264057,64.0803341454731,68.21454925163266,53.74479638007426,11.3690915419387,34.10727462581633,9.301983988859092,7.234876435779142,18.71845501509023,18.71845501509023,19.63752175425782,64.0803341454731,68.21454925163266,78.57728109332379,"{'others': ['m1', 'm3', 'm12', 'e1', 'e2']}"
34,273,34,1.1344666666666634,8.35876759057148,146.6537446922616,10.136494610563432,20.374102014065045,38.73149152374254,40.99958336515282,48.69739120947637,87.38575529578875,67.02361841263134,62.84626658549337,66.90086442971881,52.709771974929936,11.150144071619708,27.36853544852147,7.095546227394493,5.068247305281602,20.27298922112692,18.357972529861257,18.2456902990142,64.87356550760614,66.90086442971881,72.98276119605703,"{'others': ['m1', 'm3', 'm12', 'e1', 'e2']}"
35,273,35,1.16783333333333,2.926263567078162,149.6834587089649,10.345904059100237,20.795009796401523,41.84659216578748,41.84659216578749,49.70342872344396,82.9996888807115,62.21321680906617,61.04083394869156,66.21378597824162,51.72952029550129,9.311313653190156,23.79557933593071,3.1037712177301278,5.172952029550061,20.69180811820047,18.737229171474358,19.657217712290503,68.28296679006166,72.42132841370176,76.55969003734185,"{'others': ['m1', 'm3', 'm12', 'e1', 'e2']}"
36,273,36,1.2011999999999965,4.556234224844916,151.6617008519506,10.389812588327707,20.47772595517632,41.20810977820819,43.224233111165525,46.90930241471033,81.91090382070517,61.43317786552886,59.090686799353534,65.20351646825213,48.90263735118901,10.188049448164406,24.451318675594507,4.075219779265694,6.112829668898712,20.37609889632876,18.451342311903392,18.33848900669591,65.20351646825208,67.24112635788498,75.39156591641654,"{'others': ['m1', 'm3', 'm12', 'e1', 'e2']}"
37,273,37,1.234566666666663,6.44156626400839,149.59142141511944,10.18501054658384,20.47161783859453,39.1825179071429,42.970606570604126,46.89531026106261,83.740361432108,63.2783484107586,60.09156222484489,65.18406749813676,48.88805062360257,10.18501054658384,26.481027421118142,6.111006327950349,6.111006327950236,20.47161783859453,18.445838627061708,19.351520038509307,61.11006327950327,67.22106960745361,71.29507382608699,"{'others': ['m1', 'm3', 'm12', 'e1', 'e2']}"
38,273,38,1.2679333333333296,10.383348078793496,149.542951912692,8.396053547607416,22.49213359385308,40.9299695537558,43.19733912586207,46.83586818517199,87.7755569599941,65.29009437487915,60.07209180272059,65.16294704023926,48.8722102801795,10.181710475037448,30.54513142511212,8.145368380029822,6.109026285022537,20.363420950074783,18.43986194329433,19.345249902571084,65.16294704023926,69.23563123025423,71.27197332526157,"{'others': ['m1', 'm3', 'm12', 'e1', 'e2']}"
