,frame_seq,m1,m3,m4,m5,m6,m7,m8,m9,m10,m11,m12,m13,m14,m15,m16,m17,e1,e2,e3,b1,b2,b3
0,177,5.0990195135927845,31.144823004794873,3.0,5.0990195135927845,8.06225774829855,9.0,8.06225774829855,21.213203435596427,16.1245154965971,13.5,14.0,11.0,4.5,8.5,3.5,2.5,4.123105625617661,4.123105625617661,3.5,10.0,13.0,10.04987562112089
1,178,4.123105625617661,30.14962686336267,4.0,6.082762530298219,8.06225774829855,9.0,6.324555320336759,20.396078054371138,14.317821063276353,12.0,13.0,10.0,5.5,8.5,2.5,2.5,4.0,3.0,3.5,8.0,11.0,10.0
2,179,3.0,29.068883707497267,3.1622776601683795,5.0,8.06225774829855,8.0,6.082762530298219,17.11724276862369,12.165525060596439,10.5,12.0,10.0,5.0,6.0,1.0,3.0,4.0,4.0,4.0,10.0,11.0,9.055385138137417
3,180,2.0,28.071337695236398,3.1622776601683795,6.082762530298219,7.0710678118654755,9.055385138137417,6.082762530298219,17.26267650163207,11.180339887498949,10.0,11.0,9.0,4.0,7.0,1.0,2.0,4.123105625617661,4.0,4.0,8.0,10.0,10.0
4,181,1.0,27.073972741361768,3.0,6.082762530298219,8.06225774829855,9.0,6.324555320336759,16.278820596099706,10.198039027185569,9.5,11.0,9.0,4.0,6.0,0.0,2.0,3.0,3.0,3.5,9.0,9.0,9.055385138137417
5,182,2.0,26.019223662515376,3.0,5.0,7.0,8.0,5.385164807134504,15.132745950421556,10.198039027185569,9.0,10.0,9.0,4.5,5.5,0.5,1.5,4.0,3.0,3.0,8.0,9.0,8.0
6,183,2.0,26.019223662515376,3.0,4.123105625617661,7.0,7.0,5.0990195135927845,14.142135623730951,10.04987562112089,9.0,10.0,9.0,4.5,4.5,0.5,1.5,3.0,3.1622776601683795,3.0,7.0,8.0,8.06225774829855
7,184,2.0,24.020824298928627,3.0,5.0,7.0,7.0710678118654755,5.385164807134504,15.132745950421556,10.198039027185569,9.0,10.0,9.0,4.5,5.5,0.5,1.5,3.0,3.0,3.5,7.0,8.0,8.0
8,185,1.0,24.08318915758459,3.0,5.0990195135927845,7.0710678118654755,7.0710678118654755,5.385164807134504,14.317821063276353,9.219544457292887,8.5,10.0,8.0,4.0,5.0,0.0,2.0,2.23606797749979,3.0,3.0,7.0,8.0,8.0
9,186,2.0,24.020824298928627,2.0,5.0,6.0,7.0,5.385164807134504,14.142135623730951,9.219544457292887,8.0,10.0,9.0,4.5,4.5,0.5,2.5,2.23606797749979,2.0,2.0,8.0,8.0,7.0
10,187,1.0,21.02379604162864,3.0,4.0,6.082762530298219,6.0,5.385164807134504,13.152946437965905,9.219544457292887,8.5,10.0,9.0,4.5,3.5,0.5,2.5,3.0,2.0,2.5,7.0,8.0,7.0
11,188,2.23606797749979,23.021728866442675,2.23606797749979,4.123105625617661,7.0,7.0,4.123105625617661,12.165525060596439,8.06225774829855,7.0,9.0,8.0,4.5,3.5,1.5,2.5,3.1622776601683795,3.0,3.0,6.0,7.0,8.0
12,189,1.0,20.0,3.0,4.123105625617661,6.0,5.0,3.1622776601683795,11.180339887498949,7.0710678118654755,6.5,7.0,7.0,4.0,4.0,0.0,1.0,3.0,2.0,2.0,7.0,7.0,8.0
13,190,1.0,19.1049731745428,2.23606797749979,5.0,5.0,6.082762530298219,4.123105625617661,12.165525060596439,7.280109889280518,6.5,9.0,7.0,4.0,4.0,1.0,2.0,2.0,3.0,3.0,7.0,7.0,8.0
14,191,1.0,19.026297590440446,3.0,4.123105625617661,6.0,5.0,4.47213595499958,12.36931687685298,8.246211251235321,7.5,9.0,8.0,4.5,3.5,0.5,2.5,2.0,2.0,2.5,7.0,7.0,7.0710678118654755
15,192,0.0,16.1245154965971,2.23606797749979,3.0,5.0,4.123105625617661,6.082762530298219,11.180339887498949,8.246211251235321,8.0,11.0,9.0,4.0,1.0,2.0,2.0,2.0,2.0,2.0,6.0,6.0,6.082762530298219
16,325,7.0710678118654755,46.2709412050371,4.123105625617661,8.246211251235321,12.041594578792296,13.038404810405298,10.04987562112089,29.427877939124322,21.213203435596427,17.5,13.0,8.0,0.5,18.5,9.5,2.5,2.23606797749979,2.8284271247461903,1.5,12.0,20.0,20.223748416156685
17,326,4.123105625617661,40.311288741492746,4.123105625617661,9.055385138137417,10.04987562112089,11.045361017187261,11.180339887498949,28.442925306655784,19.4164878389476,17.0,14.0,9.0,0.5,16.5,7.5,2.5,2.23606797749979,2.8284271247461903,2.0,12.0,20.0,19.235384061671343
18,327,4.0,37.33630940518894,4.123105625617661,8.06225774829855,9.219544457292887,10.04987562112089,11.180339887498949,27.294688127912362,19.235384061671343,17.0,14.0,9.0,0.5,15.5,7.5,1.5,2.0,2.8284271247461903,2.0,11.0,19.0,19.235384061671343
19,328,5.0,37.33630940518894,4.123105625617661,7.0710678118654755,10.04987562112089,11.045361017187261,10.198039027185569,26.30589287593181,19.235384061671343,16.5,13.0,8.0,0.5,15.5,7.5,2.5,1.4142135623730951,2.23606797749979,2.0,11.0,19.0,17.11724276862369
20,329,5.0,34.36568055487916,4.123105625617661,7.0710678118654755,9.055385138137417,10.04987562112089,10.198039027185569,26.30589287593181,19.235384061671343,16.5,14.0,9.0,1.5,14.5,6.5,1.5,2.23606797749979,1.4142135623730951,1.0,11.0,18.0,17.11724276862369
21,329,5.0990195135927845,29.614185789921695,3.0,5.0,7.0710678118654755,8.246211251235321,7.0710678118654755,20.09975124224178,15.132745950421556,12.5,6.0,12.0,2.0,11.0,5.0,1.0,2.23606797749979,2.0,2.0,16.0,8.0,15.297058540778355
22,330,3.0,34.23448553724738,4.123105625617661,8.06225774829855,9.055385138137417,10.04987562112089,9.219544457292887,24.331050121192877,16.278820596099706,14.5,12.0,8.0,1.0,14.0,6.0,2.0,2.23606797749979,2.23606797749979,2.0,10.0,17.0,16.1245154965971
23,331,4.0,33.24154027718932,3.1622776601683795,7.0710678118654755,9.055385138137417,9.055385138137417,10.198039027185569,24.331050121192877,17.26267650163207,15.0,12.0,8.0,0.0,14.0,6.0,2.0,2.23606797749979,2.23606797749979,2.0,9.0,16.0,16.1245154965971
24,331,6.0,27.65863337187866,2.23606797749979,5.0990195135927845,7.280109889280518,8.246211251235321,6.0,19.1049731745428,14.035668847618199,11.0,5.0,11.0,2.0,11.0,4.0,1.0,2.23606797749979,2.23606797749979,2.0,15.0,8.0,13.152946437965905
25,332,3.0,33.24154027718932,3.1622776601683795,7.0710678118654755,9.055385138137417,9.0,10.04987562112089,23.194827009486403,16.1245154965971,14.5,12.0,8.0,0.0,13.0,6.0,2.0,2.23606797749979,2.23606797749979,1.0,10.0,16.0,16.0312195418814
26,332,5.0,26.476404589747453,2.23606797749979,4.123105625617661,7.0710678118654755,7.280109889280518,7.0,18.110770276274835,14.035668847618199,11.5,6.0,11.0,1.5,9.5,4.5,0.5,2.23606797749979,2.0,2.0,15.0,7.0,13.038404810405298
27,333,4.0,32.2490309931942,3.1622776601683795,7.0710678118654755,9.0,9.055385138137417,8.06225774829855,22.20360331117452,15.132745950421556,13.0,10.0,6.0,0.0,14.0,6.0,3.0,1.4142135623730951,1.4142135623730951,1.5,9.0,15.0,15.132745950421556
28,333,4.123105625617661,25.495097567963924,2.0,5.0990195135927845,6.324555320336759,7.280109889280518,4.123105625617661,15.297058540778355,10.198039027185569,8.0,1.0,6.0,0.5,11.5,5.5,3.5,2.23606797749979,1.0,1.5,15.0,8.0,13.152946437965905
29,334,3.0,29.274562336608895,3.0,7.0710678118654755,8.06225774829855,9.055385138137417,9.219544457292887,22.20360331117452,15.132745950421556,13.5,12.0,8.0,1.0,12.0,5.0,1.0,1.4142135623730951,2.23606797749979,1.5,8.0,14.0,14.142135623730951
30,334,4.123105625617661,24.515301344262525,2.0,5.0990195135927845,6.082762530298219,7.0710678118654755,6.0,17.11724276862369,12.041594578792296,10.0,5.0,10.0,1.5,9.5,3.5,0.5,1.4142135623730951,2.23606797749979,2.0,13.0,6.0,13.152946437965905
31,335,3.0,29.274562336608895,3.0,7.0710678118654755,8.06225774829855,8.06225774829855,8.246211251235321,21.213203435596427,14.142135623730951,12.5,10.0,6.0,0.0,13.0,6.0,2.0,1.4142135623730951,2.8284271247461903,2.0,8.0,15.0,14.142135623730951
32,335,5.0,24.515301344262525,1.4142135623730951,4.123105625617661,6.324555320336759,6.082762530298219,6.0,16.1245154965971,12.041594578792296,9.5,4.0,9.0,0.5,9.5,4.5,1.5,1.4142135623730951,2.0,1.5,13.0,7.0,12.165525060596439
33,336,3.0,30.265491900843113,3.1622776601683795,6.082762530298219,7.0,8.0,8.06225774829855,20.223748416156685,14.142135623730951,12.5,10.0,6.0,0.0,12.0,6.0,3.0,2.0,2.23606797749979,2.0,8.0,14.0,14.142135623730951
34,337,3.0,27.294688127912362,3.0,6.082762530298219,7.0710678118654755,7.0710678118654755,8.246211251235321,20.223748416156685,14.142135623730951,12.5,11.0,7.0,1.0,11.0,5.0,1.0,2.0,2.23606797749979,1.5,8.0,14.0,13.038404810405298
35,338,3.1622776601683795,27.294688127912362,3.0,6.082762530298219,7.0710678118654755,7.0710678118654755,7.280109889280518,19.4164878389476,13.341664064126334,11.5,9.0,5.0,0.0,12.0,6.0,2.0,1.4142135623730951,1.4142135623730951,1.0,8.0,14.0,13.152946437965905
36,339,3.0,26.1725046566048,3.0,6.082762530298219,7.0710678118654755,8.06225774829855,7.280109889280518,19.235384061671343,13.152946437965905,11.5,9.0,6.0,0.5,11.5,5.5,1.5,1.0,1.4142135623730951,1.0,8.0,13.0,13.152946437965905
37,340,4.0,28.160255680657446,2.0,5.0990195135927845,7.0710678118654755,8.0,7.0710678118654755,18.110770276274835,13.038404810405298,11.0,8.0,5.0,0.5,11.5,6.5,1.5,0.0,1.4142135623730951,1.0,7.0,12.0,13.152946437965905
38,341,3.0,26.1725046566048,2.0,5.0990195135927845,6.082762530298219,7.0,8.246211251235321,18.24828759089466,13.152946437965905,11.5,9.0,6.0,0.5,10.5,4.5,1.5,1.0,1.4142135623730951,1.0,8.0,13.0,12.041594578792296
39,342,3.0,27.073972741361768,2.0,5.0990195135927845,7.0,7.0710678118654755,7.0710678118654755,17.11724276862369,12.041594578792296,10.5,8.0,6.0,0.0,10.0,5.0,2.0,1.0,1.4142135623730951,1.0,7.0,12.0,12.165525060596439
40,343,4.0,24.186773244895647,2.0,5.0990195135927845,6.0,7.0710678118654755,7.0710678118654755,18.110770276274835,13.038404810405298,11.0,9.0,6.0,0.5,10.5,5.5,1.5,1.0,1.4142135623730951,1.0,7.0,12.0,12.041594578792296
41,344,3.0,24.186773244895647,2.0,5.0990195135927845,6.0,7.0710678118654755,7.280109889280518,17.26267650163207,12.165525060596439,10.5,9.0,6.0,0.5,9.5,4.5,1.5,1.4142135623730951,1.4142135623730951,1.0,8.0,13.0,12.041594578792296
42,357,1.0,50.24937810560445,4.123105625617661,8.0,15.033296378372908,15.033296378372908,16.1245154965971,28.284271247461902,20.396078054371138,20.0,14.0,19.0,0.5,11.5,2.5,2.5,4.0,4.0,4.0,13.0,8.0,14.035668847618199
43,358,1.0,48.16637831516918,4.123105625617661,7.0710678118654755,14.035668847618199,15.033296378372908,15.132745950421556,26.476404589747453,19.4164878389476,19.0,13.0,17.0,0.0,11.0,3.0,3.0,3.0,3.0,3.5,11.0,6.0,14.035668847618199
44,359,1.4142135623730951,41.19465984809196,3.0,6.082762530298219,12.041594578792296,12.041594578792296,14.142135623730951,24.331050121192877,18.24828759089466,17.5,12.0,16.0,0.0,10.0,2.0,3.0,2.0,3.0,3.0,12.0,7.0,13.038404810405298
45,360,1.0,41.10960958218893,3.1622776601683795,6.082762530298219,12.041594578792296,12.041594578792296,13.152946437965905,23.345235059857504,17.26267650163207,16.5,12.0,15.0,0.5,9.5,2.5,2.5,2.0,2.0,2.5,10.0,6.0,11.045361017187261
46,361,1.0,40.11234224026316,4.0,7.0,11.045361017187261,11.0,12.165525060596439,23.194827009486403,16.278820596099706,16.0,12.0,15.0,1.5,9.5,1.5,2.5,2.0,3.0,2.5,10.0,6.0,12.0
47,362,1.0,40.11234224026316,3.0,6.0,11.045361017187261,11.0,12.165525060596439,21.213203435596427,15.297058540778355,15.0,11.0,14.0,0.5,8.5,1.5,2.5,2.0,2.0,2.5,9.0,5.0,11.045361017187261
48,362,0.0,21.0,2.0,3.0,6.0,6.0,6.0,11.0,8.0,8.0,8.0,8.0,2.0,3.0,0.0,0.0,3.1622776601683795,4.0,3.5,8.0,7.0,10.0
49,363,0.0,21.0,3.0,2.0,6.0,6.0,5.0,10.0,8.0,8.0,8.0,8.0,3.0,2.0,0.0,1.0,3.0,4.0,4.0,8.0,7.0,10.0
50,363,1.0,38.118237105091836,3.0,6.0,12.041594578792296,12.041594578792296,11.180339887498949,20.223748416156685,14.317821063276353,14.0,10.0,13.0,0.5,8.5,1.5,2.5,2.0,2.0,2.0,8.0,4.0,11.045361017187261
51,364,1.0,35.12833614050059,4.0,5.0,10.0,11.045361017187261,11.180339887498949,20.223748416156685,15.297058540778355,15.0,11.0,14.0,1.5,7.5,1.5,1.5,2.0,3.0,2.5,9.0,5.0,10.04987562112089
52,364,0.0,21.0,2.0,3.0,6.0,6.082762530298219,6.0,11.0,8.0,8.0,8.0,8.0,2.0,3.0,0.0,0.0,3.0,3.0,2.5,8.0,7.0,9.055385138137417
53,364,1.0,21.02379604162864,3.0,4.123105625617661,6.0,6.0,8.06225774829855,16.1245154965971,12.041594578792296,11.5,13.0,12.0,4.5,3.5,0.5,1.5,3.0,4.123105625617661,3.5,7.0,8.0,7.0
54,365,1.4142135623730951,34.132096331752024,3.0,5.0,10.04987562112089,10.04987562112089,10.198039027185569,19.235384061671343,14.317821063276353,13.5,10.0,13.0,1.5,7.5,1.5,1.5,2.0,2.0,2.0,8.0,4.0,10.198039027185569
55,365,0.0,20.0,2.0,3.0,5.0,6.0,5.0,10.0,7.0,7.0,7.0,7.0,2.0,3.0,0.0,0.0,3.0,3.0,3.0,8.0,7.0,9.055385138137417
56,366,1.4142135623730951,33.06055050963308,2.0,4.0,10.04987562112089,10.04987562112089,10.198039027185569,17.26267650163207,13.341664064126334,12.5,9.0,11.0,0.0,7.0,2.0,2.0,2.23606797749979,2.0,2.0,8.0,5.0,8.0
57,366,1.0,18.027756377319946,2.23606797749979,3.1622776601683795,5.0,5.0990195135927845,5.0,11.180339887498949,8.06225774829855,7.5,8.0,9.0,3.5,2.5,0.5,1.5,2.0,3.1622776601683795,2.5,6.0,6.0,7.0
58,367,1.0,32.0624390837628,3.0,4.0,9.055385138137417,9.0,9.055385138137417,16.1245154965971,12.165525060596439,12.0,9.0,11.0,1.0,6.0,1.0,2.0,1.0,2.0,2.0,7.0,3.0,9.055385138137417
59,367,1.0,18.027756377319946,1.0,2.0,5.0,5.0,5.0990195135927845,9.055385138137417,7.0710678118654755,6.5,8.0,7.0,2.5,1.5,0.5,1.5,2.0,2.0,2.0,6.0,6.0,8.06225774829855
60,368,0.0,30.14962686336267,3.0,4.123105625617661,9.0,10.04987562112089,9.219544457292887,16.278820596099706,12.165525060596439,12.0,8.0,11.0,0.5,6.5,1.5,1.5,1.4142135623730951,2.0,2.0,7.0,4.0,10.04987562112089
61,368,0.0,17.029386365926403,2.0,3.0,4.0,4.0,4.0,9.0,6.0,6.0,7.0,6.0,2.5,2.5,0.5,0.5,2.0,3.0,2.5,6.0,6.0,8.0
62,369,1.4142135623730951,29.154759474226502,2.0,4.0,8.0,9.055385138137417,9.055385138137417,16.1245154965971,12.165525060596439,11.5,8.0,11.0,0.5,6.5,1.5,1.5,1.0,2.0,2.0,8.0,4.0,10.04987562112089
63,370,1.0,28.071337695236398,2.0,4.0,9.0,9.0,9.055385138137417,15.132745950421556,11.180339887498949,11.0,8.0,10.0,0.0,6.0,1.0,1.0,1.0,1.0,1.5,7.0,4.0,7.0
64,371,0.0,28.160255680657446,2.0,4.123105625617661,8.06225774829855,8.0,8.246211251235321,14.317821063276353,10.198039027185569,10.0,7.0,10.0,0.5,5.5,1.5,1.5,2.0,1.0,1.5,7.0,4.0,7.0710678118654755
65,372,1.0,26.1725046566048,2.0,4.0,7.0,8.0,8.06225774829855,14.142135623730951,10.198039027185569,10.0,7.0,10.0,0.5,5.5,1.5,1.5,1.0,1.0,1.0,6.0,4.0,7.0
66,373,0.0,25.179356624028344,2.0,4.123105625617661,8.06225774829855,7.0710678118654755,8.246211251235321,14.317821063276353,10.198039027185569,10.0,7.0,10.0,0.5,5.5,0.5,1.5,2.0,1.0,1.5,7.0,3.0,7.280109889280518
67,374,1.0,24.186773244895647,2.0,4.0,7.0,7.0710678118654755,7.0710678118654755,13.152946437965905,9.219544457292887,9.0,6.0,9.0,0.5,5.5,1.5,1.5,1.0,1.0,1.5,6.0,3.0,8.06225774829855
68,375,0.0,24.08318915758459,2.23606797749979,3.0,7.0710678118654755,8.0,8.06225774829855,13.152946437965905,10.198039027185569,10.0,7.0,9.0,0.0,5.0,1.0,2.0,2.23606797749979,2.0,2.0,6.0,4.0,8.06225774829855
69,376,1.0,24.08318915758459,2.0,3.0,7.0710678118654755,7.0,7.0710678118654755,12.165525060596439,9.219544457292887,9.0,6.0,8.0,0.0,5.0,1.0,2.0,1.0,2.0,2.0,5.0,3.0,7.0
70,441,13.152946437965905,112.21853679316978,10.0,17.029386365926403,29.068883707497267,33.06055050963308,27.16615541441225,67.26812023536856,50.24937810560445,43.5,41.0,34.0,10.5,29.5,10.5,3.5,12.0,12.041594578792296,12.0,31.0,38.0,33.06055050963308
71,442,8.0,114.0701538527936,9.055385138137417,18.027756377319946,30.01666203960727,33.015148038438355,27.073972741361768,62.12889826803627,44.10215414239989,40.0,37.0,33.0,8.0,27.0,7.0,1.0,13.0,13.038404810405298,12.5,33.0,36.0,37.0
72,443,6.0,108.07404868885037,10.0,18.027756377319946,28.0178514522438,30.066592756745816,26.076809620810597,60.07495318350236,42.04759208325728,39.0,38.0,34.0,10.0,24.0,5.0,2.0,11.0,12.041594578792296,12.0,35.0,39.0,37.12142238654117
73,444,6.082762530298219,99.24716620639605,10.04987562112089,17.11724276862369,25.079872407968907,28.160255680657446,26.1725046566048,59.413803110051795,42.2965719651132,39.0,42.0,35.0,12.5,20.5,2.5,4.5,11.045361017187261,13.038404810405298,12.0,31.0,41.0,36.22154055254967
74,445,4.123105625617661,96.13012014972206,10.04987562112089,15.132745950421556,25.079872407968907,27.073972741361768,26.30589287593181,55.57877292636101,40.44749683231337,38.0,38.0,33.0,9.5,19.5,3.5,1.5,12.041594578792296,13.152946437965905,12.5,34.0,42.0,35.22782990761707
75,446,4.47213595499958,93.13431161500041,10.04987562112089,16.1245154965971,25.079872407968907,27.073972741361768,27.459060435491963,57.87054518492115,41.773197148410844,39.0,39.0,34.0,9.5,20.5,3.5,1.5,13.0,14.035668847618199,13.5,35.0,43.0,37.21558813185679
76,447,4.123105625617661,94.19129471453293,10.04987562112089,14.142135623730951,26.076809620810597,27.018512172212592,28.442925306655784,56.71860364994893,42.579337712087536,40.0,41.0,35.0,10.0,18.0,3.0,3.0,11.045361017187261,12.041594578792296,11.5,34.0,43.0,38.3275357934736
77,448,7.280109889280518,93.1933474020544,11.045361017187261,15.132745950421556,26.076809620810597,27.073972741361768,26.30589287593181,59.682493245507096,44.553338819890925,40.5,42.0,36.0,13.0,20.0,4.0,4.0,13.0,13.152946437965905,13.0,34.0,44.0,38.3275357934736
78,449,9.219544457292887,93.1933474020544,11.045361017187261,16.0312195418814,27.018512172212592,29.068883707497267,27.16615541441225,63.387695966961914,47.38143096192854,42.5,42.0,36.0,12.0,24.0,7.0,3.0,12.0,12.165525060596439,12.0,34.0,44.0,38.3275357934736
79,450,15.033296378372908,93.1933474020544,9.055385138137417,15.132745950421556,25.079872407968907,27.073972741361768,29.614185789921695,68.73136110975832,53.600373133029585,45.5,45.0,39.0,13.0,26.0,10.0,6.0,14.035668847618199,14.035668847618199,13.5,34.0,45.0,40.311288741492746
80,451,7.0710678118654755,92.34717104492157,10.0,15.033296378372908,26.076809620810597,28.071337695236398,27.65863337187866,59.53990258641679,44.553338819890925,40.5,44.0,36.0,13.0,19.0,4.0,5.0,13.038404810405298,13.038404810405298,12.5,33.0,45.0,33.54101966249684
81,452,4.0,92.19544457292888,9.055385138137417,14.035668847618199,25.079872407968907,26.076809620810597,27.459060435491963,54.45181356024793,40.44749683231337,38.0,42.0,36.0,12.0,15.0,1.0,4.0,14.035668847618199,14.142135623730951,14.0,33.0,43.0,37.33630940518894
82,453,4.123105625617661,92.26592003551474,10.04987562112089,14.142135623730951,24.08318915758459,25.079872407968907,27.294688127912362,55.57877292636101,41.43669871020132,39.0,43.0,36.0,12.5,15.5,1.5,4.5,14.035668847618199,14.035668847618199,13.5,34.0,45.0,37.33630940518894
83,454,5.0990195135927845,94.33981132056604,8.06225774829855,12.041594578792296,25.079872407968907,27.16615541441225,30.4138126514911,55.57877292636101,43.56604182158393,40.5,45.0,37.0,11.0,14.0,2.0,5.0,14.035668847618199,14.035668847618199,14.0,33.0,44.0,38.3275357934736
84,455,4.123105625617661,92.34717104492157,8.06225774829855,12.041594578792296,25.179356624028344,26.1725046566048,30.265491900843113,54.45181356024793,42.42640687119285,40.0,45.0,37.0,11.0,13.0,1.0,5.0,14.0,14.035668847618199,13.5,31.0,41.0,40.311288741492746
85,456,5.385164807134504,91.44397191723465,9.055385138137417,12.041594578792296,24.08318915758459,26.1725046566048,30.265491900843113,56.568542494923804,44.553338819890925,41.5,47.0,38.0,12.5,13.5,1.5,6.5,15.033296378372908,15.132745950421556,15.0,31.0,41.0,38.47076812334269
86,457,3.1622776601683795,92.34717104492157,10.04987562112089,13.152946437965905,25.179356624028344,26.1725046566048,27.294688127912362,53.600373133029585,40.44749683231337,38.5,45.0,37.0,14.0,12.0,0.0,6.0,14.035668847618199,15.033296378372908,14.5,34.0,44.0,39.319206502675
87,458,11.0,94.19129471453293,8.06225774829855,10.198039027185569,24.08318915758459,24.08318915758459,29.614185789921695,58.69412236331676,48.507731342539614,42.5,44.0,38.0,12.0,17.0,6.0,6.0,14.035668847618199,15.033296378372908,15.0,34.0,44.0,35.510561809129406
88,459,10.04987562112089,93.34345183246653,9.055385138137417,11.180339887498949,25.079872407968907,26.1725046566048,29.614185789921695,59.841457201508724,48.662100242385755,43.0,47.0,39.0,14.0,16.0,5.0,7.0,15.033296378372908,14.142135623730951,14.5,33.0,43.0,34.52535300326414
89,460,4.123105625617661,93.43446901438462,9.055385138137417,12.041594578792296,25.079872407968907,25.179356624028344,30.59411708155671,55.731499172371095,43.73785545725808,41.0,47.0,38.0,12.5,12.5,0.5,5.5,14.035668847618199,14.035668847618199,13.5,33.0,45.0,36.345563690772494
90,461,4.0,93.43446901438462,9.055385138137417,12.165525060596439,24.186773244895647,24.186773244895647,30.59411708155671,55.731499172371095,43.56604182158393,41.0,48.0,39.0,13.5,11.5,0.5,6.5,15.033296378372908,16.0312195418814,16.0,32.0,43.0,37.21558813185679
91,462,1.4142135623730951,92.34717104492157,9.219544457292887,10.04987562112089,24.186773244895647,25.179356624028344,29.427877939124322,49.8196748283246,39.81205847478876,38.5,47.0,39.0,14.0,6.0,3.0,7.0,15.033296378372908,14.035668847618199,14.0,32.0,43.0,34.52535300326414
92,463,2.0,92.34717104492157,10.04987562112089,10.04987562112089,24.08318915758459,25.179356624028344,27.459060435491963,49.49747468305833,39.45883931389772,38.0,47.0,39.0,16.0,6.0,3.0,7.0,15.033296378372908,15.033296378372908,14.0,31.0,41.0,32.7566787083184
93,464,2.0,93.34345183246653,11.180339887498949,10.198039027185569,25.179356624028344,25.317977802344327,26.30589287593181,49.64876634922564,39.45883931389772,38.0,46.0,38.0,16.0,7.0,3.0,7.0,15.033296378372908,16.0312195418814,15.5,30.0,41.0,36.49657518178932
94,465,2.23606797749979,95.33624704172071,9.0,10.04987562112089,24.08318915758459,25.179356624028344,30.265491900843113,50.48762224545735,40.44749683231337,39.5,48.0,40.0,14.0,6.0,3.0,7.0,16.0312195418814,16.0,16.0,30.0,41.0,33.37663853655727
95,466,1.0,92.43916918709297,9.055385138137417,10.04987562112089,22.090722034374522,23.194827009486403,30.265491900843113,50.35871324805669,40.311288741492746,39.5,49.0,40.0,14.5,5.5,3.5,6.5,15.132745950421556,15.033296378372908,14.5,30.0,41.0,38.3275357934736
96,467,3.0,93.43446901438462,8.06225774829855,10.198039027185569,23.08679276123039,24.186773244895647,30.265491900843113,51.478150704935004,41.30375285612676,39.5,49.0,40.0,14.5,6.5,2.5,7.5,16.0312195418814,15.0,15.5,31.0,42.0,37.8549864614954
97,468,2.0,92.43916918709297,8.06225774829855,10.04987562112089,24.186773244895647,25.179356624028344,30.4138126514911,50.48762224545735,40.44749683231337,39.0,48.0,39.0,13.5,6.5,2.5,7.5,14.142135623730951,15.033296378372908,14.5,30.0,40.0,36.345563690772494
98,469,1.4142135623730951,92.43916918709297,9.055385138137417,9.055385138137417,23.194827009486403,25.179356624028344,31.25699921617557,50.48762224545735,41.43669871020132,40.5,51.0,42.0,15.5,3.5,4.5,8.5,16.1245154965971,15.033296378372908,15.0,31.0,41.0,41.593268686170845
99,470,3.0,93.43446901438462,10.04987562112089,9.055385138137417,26.1725046566048,27.294688127912362,28.160255680657446,50.24937810560445,41.19465984809196,39.5,49.0,40.0,16.5,5.5,2.5,8.5,16.0312195418814,16.0312195418814,15.5,30.0,41.0,36.49657518178932
100,471,2.0,98.2496819333274,11.180339887498949,11.045361017187261,27.294688127912362,28.284271247461902,27.018512172212592,51.15662224971465,40.11234224026316,39.0,46.0,39.0,15.5,8.5,1.5,7.5,13.038404810405298,13.038404810405298,13.0,31.0,41.0,36.49657518178932
101,472,0.0,90.13878188659973,11.045361017187261,9.0,25.179356624028344,26.1725046566048,28.284271247461902,48.25971404805462,39.319206502675,39.0,47.0,42.0,16.5,3.5,5.5,8.5,14.142135623730951,15.033296378372908,15.0,31.0,41.0,35.35533905932738
102,473,0.0,91.26883367283708,9.055385138137417,8.06225774829855,23.08679276123039,24.08318915758459,29.068883707497267,46.17358552246078,38.118237105091836,38.0,47.0,40.0,14.5,2.5,5.5,7.5,15.132745950421556,15.033296378372908,15.0,31.0,41.0,41.30375285612676
103,474,1.0,88.20430828479978,10.198039027185569,9.055385138137417,24.08318915758459,24.08318915758459,28.071337695236398,46.2709412050371,37.21558813185679,37.5,47.0,41.0,16.0,2.0,7.0,8.0,14.035668847618199,15.033296378372908,15.0,30.0,40.0,42.42640687119285
104,475,1.0,98.2496819333274,9.055385138137417,9.055385138137417,26.076809620810597,26.1725046566048,27.073972741361768,45.27692569068709,36.22154055254967,36.0,46.0,39.0,15.5,2.5,6.5,8.5,16.1245154965971,16.0312195418814,16.0,29.0,42.0,39.20459156782532
105,476,1.0,91.19758768739445,9.055385138137417,9.0,22.090722034374522,23.194827009486403,29.427877939124322,47.265209192385896,38.3275357934736,38.0,46.0,40.0,14.0,4.0,4.0,7.0,15.033296378372908,15.0,15.0,29.0,39.0,42.2965719651132
106,477,2.23606797749979,94.33981132056604,9.055385138137417,10.04987562112089,24.186773244895647,24.331050121192877,29.274562336608895,50.24937810560445,40.19950248448356,39.0,49.0,41.0,16.0,5.0,4.0,9.0,13.038404810405298,14.035668847618199,14.0,29.0,41.0,40.44749683231337
107,478,2.23606797749979,90.35485598461214,10.0,11.045361017187261,24.186773244895647,25.179356624028344,30.265491900843113,53.150729063673246,42.1070065428546,41.0,50.0,42.0,16.0,7.0,3.0,9.0,13.038404810405298,15.033296378372908,14.0,30.0,39.0,36.49657518178932
108,479,5.0990195135927845,92.43916918709297,11.045361017187261,13.038404810405298,24.186773244895647,25.179356624028344,28.160255680657446,57.14017850864661,44.10215414239989,41.5,52.0,43.0,19.5,9.5,1.5,10.5,14.035668847618199,14.0,14.0,28.0,39.0,38.63935817272331
109,480,5.0,91.54780172128658,10.0,11.045361017187261,22.20360331117452,23.194827009486403,28.160255680657446,54.147945482723536,43.104524124504614,40.5,51.0,41.0,18.0,8.0,2.0,10.0,14.035668847618199,14.035668847618199,14.0,29.0,39.0,38.63935817272331
110,481,2.23606797749979,89.1403387922662,10.04987562112089,12.0,24.08318915758459,25.079872407968907,28.160255680657446,52.08646657242167,40.11234224026316,39.0,46.0,41.0,15.5,8.5,2.5,7.5,12.165525060596439,13.038404810405298,13.0,29.0,38.0,36.49657518178932
111,482,3.1622776601683795,95.02105029939419,12.041594578792296,11.0,25.019992006393608,26.019223662515376,24.515301344262525,50.24937810560445,39.319206502675,37.5,44.0,42.0,19.0,7.0,4.0,8.0,10.0,11.0,11.0,29.0,35.0,39.319206502675
112,483,3.1622776601683795,93.53608929178085,9.0,10.04987562112089,23.194827009486403,23.194827009486403,29.274562336608895,51.35172830587107,41.30375285612676,39.5,52.0,42.0,18.0,4.0,4.0,11.0,13.038404810405298,14.0,13.5,27.0,39.0,39.6232255123179
113,484,2.8284271247461903,91.08786966440702,9.055385138137417,9.055385138137417,23.08679276123039,24.020824298928627,28.284271247461902,48.16637831516918,39.11521443121589,38.0,45.0,41.0,15.0,5.0,4.0,8.0,13.0,15.033296378372908,14.0,28.0,38.0,39.319206502675
114,485,2.23606797749979,96.0,10.0,11.045361017187261,26.0,26.0,25.96150997149434,44.28317965096906,33.54101966249684,34.0,42.0,42.0,17.0,2.0,9.0,7.0,10.0,12.0,11.5,29.0,34.0,41.30375285612676
115,486,2.0,92.26592003551474,9.055385138137417,8.06225774829855,23.194827009486403,24.08318915758459,29.068883707497267,44.181444068749045,36.124783736376884,37.0,47.0,40.0,14.5,0.5,6.5,7.5,14.035668847618199,14.035668847618199,14.0,26.0,38.0,38.47076812334269
116,487,2.0,91.35097153287424,10.04987562112089,9.055385138137417,23.194827009486403,23.08679276123039,30.066592756745816,47.16990566028302,38.118237105091836,39.0,48.0,40.0,14.0,3.0,5.0,7.0,13.038404810405298,14.035668847618199,13.5,27.0,39.0,40.607881008493905
117,488,1.0,88.56635930193812,9.055385138137417,10.198039027185569,22.360679774997898,23.194827009486403,29.274562336608895,48.373546489791295,38.2099463490856,38.0,48.0,38.0,14.0,5.0,4.0,8.0,13.038404810405298,13.038404810405298,13.0,28.0,39.0,43.73785545725808
118,489,1.4142135623730951,90.19977827023745,11.180339887498949,10.04987562112089,24.186773244895647,25.179356624028344,26.1725046566048,48.25971404805462,38.2099463490856,37.5,45.0,39.0,16.0,6.0,4.0,8.0,11.180339887498949,13.0,12.5,28.0,38.0,42.42640687119285
119,490,1.0,90.27181176868004,10.198039027185569,10.04987562112089,22.20360331117452,23.08679276123039,28.284271247461902,47.51841748206689,37.48332962798263,37.5,45.0,38.0,13.5,5.5,3.5,6.5,13.038404810405298,15.033296378372908,14.5,27.0,38.0,44.553338819890925
120,491,0.0,95.524865872714,11.180339887498949,9.055385138137417,26.1725046566048,26.1725046566048,27.294688127912362,47.51841748206689,38.47076812334269,38.0,48.0,38.0,16.0,4.0,4.0,8.0,14.035668847618199,14.0,14.5,28.0,40.0,45.27692569068709
121,492,2.0,92.26592003551474,11.045361017187261,9.055385138137417,23.194827009486403,24.186773244895647,27.294688127912362,49.36598018878993,40.311288741492746,39.0,47.0,40.0,16.5,5.5,3.5,7.5,14.142135623730951,14.035668847618199,14.0,30.0,40.0,40.607881008493905
122,493,1.0,94.53041838477179,9.219544457292887,8.06225774829855,24.186773244895647,24.186773244895647,27.294688127912362,44.721359549995796,36.6742416417845,36.0,47.0,37.0,15.0,2.0,5.0,8.0,14.035668847618199,14.035668847618199,14.0,30.0,41.0,38.2099463490856
123,494,1.4142135623730951,97.41663102366043,11.045361017187261,9.055385138137417,25.079872407968907,26.30589287593181,25.495097567963924,46.69047011971501,37.656340767525464,36.5,45.0,36.0,15.5,5.5,2.5,6.5,14.035668847618199,15.0,15.0,29.0,41.0,42.2965719651132
124,495,2.23606797749979,93.43446901438462,11.045361017187261,11.045361017187261,25.179356624028344,26.1725046566048,25.495097567963924,49.64876634922564,38.63935817272331,37.0,48.0,39.0,18.5,5.5,4.5,9.5,13.152946437965905,13.0,13.0,30.0,40.0,33.24154027718932
125,496,1.4142135623730951,94.42986815621421,10.04987562112089,10.04987562112089,26.076809620810597,26.1725046566048,27.459060435491963,48.662100242385755,38.63935817272331,37.5,46.0,37.0,14.5,6.5,3.5,6.5,13.152946437965905,13.0,13.0,30.0,42.0,32.38826948140329
126,497,4.123105625617661,96.42095207992918,10.04987562112089,10.198039027185569,28.160255680657446,29.274562336608895,25.709920264364882,50.00999900019995,39.81205847478876,37.0,45.0,36.0,15.5,8.5,0.5,7.5,15.033296378372908,14.035668847618199,13.5,32.0,43.0,33.54101966249684
127,498,3.1622776601683795,95.42536350467836,8.06225774829855,11.045361017187261,24.08318915758459,25.179356624028344,28.635642126552707,50.80354318352215,39.81205847478876,37.5,44.0,35.0,11.5,10.5,0.5,5.5,16.0,15.132745950421556,15.0,33.0,44.0,38.3275357934736
128,499,3.1622776601683795,100.24470060806208,10.198039027185569,11.180339887498949,28.071337695236398,29.068883707497267,25.317977802344327,49.8196748283246,38.63935817272331,36.5,41.0,34.0,12.5,11.5,0.5,4.5,13.038404810405298,13.038404810405298,13.0,32.0,44.0,34.23448553724738
129,500,5.385164807134504,98.2496819333274,10.04987562112089,13.038404810405298,27.073972741361768,28.0178514522438,22.561028345356956,50.80354318352215,37.8549864614954,34.5,40.0,33.0,14.5,13.5,0.5,6.5,13.038404810405298,13.0,12.5,33.0,43.0,31.400636936215164
130,501,3.1622776601683795,98.12746812182611,10.04987562112089,13.152946437965905,27.073972741361768,28.0178514522438,23.53720459187964,49.8196748283246,36.6742416417845,34.5,36.0,31.0,10.5,15.5,2.5,2.5,13.038404810405298,13.038404810405298,12.5,34.0,44.0,32.2490309931942
131,502,2.23606797749979,96.08329719571451,8.06225774829855,12.165525060596439,26.019223662515376,27.018512172212592,26.30589287593181,48.662100242385755,36.49657518178932,35.0,35.0,31.0,7.0,15.0,1.0,1.0,13.0,13.038404810405298,13.0,33.0,43.0,34.23448553724738
132,503,2.23606797749979,95.13148795220224,11.045361017187261,14.035668847618199,27.018512172212592,28.0178514522438,21.37755832643195,48.507731342539614,34.52535300326414,33.0,34.0,29.0,10.5,16.5,1.5,1.5,14.035668847618199,15.132745950421556,14.5,34.0,45.0,35.35533905932738
133,504,1.4142135623730951,95.13148795220224,10.0,13.038404810405298,27.018512172212592,29.068883707497267,22.561028345356956,46.52956049652737,33.54101966249684,32.5,34.0,29.0,9.5,14.5,0.5,1.5,14.0,14.142135623730951,14.0,35.0,44.0,35.22782990761707
134,505,1.4142135623730951,93.13431161500041,10.04987562112089,14.035668847618199,29.068883707497267,30.01666203960727,23.194827009486403,48.373546489791295,34.36568055487916,33.5,33.0,28.0,7.5,17.5,1.5,0.5,15.0,14.142135623730951,14.0,36.0,44.0,38.2099463490856
135,506,1.0,89.20201791439474,12.041594578792296,15.033296378372908,27.073972741361768,28.071337695236398,21.37755832643195,48.507731342539614,33.54101966249684,33.0,35.0,29.0,11.0,16.0,1.0,2.0,15.0,15.132745950421556,14.5,35.0,45.0,37.33630940518894
136,507,1.0,94.19129471453293,12.041594578792296,16.0312195418814,28.071337695236398,29.068883707497267,22.20360331117452,50.35871324805669,34.36568055487916,34.0,35.0,29.0,10.0,18.0,1.0,1.0,16.0,15.132745950421556,15.0,35.0,44.0,34.36568055487916
137,508,1.0,94.13288479590966,11.045361017187261,15.033296378372908,28.0178514522438,30.01666203960727,22.360679774997898,49.36598018878993,34.36568055487916,33.5,34.0,29.0,9.5,17.5,1.5,1.5,15.0,16.1245154965971,15.0,35.0,44.0,37.21558813185679
138,509,1.0,90.13878188659973,11.045361017187261,14.142135623730951,27.073972741361768,28.0178514522438,23.194827009486403,48.507731342539614,34.36568055487916,34.0,36.0,31.0,10.5,14.5,0.5,2.5,15.033296378372908,15.132745950421556,15.0,34.0,44.0,36.345563690772494
139,510,5.0,93.04837451562494,11.180339887498949,16.1245154965971,27.018512172212592,29.017236257093817,19.235384061671343,51.478150704935004,35.35533905932738,32.5,34.0,31.0,13.5,18.5,1.5,4.5,13.0,14.142135623730951,13.5,35.0,44.0,36.345563690772494
140,511,4.47213595499958,96.13012014972206,8.0,11.045361017187261,27.018512172212592,28.0178514522438,24.331050121192877,47.51841748206689,36.49657518178932,34.0,34.0,29.0,7.5,15.5,3.5,1.5,16.0,15.132745950421556,15.0,35.0,44.0,30.4138126514911
141,512,2.8284271247461903,94.19129471453293,10.0,15.033296378372908,27.018512172212592,27.018512172212592,24.331050121192877,51.478150704935004,36.49657518178932,35.0,37.0,31.0,10.0,17.0,1.0,2.0,14.035668847618199,14.035668847618199,14.0,35.0,45.0,33.24154027718932
142,513,2.23606797749979,95.13148795220224,10.04987562112089,15.033296378372908,27.018512172212592,28.0178514522438,24.331050121192877,51.478150704935004,36.49657518178932,35.0,37.0,32.0,10.5,16.5,0.5,2.5,13.0,13.038404810405298,13.0,36.0,45.0,34.23448553724738
143,514,6.324555320336759,92.19544457292888,10.0,14.142135623730951,25.019992006393608,26.076809620810597,26.30589287593181,56.568542494923804,42.42640687119285,39.0,40.0,34.0,11.0,19.0,4.0,3.0,14.0,14.035668847618199,14.0,37.0,46.0,35.22782990761707
144,515,7.0710678118654755,93.13431161500041,9.055385138137417,14.035668847618199,26.019223662515376,27.018512172212592,26.30589287593181,56.43580423808985,42.42640687119285,38.5,39.0,34.0,10.5,19.5,5.5,2.5,14.035668847618199,13.038404810405298,13.5,37.0,45.0,36.22154055254967
145,516,2.23606797749979,89.1403387922662,10.04987562112089,14.035668847618199,26.019223662515376,27.073972741361768,26.076809620810597,52.23983154643591,38.2099463490856,37.0,39.0,34.0,10.5,15.5,0.5,2.5,15.033296378372908,14.142135623730951,14.0,37.0,45.0,33.37663853655727
146,517,1.0,90.08884503644167,11.045361017187261,14.035668847618199,25.019992006393608,27.018512172212592,25.179356624028344,50.35871324805669,36.345563690772494,36.0,38.0,34.0,11.0,14.0,1.0,2.0,14.0,14.035668847618199,14.0,37.0,45.0,35.35533905932738
147,518,1.4142135623730951,89.08984229416954,10.04987562112089,13.038404810405298,25.019992006393608,26.019223662515376,25.079872407968907,49.25444142409901,36.22154055254967,35.5,38.0,34.0,11.0,13.0,1.0,3.0,15.0,15.033296378372908,15.5,35.0,43.0,36.124783736376884
148,519,1.0,87.09190547921202,10.0,11.045361017187261,25.019992006393608,25.019992006393608,25.317977802344327,46.389654018972806,35.35533905932738,35.0,38.0,34.0,11.0,10.0,2.0,3.0,14.035668847618199,13.038404810405298,13.5,35.0,43.0,37.12142238654117
149,520,1.4142135623730951,90.0222194794152,10.0,11.045361017187261,26.019223662515376,26.019223662515376,24.186773244895647,44.28317965096906,33.24154027718932,33.5,36.0,34.0,11.0,9.0,3.0,3.0,14.0,14.035668847618199,13.5,37.0,44.0,37.12142238654117
150,521,1.4142135623730951,93.02150289046077,12.041594578792296,12.0,27.0,27.0,20.223748416156685,43.289721643826724,31.400636936215164,31.5,35.0,33.0,14.0,9.0,4.0,3.0,14.0,13.038404810405298,13.0,37.0,45.0,35.22782990761707
151,522,1.4142135623730951,92.02173656261873,11.0,11.045361017187261,27.0,27.0,21.213203435596427,42.2965719651132,31.25699921617557,31.5,35.0,33.0,13.0,8.0,4.0,3.0,14.0,14.0,14.0,36.0,43.0,37.21558813185679
152,523,1.0,90.08884503644167,10.04987562112089,11.045361017187261,25.0,27.018512172212592,25.079872407968907,46.2709412050371,35.22782990761707,35.0,39.0,35.0,12.0,9.0,3.0,3.0,14.0,13.038404810405298,13.0,35.0,43.0,35.22782990761707
153,524,2.23606797749979,91.08786966440702,11.045361017187261,15.033296378372908,26.019223662515376,27.018512172212592,24.186773244895647,52.3450093132096,37.33630940518894,36.0,39.0,35.0,13.0,15.0,1.0,3.0,14.0,14.035668847618199,14.0,36.0,45.0,35.35533905932738
154,525,3.1622776601683795,94.04786015641186,11.045361017187261,15.0,28.0178514522438,29.017236257093817,24.186773244895647,53.23532661682466,38.3275357934736,36.5,40.0,37.0,14.5,14.5,1.5,4.5,13.0,13.038404810405298,13.0,36.0,44.0,36.22154055254967
155,526,1.4142135623730951,94.04786015641186,12.0,14.035668847618199,27.018512172212592,27.0,23.345235059857504,50.35871324805669,36.345563690772494,35.5,38.0,35.0,13.5,13.5,1.5,3.5,13.0,13.038404810405298,13.5,35.0,44.0,33.37663853655727
156,527,1.4142135623730951,91.02197536858887,11.045361017187261,12.0,25.019992006393608,26.019223662515376,22.20360331117452,46.2709412050371,34.36568055487916,33.5,37.0,35.0,14.0,10.0,3.0,4.0,11.0,11.0,11.0,34.0,40.0,33.24154027718932
157,528,2.0,89.05054744357274,10.0,11.045361017187261,25.079872407968907,25.019992006393608,23.194827009486403,44.40720662234904,33.37663853655727,33.0,38.0,35.0,13.5,7.5,4.5,5.5,14.0,14.0,14.0,35.0,43.0,37.21558813185679
158,529,1.0,91.08786966440702,12.041594578792296,11.045361017187261,26.019223662515376,27.073972741361768,21.095023109728988,43.18564576337837,32.14031735997639,32.5,38.0,34.0,15.0,7.0,5.0,5.0,13.0,14.035668847618199,14.0,36.0,42.0,35.12833614050059
159,530,1.0,89.05054744357274,12.041594578792296,12.041594578792296,26.019223662515376,28.0178514522438,21.095023109728988,46.17358552246078,34.132096331752024,33.5,38.0,35.0,15.5,9.5,3.5,5.5,13.0,14.035668847618199,14.0,35.0,42.0,33.24154027718932
160,531,1.0,87.02298546935747,12.041594578792296,13.038404810405298,25.019992006393608,26.019223662515376,23.08679276123039,49.16299421312742,36.124783736376884,35.5,39.0,37.0,15.0,11.0,3.0,5.0,13.0,13.038404810405298,13.0,36.0,42.0,39.11521443121589
161,532,3.1622776601683795,90.08884503644167,11.0,13.038404810405298,26.076809620810597,26.019223662515376,25.019992006393608,52.08646657242167,39.05124837953327,37.5,40.0,36.0,13.0,14.0,0.0,4.0,14.0,14.035668847618199,14.0,37.0,42.0,37.21558813185679
162,533,3.605551275463989,92.04890004774636,10.0,14.035668847618199,26.019223662515376,27.018512172212592,27.073972741361768,54.230987451824994,40.19950248448356,38.5,40.0,37.0,11.5,15.5,0.5,3.5,15.0,14.035668847618199,14.0,36.0,41.0,38.118237105091836
163,534,3.605551275463989,95.04735661763561,10.0,15.033296378372908,25.019992006393608,26.019223662515376,27.073972741361768,55.226805085936306,40.19950248448356,38.5,40.0,37.0,11.5,16.5,0.5,2.5,15.0,15.033296378372908,15.0,38.0,42.0,38.2099463490856
164,535,5.0990195135927845,96.04686356149273,10.04987562112089,16.0312195418814,27.018512172212592,29.017236257093817,27.018512172212592,58.137767414994535,42.1070065428546,39.5,40.0,37.0,11.5,19.5,2.5,3.5,15.0,15.033296378372908,14.5,38.0,41.0,38.05259518088089
165,536,3.1622776601683795,97.04638066409278,11.0,14.035668847618199,27.018512172212592,28.0178514522438,27.018512172212592,55.08175741568164,41.048751503547585,39.5,41.0,38.0,12.5,15.5,1.5,3.5,15.0,15.033296378372908,14.5,38.0,40.0,40.049968789001575
166,537,2.23606797749979,98.08159868191383,10.0,12.041594578792296,27.018512172212592,27.073972741361768,27.018512172212592,51.088159097779204,39.05124837953327,38.0,39.0,35.0,10.0,14.0,2.0,1.0,15.033296378372908,15.033296378372908,15.0,38.0,40.0,40.01249804748511
167,538,4.0,94.00531899844816,9.0,12.041594578792296,26.019223662515376,26.076809620810597,27.0,52.009614495783374,40.0,38.0,37.0,36.0,9.5,15.5,3.5,2.5,16.0,16.0,15.5,40.0,39.0,39.05124837953327
168,539,10.0,93.02150289046077,9.0,11.045361017187261,26.019223662515376,27.073972741361768,22.02271554554524,52.03844732503075,41.012193308819754,36.0,37.0,35.0,14.0,16.0,4.0,6.0,16.0312195418814,15.0,15.0,40.0,39.0,34.058772731852805
169,540,2.0,98.0,9.055385138137417,10.04987562112089,28.0,29.0,27.0,48.041648597857254,38.01315561749642,37.0,46.0,46.0,19.0,2.0,9.0,11.0,12.0,12.0,12.0,34.0,34.0,34.058772731852805
170,541,11.045361017187261,113.01769772916099,10.0,11.045361017187261,34.0147027033899,34.0147027033899,39.05124837953327,49.16299421312742,38.118237105091836,43.5,57.0,55.0,17.0,7.0,18.0,9.0,13.038404810405298,13.0,12.5,32.0,30.0,30.0
171,542,6.082762530298219,101.1236866416568,9.0,10.0,26.019223662515376,28.0178514522438,23.021728866442675,48.041648597857254,38.05259518088089,35.0,34.0,29.0,8.5,16.5,6.5,1.5,14.035668847618199,14.035668847618199,14.0,42.0,40.0,38.05259518088089
172,543,0.0,103.1746092796091,13.0,13.0,33.06055050963308,32.14031735997639,36.22154055254967,62.12889826803627,49.16299421312742,49.0,61.0,67.0,28.0,2.0,17.0,15.0,13.0,13.038404810405298,13.0,34.0,32.0,32.0
173,544,3.1622776601683795,84.0535543567314,9.0,10.04987562112089,24.0,25.0,23.08679276123039,45.17742799230607,35.12833614050059,33.5,33.0,36.0,11.5,10.5,0.5,3.5,15.132745950421556,13.0,13.5,43.0,39.0,39.0
174,545,2.0,96.04686356149273,9.055385138137417,8.246211251235321,28.0178514522438,28.0178514522438,23.021728866442675,42.190046219457976,34.058772731852805,33.0,32.0,35.0,10.5,8.5,0.5,2.5,14.035668847618199,13.0,13.5,41.0,38.0,38.01315561749642
175,546,2.23606797749979,92.0869154657707,10.0,11.045361017187261,26.019223662515376,27.018512172212592,27.16615541441225,46.2709412050371,35.22782990761707,36.0,33.0,37.0,8.0,11.0,2.0,1.0,14.142135623730951,15.0,14.5,39.0,35.0,40.049968789001575
176,547,1.0,95.04735661763561,11.0,13.038404810405298,28.0178514522438,28.0178514522438,25.079872407968907,49.16299421312742,36.124783736376884,36.0,35.0,38.0,11.5,12.5,2.5,1.5,14.035668847618199,14.035668847618199,14.0,40.0,36.0,37.0
177,548,2.23606797749979,94.04786015641186,11.045361017187261,14.035668847618199,28.0178514522438,29.0,26.1725046566048,53.33854141237835,39.319206502675,38.0,36.0,39.0,11.5,15.5,0.5,1.5,13.038404810405298,14.0,13.5,41.0,37.0,38.05259518088089
178,549,5.0,96.04686356149273,9.055385138137417,13.038404810405298,28.0178514522438,29.017236257093817,26.1725046566048,53.23532661682466,40.19950248448356,37.5,36.0,39.0,11.5,15.5,1.5,2.5,14.035668847618199,14.0,14.5,42.0,37.0,39.0
179,550,5.0,97.04638066409278,9.055385138137417,13.038404810405298,28.0178514522438,29.017236257093817,27.073972741361768,54.147945482723536,41.10960958218893,38.5,35.0,38.0,9.5,17.5,3.5,1.5,14.142135623730951,14.0,14.0,42.0,37.0,37.013511046643494
180,551,7.0710678118654755,96.13012014972206,9.0,11.045361017187261,30.0,30.01666203960727,28.284271247461902,55.326304774492215,44.28317965096906,40.5,36.0,41.0,10.5,16.5,3.5,3.5,14.035668847618199,15.0,15.0,39.0,35.0,37.0
181,552,2.23606797749979,96.04686356149273,10.04987562112089,13.038404810405298,29.017236257093817,30.0,26.1725046566048,51.35172830587107,38.3275357934736,37.0,36.0,39.0,11.5,13.5,0.5,2.5,15.033296378372908,15.0,14.5,41.0,36.0,42.04759208325728
182,553,1.4142135623730951,98.12746812182611,11.045361017187261,14.035668847618199,29.068883707497267,30.01666203960727,26.076809620810597,52.23983154643591,38.2099463490856,37.5,36.0,41.0,12.5,13.5,2.5,1.5,15.132745950421556,15.033296378372908,15.5,38.0,33.0,39.01281840626232
183,554,9.0,95.04735661763561,11.045361017187261,13.038404810405298,29.0,30.0,22.090722034374522,55.14526271584895,42.1070065428546,37.5,36.0,39.0,15.5,17.5,2.5,5.5,15.033296378372908,14.0,14.0,42.0,37.0,39.0
184,555,3.0,96.04686356149273,9.055385138137417,10.04987562112089,29.017236257093817,29.017236257093817,27.073972741361768,49.16299421312742,39.11521443121589,37.5,36.0,39.0,10.5,11.5,0.5,2.5,14.035668847618199,14.0,14.0,38.0,34.0,41.012193308819754
185,556,6.0,97.02061636580135,10.04987562112089,13.038404810405298,30.01666203960727,31.0,25.019992006393608,54.08326913195984,41.048751503547585,38.0,35.0,37.0,11.0,18.0,3.0,2.0,13.038404810405298,14.035668847618199,14.0,42.0,37.0,41.012193308819754
186,557,7.0710678118654755,98.08159868191383,9.055385138137417,12.041594578792296,30.01666203960727,31.016124838541646,27.16615541441225,55.326304774492215,43.289721643826724,39.5,36.0,40.0,11.0,17.0,3.0,3.0,15.0,15.0,15.0,42.0,36.0,38.0
187,558,13.038404810405298,98.08159868191383,9.055385138137417,12.041594578792296,28.0178514522438,30.0,27.073972741361768,61.204574992397426,49.16299421312742,42.5,35.0,39.0,10.0,24.0,10.0,2.0,16.0312195418814,16.0312195418814,15.5,43.0,37.0,38.0
188,559,10.198039027185569,98.12746812182611,8.0,11.045361017187261,27.018512172212592,29.0,28.160255680657446,57.3149195236284,46.2709412050371,41.0,35.0,40.0,9.5,19.5,7.5,2.5,15.033296378372908,15.033296378372908,14.5,41.0,36.0,39.0
189,560,2.0,96.18731725128839,11.0,12.165525060596439,27.018512172212592,28.0178514522438,24.08318915758459,49.16299421312742,37.05401462729781,36.0,33.0,39.0,12.0,13.0,0.0,1.0,15.033296378372908,15.0,14.5,41.0,37.0,39.01281840626232
190,561,3.0,97.12878049270464,9.055385138137417,10.04987562112089,28.0178514522438,28.071337695236398,24.08318915758459,46.17358552246078,36.124783736376884,34.5,34.0,39.0,12.5,9.5,1.5,3.5,15.033296378372908,15.033296378372908,15.0,43.0,39.0,37.013511046643494
191,562,3.0,96.13012014972206,10.04987562112089,11.045361017187261,27.018512172212592,28.0178514522438,23.021728866442675,47.095647357266465,36.05551275463989,34.5,33.0,38.0,12.5,11.5,0.5,2.5,15.033296378372908,15.033296378372908,15.0,43.0,39.0,40.01249804748511
192,563,4.0,96.13012014972206,11.045361017187261,13.038404810405298,28.0178514522438,29.017236257093817,23.08679276123039,51.15662224971465,38.118237105091836,36.0,33.0,38.0,12.5,15.5,0.5,2.5,14.035668847618199,15.0,14.5,43.0,38.0,37.05401462729781
193,564,5.0990195135927845,96.08329719571451,11.045361017187261,13.038404810405298,28.0178514522438,29.017236257093817,24.020824298928627,53.150729063673246,40.11234224026316,37.5,34.0,38.0,12.0,17.0,2.0,2.0,14.035668847618199,14.035668847618199,13.5,41.0,37.0,38.01315561749642
194,565,6.0,98.08159868191383,10.0,13.0,28.0178514522438,29.0,26.019223662515376,55.00909015790027,42.01190307520001,39.0,35.0,39.0,11.0,18.0,3.0,2.0,16.0312195418814,15.033296378372908,15.0,42.0,36.0,37.013511046643494
195,566,3.0,96.08329719571451,10.0,14.0,27.018512172212592,28.0178514522438,26.019223662515376,53.009433122794285,39.01281840626232,37.5,35.0,39.0,11.0,16.0,0.0,2.0,14.035668847618199,15.0,15.0,41.0,36.0,38.01315561749642
196,567,1.0,96.13012014972206,11.0,11.045361017187261,28.0178514522438,28.0178514522438,26.019223662515376,49.040799340956916,38.01315561749642,37.5,34.0,39.0,10.5,12.5,0.5,0.5,14.035668847618199,15.0,14.5,41.0,37.0,37.05401462729781
197,568,1.0,99.08077512817509,11.045361017187261,10.0,28.0178514522438,29.068883707497267,25.0,47.01063709417264,37.013511046643494,36.5,35.0,39.0,12.0,10.0,2.0,2.0,15.033296378372908,15.033296378372908,15.0,40.0,37.0,37.013511046643494
198,569,1.0,96.08329719571451,11.0,11.0,28.0178514522438,29.017236257093817,24.0,47.0,36.0,35.5,34.0,38.0,12.0,11.0,1.0,2.0,14.035668847618199,14.035668847618199,14.0,40.0,37.0,39.01281840626232
199,570,1.0,97.04638066409278,11.0,11.045361017187261,27.018512172212592,28.0178514522438,25.0,48.010415536631214,37.0,36.5,34.0,37.0,10.5,12.5,0.5,0.5,14.142135623730951,15.033296378372908,14.5,40.0,38.0,37.05401462729781
200,571,2.0,95.02105029939419,12.0,12.041594578792296,27.018512172212592,28.0178514522438,24.0,50.00999900019995,38.0,37.0,36.0,38.0,13.0,13.0,0.0,2.0,14.035668847618199,14.035668847618199,14.5,42.0,40.0,37.013511046643494
201,572,0.0,98.04590761474952,12.0,12.0,28.0178514522438,29.017236257093817,25.019992006393608,49.01020301937138,37.013511046643494,37.0,36.0,39.0,12.5,11.5,1.5,1.5,14.035668847618199,14.0,14.0,41.0,39.0,38.05259518088089
202,573,5.0,96.04686356149273,11.0,12.041594578792296,29.0,30.01666203960727,21.0,49.01020301937138,37.0,34.5,35.0,38.0,15.5,12.5,1.5,5.5,14.035668847618199,14.0,14.0,41.0,39.0,39.01281840626232
203,574,3.1622776601683795,95.08417323613851,12.041594578792296,13.038404810405298,30.0,30.01666203960727,21.02379604162864,49.0,36.013886210738214,34.5,34.0,38.0,15.0,13.0,2.0,4.0,13.038404810405298,14.0,14.0,42.0,39.0,39.01281840626232
204,575,1.0,92.0869154657707,11.0,11.0,27.0,28.0178514522438,23.0,46.0,35.0,34.5,34.0,38.0,13.0,10.0,3.0,3.0,13.038404810405298,14.0,14.0,40.0,37.0,38.05259518088089
205,576,0.0,92.0869154657707,9.0,10.0,26.019223662515376,27.018512172212592,25.0,44.0,34.0,34.0,34.0,38.0,11.0,8.0,4.0,3.0,15.033296378372908,14.0,14.5,40.0,38.0,39.01281840626232
206,577,0.0,88.20430828479978,9.0,11.0,24.020824298928627,25.079872407968907,26.0,46.0,35.0,35.0,33.0,39.0,10.0,10.0,4.0,2.0,15.033296378372908,15.0,15.0,39.0,36.0,38.01315561749642
207,578,1.0,88.14193099768123,10.0,13.038404810405298,25.079872407968907,25.079872407968907,25.0,47.01063709417264,34.0,34.5,33.0,38.0,10.5,11.5,3.5,1.5,15.033296378372908,14.0,14.5,41.0,38.0,38.0
208,579,0.0,86.28441342444185,10.04987562112089,15.033296378372908,24.08318915758459,25.079872407968907,26.0,51.03920062069938,36.013886210738214,36.0,33.0,40.0,10.5,14.5,3.5,0.5,13.152946437965905,14.0,14.0,41.0,37.0,38.0
209,580,1.4142135623730951,86.28441342444185,11.0,15.0,25.079872407968907,27.16615541441225,24.020824298928627,51.03920062069938,36.05551275463989,35.5,32.0,39.0,11.5,15.5,2.5,0.5,12.0,12.0,12.0,42.0,39.0,38.01315561749642
210,581,0.0,86.20904824900923,11.0,17.0,24.020824298928627,26.076809620810597,24.0,52.0,35.0,35.0,33.0,39.0,12.0,16.0,3.0,2.0,13.038404810405298,12.0,12.5,43.0,39.0,33.015148038438355
211,582,1.0,87.20665112249179,11.0,16.0,26.019223662515376,28.071337695236398,23.021728866442675,51.0098029794274,35.014282800023196,34.5,32.0,38.0,12.0,16.0,3.0,2.0,14.0,14.035668847618199,13.0,42.0,40.0,33.015148038438355
212,583,1.4142135623730951,85.14693182963201,13.038404810405298,16.0312195418814,26.019223662515376,28.0178514522438,21.02379604162864,51.03920062069938,35.014282800023196,34.5,33.0,38.0,14.5,15.5,3.5,2.5,13.038404810405298,14.0,13.5,41.0,40.0,38.05259518088089
213,584,1.4142135623730951,88.14193099768123,13.0,16.0,25.019992006393608,27.018512172212592,20.09975124224178,50.08991914547278,34.132096331752024,33.5,31.0,36.0,13.5,16.5,1.5,1.5,14.035668847618199,14.035668847618199,14.0,37.0,37.0,37.12142238654117
214,585,3.0,90.08884503644167,13.0,16.0312195418814,25.0,26.0,19.026297590440446,51.03920062069938,35.014282800023196,33.5,31.0,35.0,14.0,18.0,0.0,2.0,13.0,13.0,12.5,38.0,38.0,33.13608305156178
215,586,1.0,86.02325267042627,10.0,16.0,24.0,25.0,24.020824298928627,51.0098029794274,35.014282800023196,34.5,34.0,36.0,11.0,16.0,2.0,2.0,13.038404810405298,13.0,13.5,38.0,40.0,35.05709628591621
216,587,1.4142135623730951,91.0494371207203,12.041594578792296,16.0,25.019992006393608,27.0,22.02271554554524,51.0098029794274,35.014282800023196,34.5,34.0,37.0,13.5,15.5,2.5,2.5,13.038404810405298,13.038404810405298,13.5,39.0,41.0,33.06055050963308
217,588,1.4142135623730951,87.02298546935747,12.041594578792296,16.0,25.019992006393608,25.019992006393608,21.0,50.0,34.0,33.5,35.0,37.0,15.0,14.0,3.0,3.0,13.0,14.0,13.5,39.0,40.0,34.058772731852805
218,589,0.0,92.04890004774636,13.0,17.029386365926403,26.0,27.0,22.02271554554524,52.03844732503075,35.014282800023196,35.0,34.0,37.0,13.5,16.5,2.5,2.5,12.0,13.0,13.0,37.0,38.0,37.013511046643494
219,590,0.0,90.0499861188218,12.0,17.029386365926403,26.019223662515376,27.0,24.0,53.009433122794285,36.0,36.0,36.0,39.0,13.5,15.5,2.5,2.5,14.035668847618199,13.0,13.5,39.0,39.0,39.05124837953327
220,591,0.0,90.0499861188218,12.0,16.0312195418814,25.019992006393608,26.0,25.0,53.009433122794285,37.0,37.0,37.0,40.0,13.5,14.5,3.5,2.5,13.038404810405298,14.0,14.0,39.0,38.0,38.01315561749642
221,592,1.0,92.13576938409967,11.0,13.038404810405298,26.019223662515376,26.019223662515376,24.0,47.01063709417264,34.0,34.5,36.0,41.0,14.5,8.5,6.5,3.5,14.035668847618199,14.0,14.0,39.0,36.0,37.05401462729781
222,593,0.0,93.13431161500041,11.045361017187261,11.045361017187261,26.076809620810597,27.073972741361768,24.020824298928627,46.010868281309364,35.0,35.0,36.0,41.0,14.5,7.5,5.5,3.5,13.038404810405298,13.0,13.5,39.0,36.0,36.013886210738214
223,594,1.0,91.13725912051558,12.0,12.0,27.018512172212592,28.0178514522438,23.0,47.01063709417264,35.014282800023196,35.0,36.0,41.0,15.5,8.5,5.5,4.5,14.035668847618199,14.0,14.0,40.0,37.0,35.0
224,595,1.0,93.13431161500041,13.0,14.035668847618199,28.0178514522438,29.017236257093817,22.02271554554524,50.0,36.013886210738214,35.5,36.0,41.0,16.5,11.5,4.5,4.5,14.0,14.0,14.0,40.0,36.0,38.01315561749642
225,596,2.23606797749979,95.33624704172071,12.0,15.033296378372908,28.071337695236398,29.068883707497267,24.020824298928627,53.009433122794285,38.0,37.0,36.0,44.0,16.0,13.0,4.0,4.0,15.033296378372908,14.0,14.0,42.0,36.0,37.0
226,597,3.0,94.26027795418386,12.0,15.033296378372908,26.019223662515376,28.071337695236398,23.08679276123039,53.08483775994799,38.05259518088089,36.5,36.0,43.0,16.5,13.5,2.5,4.5,14.035668847618199,14.035668847618199,14.0,42.0,36.0,38.0
227,598,0.0,91.19758768739445,11.0,10.04987562112089,25.019992006393608,26.019223662515376,26.019223662515376,47.0,37.013511046643494,37.0,38.0,44.0,15.0,6.0,5.0,5.0,15.033296378372908,15.0,15.0,42.0,36.0,39.0
228,599,1.0,94.19129471453293,10.0,9.055385138137417,28.0178514522438,28.071337695236398,24.020824298928627,44.0,35.014282800023196,34.5,37.0,43.0,16.0,4.0,7.0,6.0,14.035668847618199,14.0,14.0,40.0,36.0,34.0147027033899
229,600,0.0,96.13012014972206,11.0,10.0,28.0178514522438,29.017236257093817,24.020824298928627,45.0111097397076,35.014282800023196,35.0,37.0,42.0,15.5,5.5,6.5,4.5,14.035668847618199,14.035668847618199,14.0,40.0,35.0,39.01281840626232
230,601,0.0,96.13012014972206,11.0,11.045361017187261,29.017236257093817,30.01666203960727,25.019992006393608,47.0,36.013886210738214,36.0,39.0,44.0,16.5,5.5,7.5,5.5,14.035668847618199,13.038404810405298,13.5,40.0,35.0,38.0
231,602,3.1622776601683795,98.18350166906862,12.0,11.0,29.017236257093817,31.064449134018133,24.020824298928627,50.0,39.0,37.5,38.0,44.0,17.0,9.0,3.0,6.0,13.038404810405298,13.038404810405298,13.0,41.0,35.0,38.01315561749642
232,603,0.0,96.25487000666512,10.04987562112089,10.04987562112089,28.0178514522438,29.068883707497267,27.018512172212592,47.01063709417264,37.0,37.0,37.0,44.0,13.5,6.5,5.5,4.5,14.035668847618199,13.038404810405298,13.0,38.0,32.0,36.013886210738214
233,604,0.0,97.25224933131366,10.04987562112089,9.0,27.073972741361768,27.16615541441225,25.0,44.01136216933077,35.014282800023196,35.0,36.0,43.0,14.5,4.5,7.5,4.5,14.035668847618199,14.035668847618199,14.5,40.0,33.0,34.0
234,605,2.23606797749979,95.33624704172071,7.0,8.06225774829855,26.076809620810597,27.16615541441225,26.019223662515376,39.01281840626232,31.0,32.0,33.0,41.0,11.0,2.0,8.0,4.0,13.0,13.038404810405298,13.0,39.0,33.0,36.0
235,606,1.4142135623730951,95.33624704172071,9.0,9.055385138137417,28.0178514522438,28.071337695236398,24.020824298928627,41.012193308819754,32.0,32.5,32.0,40.0,12.0,5.0,6.0,4.0,13.038404810405298,13.0,13.5,39.0,34.0,35.014282800023196
236,607,1.0,97.25224933131366,9.0,9.055385138137417,27.073972741361768,28.160255680657446,26.019223662515376,43.0,34.0147027033899,34.5,36.0,43.0,13.5,3.5,8.5,4.5,14.035668847618199,14.035668847618199,14.0,39.0,32.0,35.014282800023196
237,608,2.23606797749979,94.26027795418386,11.0,11.045361017187261,27.018512172212592,28.0178514522438,24.0,48.041648597857254,37.013511046643494,36.0,35.0,42.0,14.5,9.5,3.5,4.5,13.038404810405298,13.038404810405298,13.0,40.0,33.0,35.0
238,609,4.123105625617661,92.34717104492157,10.0,12.041594578792296,27.073972741361768,27.073972741361768,26.0,52.03844732503075,40.01249804748511,38.0,35.0,43.0,13.0,13.0,1.0,3.0,14.0,15.033296378372908,14.5,40.0,32.0,36.013886210738214
239,610,10.0,97.41663102366043,10.04987562112089,13.152946437965905,29.068883707497267,30.14962686336267,25.019992006393608,58.034472514187634,45.0,40.0,34.0,43.0,13.5,19.5,4.5,3.5,13.038404810405298,13.152946437965905,13.5,40.0,31.0,37.05401462729781
240,611,10.04987562112089,99.40824915468535,12.041594578792296,12.041594578792296,30.01666203960727,31.064449134018133,22.0,56.08029957123981,44.04543109109048,39.0,34.0,43.0,16.5,17.5,2.5,5.5,13.038404810405298,12.041594578792296,12.5,39.0,30.0,37.05401462729781
241,612,11.0,98.32598842625484,10.04987562112089,12.041594578792296,30.01666203960727,30.066592756745816,23.021728866442675,56.00892785976178,44.0,38.5,36.0,44.0,17.0,16.0,1.0,7.0,13.0,13.152946437965905,13.0,40.0,31.0,32.0624390837628
242,613,10.04987562112089,100.40418317978589,10.0,11.045361017187261,29.068883707497267,30.14962686336267,23.0,54.037024344425184,43.01162633521314,38.0,33.0,42.0,14.5,16.5,2.5,4.5,14.035668847618199,14.035668847618199,14.0,41.0,33.0,32.01562118716424
243,614,9.055385138137417,99.32270636667126,10.04987562112089,12.041594578792296,29.068883707497267,30.14962686336267,24.08318915758459,55.00909015790027,43.0,38.5,35.0,43.0,15.0,16.0,2.0,5.0,13.0,14.142135623730951,13.5,40.0,30.0,34.0147027033899
244,615,11.045361017187261,97.32933781753577,11.0,12.041594578792296,28.0178514522438,29.154759474226502,24.020824298928627,58.008620049092706,46.0,40.5,37.0,45.0,17.0,17.0,3.0,7.0,14.035668847618199,14.035668847618199,13.5,40.0,31.0,37.05401462729781
245,616,12.0,97.32933781753577,9.055385138137417,11.045361017187261,27.073972741361768,28.160255680657446,27.0,59.033888572581766,48.010415536631214,42.0,39.0,47.0,16.0,16.0,2.0,7.0,13.038404810405298,13.152946437965905,13.0,38.0,30.0,34.0147027033899
246,617,12.041594578792296,97.41663102366043,10.0,12.041594578792296,28.071337695236398,29.068883707497267,26.0,60.03332407921454,48.010415536631214,42.0,37.0,46.0,15.5,18.5,3.5,6.5,12.041594578792296,13.152946437965905,12.5,40.0,31.0,34.0147027033899
247,618,9.0,96.42095207992918,12.041594578792296,15.132745950421556,28.071337695236398,30.066592756745816,23.08679276123039,59.00847396772772,44.01136216933077,39.5,36.0,45.0,17.5,18.5,0.5,5.5,13.038404810405298,13.038404810405298,13.0,41.0,31.0,34.058772731852805
248,619,7.0710678118654755,96.74709297958259,10.04987562112089,15.033296378372908,27.16615541441225,28.284271247461902,27.018512172212592,59.135437767890075,44.10215414239989,40.5,35.0,47.0,14.0,18.0,0.0,4.0,14.035668847618199,15.033296378372908,14.5,42.0,32.0,34.0147027033899
249,620,11.0,97.73944955850733,12.041594578792296,15.033296378372908,30.14962686336267,31.144823004794873,22.0,60.03332407921454,45.0111097397076,39.5,34.0,46.0,18.0,20.0,1.0,5.0,13.038404810405298,13.038404810405298,13.5,44.0,32.0,36.124783736376884
250,621,8.0,94.89467845985885,11.045361017187261,14.142135623730951,28.160255680657446,29.154759474226502,25.019992006393608,58.137767414994535,44.04543109109048,40.0,33.0,46.0,14.5,18.5,0.5,2.5,13.152946437965905,14.0,13.5,43.0,31.0,38.01315561749642
251,622,7.0710678118654755,97.73944955850733,11.0,15.033296378372908,29.154759474226502,31.144823004794873,25.019992006393608,58.077534382926416,43.04648650006177,39.5,31.0,43.0,12.0,21.0,3.0,1.0,13.038404810405298,14.0,13.5,44.0,32.0,36.05551275463989
252,623,8.06225774829855,98.73196037757987,11.0,15.0,28.160255680657446,30.14962686336267,24.020824298928627,58.034472514187634,43.04648650006177,39.0,29.0,41.0,11.0,23.0,5.0,0.0,12.041594578792296,12.0,12.0,43.0,32.0,34.132096331752024
253,624,8.0,95.63472172804185,10.04987562112089,13.038404810405298,27.16615541441225,28.160255680657446,23.08679276123039,54.0,41.012193308819754,37.0,28.0,39.0,10.5,20.5,4.5,0.5,12.165525060596439,13.0,12.5,42.0,32.0,35.05709628591621
254,625,6.324555320336759,94.33981132056604,10.04987562112089,13.038404810405298,27.073972741361768,28.071337695236398,24.08318915758459,53.03772242470448,40.11234224026316,37.0,30.0,38.0,10.0,19.0,3.0,0.0,11.045361017187261,12.0,12.0,42.0,34.0,35.014282800023196
255,626,7.0710678118654755,94.26027795418386,10.0,14.0,26.019223662515376,28.071337695236398,25.019992006393608,56.0357029044876,42.04759208325728,38.5,31.0,38.0,9.5,21.5,4.5,0.5,11.045361017187261,12.0,11.0,42.0,36.0,33.0
256,627,10.198039027185569,92.26592003551474,11.0,14.0,27.018512172212592,28.071337695236398,19.4164878389476,54.3323108288245,40.44749683231337,35.0,29.0,36.0,13.5,21.5,4.5,2.5,10.0,10.0,10.0,42.0,36.0,32.0624390837628
257,628,9.219544457292887,90.27181176868004,11.0,16.0,24.08318915758459,25.019992006393608,18.110770276274835,54.147945482723536,38.2099463490856,33.5,28.0,35.0,13.5,22.5,3.5,2.5,10.04987562112089,10.04987562112089,9.0,42.0,36.0,32.0624390837628
258,629,7.0710678118654755,88.36288813749809,9.055385138137417,13.0,25.019992006393608,26.1725046566048,22.360679774997898,51.35172830587107,38.47076812334269,34.5,28.0,36.0,10.0,19.0,2.0,1.0,10.04987562112089,12.041594578792296,10.5,42.0,37.0,28.160255680657446
259,630,5.0990195135927845,90.44888059008801,10.04987562112089,12.0,23.08679276123039,25.179356624028344,21.587033144922902,48.507731342539614,36.6742416417845,33.5,27.0,36.0,10.5,16.5,1.5,0.5,10.0,11.045361017187261,10.5,43.0,38.0,27.16615541441225
260,631,7.0710678118654755,90.44888059008801,6.0,10.04987562112089,23.194827009486403,24.186773244895647,23.53720459187964,46.52956049652737,36.49657518178932,32.5,25.0,34.0,6.5,16.5,2.5,0.5,10.04987562112089,11.045361017187261,10.5,41.0,36.0,28.071337695236398
261,632,2.8284271247461903,89.45389874119518,7.0,11.0,23.194827009486403,25.179356624028344,24.515301344262525,44.553338819890925,33.734255586866,32.0,26.0,35.0,6.5,13.5,0.5,1.5,10.0,11.045361017187261,10.0,40.0,36.0,26.019223662515376
262,633,2.23606797749979,84.48076704197234,7.0,11.0,20.223748416156685,21.213203435596427,25.317977802344327,45.27692569068709,34.36568055487916,33.0,27.0,36.0,6.5,13.5,1.5,0.5,11.045361017187261,12.041594578792296,11.5,41.0,35.0,27.294688127912362
263,634,1.0,89.67719888578144,10.04987562112089,13.0,24.331050121192877,25.179356624028344,19.235384061671343,43.18564576337837,30.265491900843113,29.5,25.0,36.0,11.5,12.5,3.5,0.5,9.055385138137417,9.0,8.0,43.0,34.0,29.154759474226502
264,635,2.23606797749979,81.30190649671138,9.0,13.0,21.213203435596427,22.20360331117452,22.561028345356956,46.389654018972806,33.54101966249684,32.0,27.0,34.0,8.5,15.5,0.5,0.5,9.0,11.0,10.5,41.0,37.0,30.066592756745816
265,636,8.0,80.39900496896712,8.06225774829855,13.038404810405298,20.223748416156685,22.090722034374522,23.53720459187964,52.46903848937962,39.45883931389772,35.0,28.0,36.0,9.0,20.0,4.0,0.0,11.045361017187261,12.041594578792296,11.0,42.0,37.0,29.154759474226502
266,637,6.082762530298219,81.74350127074322,9.0,15.0,20.223748416156685,22.20360331117452,23.769728648009426,53.46026561849464,38.63935817272331,35.0,28.0,39.0,10.5,19.5,0.5,1.5,11.045361017187261,12.0,11.0,42.0,35.0,27.16615541441225
267,638,3.0,89.56003573022959,12.0,15.0,23.194827009486403,25.317977802344327,19.4164878389476,49.16299421312742,34.23448553724738,32.5,28.0,38.0,14.0,16.0,2.0,2.0,10.0,10.0,9.5,42.0,34.0,25.079872407968907
268,639,6.0,81.49846624323675,10.04987562112089,13.038404810405298,21.095023109728988,22.090722034374522,22.561028345356956,51.478150704935004,38.47076812334269,35.0,31.0,40.0,13.5,15.5,0.5,2.5,11.045361017187261,12.041594578792296,11.0,41.0,36.0,25.079872407968907
269,640,2.8284271247461903,90.55385138137417,11.0,12.041594578792296,25.079872407968907,26.076809620810597,20.615528128088304,45.70557952810576,33.734255586866,32.0,30.0,40.0,15.0,10.0,5.0,4.0,10.04987562112089,10.0,9.0,41.0,32.0,24.020824298928627
270,641,8.54400374531753,87.20665112249179,8.0,15.0,20.09975124224178,21.095023109728988,26.476404589747453,57.55866572463264,42.7551166528639,38.0,35.0,41.0,12.0,19.0,2.0,3.0,9.055385138137417,9.055385138137417,7.5,50.0,35.0,33.13608305156178
271,642,5.0,74.10802925459562,10.0,12.0,19.026297590440446,20.024984394500787,26.476404589747453,53.23532661682466,41.30375285612676,38.5,38.0,42.0,14.0,13.0,1.0,4.0,13.038404810405298,14.035668847618199,13.0,41.0,38.0,28.0178514522438
272,643,4.123105625617661,77.52418977325722,10.04987562112089,13.0,20.09975124224178,22.090722034374522,24.186773244895647,51.088159097779204,38.118237105091836,36.0,34.0,43.0,14.5,12.5,3.5,3.5,10.04987562112089,12.0,11.0,40.0,34.0,24.08318915758459
273,644,1.4142135623730951,78.63841300535,11.0,13.0,19.1049731745428,21.095023109728988,26.476404589747453,51.15662224971465,38.2099463490856,37.5,34.0,44.0,13.0,12.0,3.0,2.0,12.041594578792296,12.041594578792296,11.5,43.0,35.0,26.076809620810597
274,645,1.0,79.63039620647382,8.0,13.038404810405298,21.213203435596427,23.194827009486403,28.635642126552707,49.36598018878993,36.6742416417845,36.0,32.0,42.0,9.0,12.0,4.0,0.0,9.055385138137417,10.04987562112089,9.0,42.0,30.0,25.079872407968907
275,646,1.0,73.33484846919642,9.055385138137417,11.0,19.026297590440446,20.024984394500787,27.294688127912362,48.25971404805462,37.33630940518894,36.5,35.0,42.0,11.5,9.5,3.5,2.5,11.0,13.0,12.0,40.0,36.0,27.073972741361768
276,647,1.4142135623730951,73.55270219373317,10.04987562112089,12.0,19.1049731745428,20.223748416156685,24.515301344262525,47.265209192385896,35.35533905932738,34.5,32.0,41.0,12.5,10.5,4.5,2.5,12.0,14.0,13.0,38.0,34.0,23.021728866442675
277,648,1.0,72.56031973468694,9.055385138137417,13.0,21.095023109728988,22.20360331117452,24.515301344262525,47.38143096192854,34.52535300326414,33.5,33.0,42.0,13.5,9.5,6.5,3.5,10.04987562112089,12.0,11.0,37.0,33.0,23.021728866442675
278,649,0.0,72.56031973468694,10.0,12.0,19.235384061671343,20.223748416156685,23.53720459187964,45.27692569068709,33.37663853655727,33.0,32.0,41.0,13.5,8.5,6.5,2.5,11.0,12.0,10.5,39.0,36.0,21.0
279,650,3.0,73.43704787094863,10.0,12.0,19.235384061671343,19.1049731745428,22.80350850198276,47.38143096192854,35.510561809129406,33.5,32.0,40.0,14.0,11.0,4.0,3.0,12.041594578792296,13.038404810405298,12.0,39.0,36.0,21.0
280,651,2.0,73.33484846919642,10.04987562112089,14.035668847618199,20.024984394500787,21.095023109728988,23.769728648009426,49.64876634922564,35.6931365951495,34.0,34.0,41.0,14.5,11.5,5.5,4.5,11.0,11.0,10.5,40.0,35.0,25.019992006393608
281,652,6.082762530298219,71.25307010929424,9.055385138137417,12.041594578792296,17.11724276862369,19.1049731745428,24.73863375370596,51.78802950489621,39.81205847478876,36.0,34.0,40.0,13.0,14.0,1.0,4.0,12.0,13.038404810405298,12.0,37.0,33.0,23.021728866442675
282,653,4.0,70.178344238091,9.055385138137417,13.038404810405298,17.11724276862369,19.026297590440446,25.0,50.80354318352215,37.8549864614954,35.0,35.0,40.0,13.5,12.5,2.5,3.5,12.041594578792296,13.038404810405298,12.0,41.0,37.0,23.021728866442675
283,654,1.0,80.22468448052632,9.0,15.033296378372908,18.110770276274835,21.02379604162864,27.85677655436824,51.419840528729765,36.68787265568828,35.0,35.0,41.0,12.0,12.0,4.0,3.0,10.04987562112089,11.0,10.5,43.0,33.0,23.021728866442675
284,655,1.4142135623730951,75.32595834106593,10.0,13.0,18.110770276274835,19.1049731745428,24.73863375370596,48.507731342539614,35.6931365951495,34.5,33.0,40.0,12.5,11.5,3.5,2.5,11.0,13.038404810405298,12.0,40.0,37.0,24.020824298928627
285,656,0.0,74.33034373659252,11.045361017187261,13.0,19.235384061671343,20.09975124224178,24.515301344262525,48.373546489791295,35.510561809129406,35.0,33.0,40.0,12.5,11.5,4.5,0.5,12.0,13.038404810405298,12.5,39.0,36.0,23.021728866442675
286,657,1.4142135623730951,65.19202405202648,9.0,12.041594578792296,16.1245154965971,17.029386365926403,28.160255680657446,50.00999900019995,38.07886552931954,36.5,35.0,40.0,10.5,11.5,3.5,0.5,11.045361017187261,12.041594578792296,11.0,40.0,36.0,22.090722034374522
287,658,0.0,82.21921916437786,9.055385138137417,13.038404810405298,21.02379604162864,22.02271554554524,26.92582403567252,48.83646178829912,35.90264614203248,35.0,36.0,42.0,13.0,9.0,5.0,4.0,9.0,10.04987562112089,9.0,45.0,35.0,25.079872407968907
288,659,0.0,88.2779700718135,9.0,15.0,24.08318915758459,25.019992006393608,26.68332812825267,50.35871324805669,35.510561809129406,35.0,35.0,42.0,12.5,11.5,5.5,3.5,7.0710678118654755,8.06225774829855,7.0,42.0,30.0,26.076809620810597
289,660,1.0,78.23042886243178,8.06225774829855,13.038404810405298,18.110770276274835,20.024984394500787,27.65863337187866,48.83646178829912,35.90264614203248,35.0,35.0,41.0,11.0,10.0,5.0,3.0,9.0,11.045361017187261,9.5,41.0,35.0,23.021728866442675
290,661,1.4142135623730951,78.23042886243178,9.055385138137417,15.033296378372908,19.1049731745428,20.09975124224178,26.92582403567252,51.97114584074513,37.107950630558946,35.5,35.0,41.0,12.0,13.0,4.0,3.0,11.045361017187261,12.041594578792296,10.5,40.0,33.0,21.02379604162864
291,662,2.23606797749979,89.05054744357274,9.055385138137417,15.033296378372908,24.0,25.019992006393608,24.515301344262525,49.8196748283246,34.92849839314596,33.5,35.0,38.0,12.5,12.5,4.5,4.5,7.0710678118654755,6.082762530298219,5.5,41.0,31.0,26.076809620810597
292,663,1.0,80.15609770940699,7.0710678118654755,14.035668847618199,21.02379604162864,21.02379604162864,28.635642126552707,49.8196748283246,35.90264614203248,35.0,37.0,42.0,11.5,9.5,6.5,4.5,10.0,10.198039027185569,9.0,40.0,29.0,24.020824298928627
293,664,3.605551275463989,85.14693182963201,9.0,16.0312195418814,22.02271554554524,24.08318915758459,25.0,52.952809179494906,37.107950630558946,34.5,35.0,40.0,13.5,14.5,3.5,4.5,8.06225774829855,8.06225774829855,7.0,42.0,31.0,24.08318915758459
294,665,2.23606797749979,82.15229759416349,9.0,13.0,22.090722034374522,22.02271554554524,25.96150997149434,48.83646178829912,36.138621999185304,34.5,34.0,39.0,11.5,11.5,3.5,2.5,10.0,11.045361017187261,9.5,42.0,33.0,22.0
295,666,4.123105625617661,69.26037828369117,11.045361017187261,15.033296378372908,16.278820596099706,17.11724276862369,23.769728648009426,53.46026561849464,38.47076812334269,36.0,35.0,41.0,15.0,15.0,3.0,3.0,11.045361017187261,13.038404810405298,12.0,40.0,37.0,22.090722034374522
296,667,2.0,68.26419266350405,10.0,14.035668847618199,16.1245154965971,17.11724276862369,25.0,50.635955604688654,36.6742416417845,35.0,35.0,41.0,14.0,12.0,4.0,3.0,12.041594578792296,14.035668847618199,13.0,40.0,36.0,22.20360331117452
297,668,2.23606797749979,70.178344238091,10.0,13.0,17.11724276862369,19.1049731745428,26.92582403567252,51.62363799656123,38.8329756778952,37.0,36.0,41.0,12.5,12.5,2.5,2.5,11.0,13.038404810405298,12.0,39.0,36.0,23.021728866442675
298,669,1.0,67.26812023536856,10.04987562112089,14.035668847618199,16.1245154965971,18.110770276274835,26.92582403567252,51.78802950489621,37.8549864614954,36.5,35.0,41.0,12.0,13.0,3.0,1.0,12.0,13.038404810405298,12.0,40.0,35.0,23.021728866442675
299,670,1.4142135623730951,71.25307010929424,9.0,13.038404810405298,18.110770276274835,20.09975124224178,26.92582403567252,49.8196748283246,36.87817782917155,35.5,34.0,40.0,11.0,12.0,3.0,2.0,10.0,13.038404810405298,12.0,40.0,35.0,21.02379604162864
300,671,2.0,68.26419266350405,11.045361017187261,16.0,16.0312195418814,18.027756377319946,25.96150997149434,54.589376255824725,38.8329756778952,37.0,35.0,41.0,13.0,16.0,2.0,2.0,12.041594578792296,13.038404810405298,11.5,38.0,35.0,23.021728866442675
301,672,2.23606797749979,76.23647421018367,11.045361017187261,14.035668847618199,19.1049731745428,20.09975124224178,26.68332812825267,53.75872022286245,39.81205847478876,38.0,37.0,43.0,14.0,13.0,4.0,3.0,10.0,9.055385138137417,8.0,39.0,30.0,23.0
302,673,4.123105625617661,70.178344238091,12.041594578792296,16.0,19.026297590440446,20.09975124224178,25.709920264364882,57.55866572463264,41.773197148410844,39.0,37.0,42.0,14.5,17.5,1.5,2.5,12.041594578792296,13.038404810405298,12.5,40.0,36.0,22.02271554554524
303,674,2.23606797749979,71.25307010929424,10.04987562112089,15.033296378372908,18.027756377319946,19.1049731745428,27.65863337187866,54.74486277268398,39.81205847478876,38.0,36.0,42.0,12.0,15.0,3.0,2.0,13.038404810405298,14.035668847618199,13.0,40.0,36.0,22.02271554554524
304,675,2.23606797749979,74.10802925459562,9.055385138137417,14.035668847618199,18.027756377319946,19.026297590440446,29.832867780352597,54.91812087098393,41.0,39.0,38.0,42.0,11.0,14.0,2.0,2.0,12.0,13.0,12.0,37.0,33.0,22.0
305,676,2.0,77.23341245859851,10.04987562112089,14.035668847618199,19.1049731745428,21.095023109728988,27.459060435491963,53.46026561849464,39.45883931389772,38.0,35.0,41.0,11.0,15.0,2.0,1.0,13.038404810405298,13.038404810405298,12.5,40.0,36.0,25.019992006393608
306,677,3.1622776601683795,77.1621668954417,10.0,14.0,20.09975124224178,22.02271554554524,27.65863337187866,54.45181356024793,40.607881008493905,38.5,36.0,41.0,11.5,15.5,1.5,1.5,13.0,15.0,14.5,38.0,35.0,25.079872407968907
307,678,3.0,95.13148795220224,10.04987562112089,18.0,25.079872407968907,26.019223662515376,24.515301344262525,55.326304774492215,37.48332962798263,35.5,35.0,40.0,13.5,17.5,2.5,3.5,13.038404810405298,14.035668847618199,13.0,51.0,36.0,36.22154055254967
308,679,4.0,80.15609770940699,11.045361017187261,13.0,20.024984394500787,23.021728866442675,27.294688127912362,55.226805085936306,42.2965719651132,40.0,38.0,43.0,13.5,14.5,0.5,2.5,15.0,14.0,14.5,38.0,36.0,27.0
309,680,2.0,78.10249675906654,9.0,14.0,17.029386365926403,19.026297590440446,30.265491900843113,55.14526271584895,41.19465984809196,40.0,38.0,42.0,10.0,15.0,1.0,1.0,14.035668847618199,16.0312195418814,15.0,39.0,37.0,30.066592756745816
310,681,2.23606797749979,78.05767098754612,10.04987562112089,15.033296378372908,19.026297590440446,20.024984394500787,29.274562336608895,56.22277118748239,41.19465984809196,40.0,40.0,43.0,12.5,14.5,1.5,2.5,14.035668847618199,14.035668847618199,14.0,36.0,37.0,28.0178514522438
311,682,3.1622776601683795,87.02298546935747,11.045361017187261,12.041594578792296,21.0,22.0,27.16615541441225,53.33854141237835,41.30375285612676,39.5,42.0,44.0,16.0,10.0,3.0,6.0,14.035668847618199,16.0,14.5,35.0,35.0,25.019992006393608
312,683,3.0,85.0235261559999,11.045361017187261,14.142135623730951,21.0,22.02271554554524,26.076809620810597,54.230987451824994,40.11234224026316,38.5,40.0,42.0,15.0,13.0,2.0,4.0,15.0,15.033296378372908,14.0,37.0,39.0,29.154759474226502
313,684,2.0,89.05054744357274,13.0,15.033296378372908,22.0,24.0,23.53720459187964,53.33854141237835,38.3275357934736,37.0,39.0,42.0,17.5,12.5,2.5,4.5,12.0,14.0,13.5,35.0,38.0,27.073972741361768
314,685,1.4142135623730951,93.00537618869137,11.045361017187261,14.035668847618199,25.019992006393608,26.019223662515376,26.076809620810597,52.23983154643591,38.2099463490856,37.5,40.0,41.0,14.5,11.5,2.5,3.5,13.0,15.033296378372908,14.5,33.0,36.0,28.284271247461902
315,686,7.0710678118654755,97.02061636580135,11.0,12.0,27.018512172212592,29.017236257093817,24.186773244895647,54.147945482723536,42.190046219457976,38.5,40.0,42.0,17.0,13.0,1.0,6.0,13.0,14.0,14.0,33.0,36.0,33.13608305156178
316,687,4.0,93.02150289046077,10.04987562112089,13.038404810405298,25.019992006393608,26.019223662515376,27.16615541441225,54.230987451824994,41.19465984809196,39.0,41.0,39.0,13.0,14.0,1.0,4.0,14.035668847618199,14.0,13.5,33.0,36.0,31.25699921617557
317,688,5.0,95.02105029939419,9.055385138137417,13.038404810405298,25.0,26.019223662515376,30.14962686336267,57.21887800367987,44.181444068749045,41.5,42.0,40.0,11.0,16.0,2.0,3.0,15.0,14.0,14.0,36.0,39.0,37.12142238654117
318,689,5.0,97.0051545022222,9.0,11.045361017187261,26.0,27.018512172212592,30.14962686336267,55.14526271584895,44.10215414239989,41.5,41.0,40.0,10.5,14.5,2.5,2.5,13.0,13.038404810405298,13.0,36.0,39.0,37.21558813185679
319,690,4.123105625617661,97.02061636580135,10.0,13.0,27.0,27.018512172212592,28.071337695236398,55.08175741568164,42.1070065428546,40.0,41.0,39.0,12.0,15.0,1.0,3.0,13.0,13.038404810405298,13.5,36.0,39.0,38.2099463490856
320,691,2.0,99.00505037623081,9.0,12.0,27.018512172212592,28.0,29.017236257093817,52.009614495783374,40.01249804748511,39.0,38.0,37.0,8.5,14.5,1.5,0.5,14.0,13.0,13.5,37.0,39.0,40.11234224026316
321,692,1.4142135623730951,96.00520819205592,9.0,11.0,27.0,28.0178514522438,28.0178514522438,49.040799340956916,38.05259518088089,37.5,36.0,35.0,7.5,13.5,0.5,0.5,15.0,15.033296378372908,15.0,34.0,37.0,39.20459156782532
322,693,1.0,95.00526301210897,9.055385138137417,12.041594578792296,27.0,28.0,25.019992006393608,47.095647357266465,35.05709628591621,34.5,34.0,33.0,8.5,13.5,0.5,0.5,14.0,14.035668847618199,14.0,35.0,39.0,35.12833614050059
323,694,2.23606797749979,91.02197536858887,10.0,11.0,26.0,27.018512172212592,22.02271554554524,45.044422518220834,34.058772731852805,33.0,33.0,31.0,10.0,13.0,0.0,1.0,13.038404810405298,12.165525060596439,12.5,36.0,39.0,36.22154055254967
324,695,3.1622776601683795,92.0869154657707,10.04987562112089,13.038404810405298,26.0,27.018512172212592,24.08318915758459,50.08991914547278,37.05401462729781,35.5,35.0,31.0,9.0,17.0,2.0,0.0,14.0,13.038404810405298,13.0,35.0,38.0,37.21558813185679
325,696,2.0,88.02272433866155,9.0,11.045361017187261,25.079872407968907,26.019223662515376,25.079872407968907,47.095647357266465,36.05551275463989,35.0,35.0,33.0,9.0,13.0,1.0,2.0,12.0,12.041594578792296,11.5,37.0,40.0,37.12142238654117
326,697,6.0,103.07764064044152,10.0,12.0,31.0,32.01562118716424,25.0,53.0,41.0,38.0,36.0,40.0,13.0,15.0,1.0,4.0,13.0,14.035668847618199,13.5,32.0,36.0,35.510561809129406
327,698,9.055385138137417,102.0196059588548,8.0,11.0,31.0,31.016124838541646,27.0,55.00909015790027,44.01136216933077,39.5,37.0,35.0,9.0,19.0,7.0,2.0,13.0,12.041594578792296,12.0,33.0,35.0,38.05259518088089
328,699,17.11724276862369,107.46627377926528,7.0710678118654755,7.0710678118654755,31.064449134018133,32.14031735997639,15.033296378372908,46.09772228646444,39.05124837953327,30.5,26.0,16.0,6.0,25.0,17.0,2.0,12.041594578792296,10.04987562112089,9.5,34.0,35.0,35.12833614050059
329,700,6.082762530298219,103.04368005850722,9.0,14.035668847618199,29.017236257093817,32.0624390837628,21.02379604162864,50.08991914547278,36.05551275463989,33.0,26.0,23.0,3.5,25.5,9.5,3.5,10.0,8.06225774829855,8.0,30.0,35.0,37.12142238654117
330,701,14.0,118.4229707446997,9.055385138137417,18.027756377319946,35.12833614050059,37.21558813185679,19.0,60.03332407921454,42.01190307520001,35.0,26.0,16.0,2.0,39.0,20.0,2.0,13.0,13.152946437965905,12.5,36.0,37.0,38.118237105091836
331,702,11.180339887498949,108.55873986004075,7.0710678118654755,14.0,32.38826948140329,33.24154027718932,26.1725046566048,58.0,44.0,38.5,40.0,29.0,8.5,23.5,9.5,5.5,16.0,17.11724276862369,16.5,33.0,39.0,40.311288741492746
332,703,3.605551275463989,100.71742649611338,7.0,13.038404810405298,29.068883707497267,30.14962686336267,31.064449134018133,54.00925846556311,41.0,39.5,41.0,29.0,4.0,19.0,6.0,0.0,15.0,17.029386365926403,17.0,35.0,41.0,39.45883931389772
333,704,4.0,78.5175139698144,10.04987562112089,16.1245154965971,21.213203435596427,22.090722034374522,32.2490309931942,62.39390995922599,46.2709412050371,44.0,43.0,52.0,15.5,14.5,3.5,4.5,9.055385138137417,10.198039027185569,10.5,40.0,29.0,36.124783736376884
334,705,7.0710678118654755,93.40770846134703,12.165525060596439,15.297058540778355,22.47220505424423,24.698178070456937,28.0178514522438,62.39390995922599,47.16990566028302,43.5,32.0,57.0,16.5,17.5,3.5,1.5,12.165525060596439,11.40175425099138,11.0,48.0,17.0,43.965895873961216
335,706,9.219544457292887,77.87810988975015,11.045361017187261,15.297058540778355,20.223748416156685,22.561028345356956,23.53720459187964,59.033888572581766,43.73785545725808,38.5,36.0,53.0,21.5,13.5,4.5,9.5,13.152946437965905,13.152946437965905,13.0,40.0,19.0,36.22154055254967
336,707,5.385164807134504,106.88779163215975,11.180339887498949,13.152946437965905,29.427877939124322,29.614185789921695,28.284271247461902,48.05205510693585,34.92849839314596,36.5,26.0,46.0,8.0,11.0,7.0,4.0,13.152946437965905,13.038404810405298,13.0,46.0,30.0,38.05259518088089
337,708,8.94427190999916,83.81527307120105,8.06225774829855,10.198039027185569,21.840329667841555,23.08679276123039,29.427877939124322,56.293871780150276,46.09772228646444,41.0,39.0,64.0,22.5,3.5,11.5,11.5,9.219544457292887,10.04987562112089,9.5,47.0,34.0,44.10215414239989
338,709,13.038404810405298,90.19977827023745,10.0,12.0,24.020824298928627,25.0,29.017236257093817,64.03124237432849,52.03844732503075,45.5,48.0,54.0,22.0,13.0,1.0,11.0,14.0,14.035668847618199,14.0,42.0,36.0,38.0
339,710,16.0312195418814,95.02105029939419,11.0,15.033296378372908,28.0,30.0,27.294688127912362,69.1158447825099,54.230987451824994,46.0,50.0,52.0,24.0,18.0,2.0,13.0,10.0,10.0,10.0,35.0,32.0,36.013886210738214
340,711,2.23606797749979,94.13288479590966,10.0,13.038404810405298,27.018512172212592,26.019223662515376,25.079872407968907,50.15974481593781,37.12142238654117,36.0,35.0,40.0,12.5,12.5,1.5,3.5,10.0,9.055385138137417,8.5,32.0,29.0,37.05401462729781
341,712,1.4142135623730951,95.42536350467836,10.0,14.035668847618199,24.020824298928627,25.179356624028344,25.179356624028344,50.24937810560445,36.22154055254967,35.5,33.0,42.0,12.5,12.5,3.5,3.5,14.142135623730951,15.033296378372908,14.5,39.0,31.0,40.11234224026316
342,713,3.1622776601683795,88.05112151472007,12.0,15.033296378372908,27.018512172212592,28.0,25.079872407968907,55.036351623268054,40.01249804748511,38.5,35.0,38.0,11.5,18.5,1.5,0.5,13.038404810405298,10.04987562112089,10.5,41.0,36.0,36.0
343,714,4.0,88.2779700718135,12.041594578792296,15.033296378372908,27.073972741361768,27.018512172212592,25.0,56.0357029044876,41.012193308819754,39.0,35.0,42.0,13.5,17.5,0.5,2.5,13.038404810405298,12.0,12.0,40.0,34.0,38.01315561749642
344,715,4.123105625617661,90.44888059008801,10.0,12.0,27.073972741361768,27.018512172212592,27.073972741361768,53.08483775994799,41.10960958218893,39.0,34.0,43.0,11.5,14.5,0.5,1.5,13.038404810405298,14.0,13.5,41.0,32.0,41.012193308819754
345,716,5.0990195135927845,90.35485598461214,11.045361017187261,14.035668847618199,28.160255680657446,29.154759474226502,25.019992006393608,55.14526271584895,41.10960958218893,38.5,33.0,41.0,12.0,18.0,1.0,1.0,14.035668847618199,14.0,13.5,41.0,32.0,37.05401462729781
346,717,4.0,87.46427842267951,10.04987562112089,12.165525060596439,27.16615541441225,29.068883707497267,26.0,52.08646657242167,40.01249804748511,38.0,33.0,42.0,11.5,14.5,0.5,1.5,15.132745950421556,15.0,14.5,41.0,32.0,36.013886210738214
347,718,1.0,90.55385138137417,12.041594578792296,11.180339887498949,27.16615541441225,27.16615541441225,25.079872407968907,49.25444142409901,38.118237105091836,37.5,33.0,43.0,13.0,11.0,3.0,1.0,13.152946437965905,14.0,14.0,42.0,30.0,40.0
348,719,1.4142135623730951,91.7877987534291,11.045361017187261,13.152946437965905,26.1725046566048,27.073972741361768,23.021728866442675,48.25971404805462,35.12833614050059,34.5,29.0,41.0,12.0,13.0,3.0,1.0,14.142135623730951,14.035668847618199,13.5,42.0,32.0,37.0
349,720,1.4142135623730951,89.80534505250787,10.04987562112089,10.198039027185569,26.1725046566048,26.30589287593181,25.079872407968907,46.389654018972806,36.22154055254967,35.5,30.0,42.0,11.0,10.0,3.0,1.0,13.038404810405298,14.035668847618199,14.0,43.0,32.0,34.0147027033899
350,721,4.47213595499958,92.91393867445294,9.0,11.045361017187261,27.16615541441225,28.160255680657446,22.20360331117452,46.389654018972806,35.35533905932738,33.0,28.0,41.0,12.5,11.5,2.5,3.5,13.038404810405298,14.035668847618199,13.0,42.0,30.0,36.0
351,722,2.23606797749979,89.80534505250787,10.04987562112089,11.045361017187261,27.073972741361768,27.16615541441225,23.021728866442675,46.17358552246078,35.12833614050059,34.0,30.0,42.0,13.0,10.0,4.0,3.0,13.038404810405298,14.0,13.5,41.0,30.0,40.01249804748511
352,723,3.0,95.88534820294495,11.045361017187261,11.180339887498949,31.25699921617557,32.14031735997639,22.20360331117452,47.38143096192854,36.22154055254967,34.5,30.0,43.0,14.5,10.5,4.5,2.5,15.033296378372908,14.0,14.5,42.0,30.0,39.0
353,724,2.23606797749979,90.79647570252934,10.04987562112089,11.180339887498949,28.284271247461902,28.160255680657446,25.079872407968907,48.373546489791295,37.21558813185679,36.0,32.0,44.0,13.0,10.0,5.0,2.0,13.152946437965905,13.0,13.5,43.0,31.0,39.0
354,725,3.1622776601683795,94.76286192385707,11.0,13.152946437965905,29.154759474226502,30.14962686336267,23.194827009486403,50.35871324805669,37.21558813185679,35.5,31.0,43.0,14.0,13.0,3.0,3.0,14.142135623730951,14.0,13.5,43.0,31.0,36.0
355,726,2.23606797749979,95.88534820294495,10.04987562112089,12.165525060596439,28.160255680657446,28.160255680657446,24.08318915758459,48.373546489791295,36.22154055254967,35.0,30.0,43.0,12.5,11.5,3.5,1.5,13.038404810405298,14.035668847618199,13.5,42.0,30.0,37.013511046643494
356,727,0.0,94.76286192385707,10.04987562112089,12.165525060596439,28.160255680657446,28.284271247461902,26.019223662515376,48.16637831516918,36.05551275463989,36.0,31.0,43.0,11.0,11.0,4.0,1.0,14.142135623730951,15.033296378372908,14.5,42.0,30.0,38.05259518088089
357,728,1.0,95.75489543621255,11.045361017187261,13.152946437965905,28.160255680657446,29.154759474226502,26.019223662515376,51.15662224971465,38.05259518088089,37.5,33.0,45.0,13.0,12.0,4.0,2.0,15.132745950421556,15.033296378372908,14.5,43.0,31.0,38.0
358,729,1.4142135623730951,93.7709976485267,9.055385138137417,11.180339887498949,28.160255680657446,28.160255680657446,28.071337695236398,49.36598018878993,38.2099463490856,37.5,32.0,44.0,10.0,11.0,3.0,1.0,13.152946437965905,14.035668847618199,13.5,42.0,30.0,36.0
359,730,2.23606797749979,95.88534820294495,10.04987562112089,13.341664064126334,28.284271247461902,29.274562336608895,26.076809620810597,51.478150704935004,38.2099463490856,37.0,31.0,44.0,11.5,13.5,2.5,0.5,14.142135623730951,14.035668847618199,13.5,43.0,31.0,37.013511046643494
360,731,1.4142135623730951,97.01546268507923,10.04987562112089,12.165525060596439,27.16615541441225,28.160255680657446,26.1725046566048,49.49747468305833,37.33630940518894,36.5,30.0,44.0,11.0,12.0,3.0,1.0,13.152946437965905,14.035668847618199,14.0,43.0,32.0,36.013886210738214
361,732,1.4142135623730951,94.89467845985885,10.04987562112089,12.165525060596439,27.16615541441225,28.160255680657446,27.16615541441225,50.48762224545735,38.3275357934736,37.5,32.0,45.0,11.5,11.5,3.5,1.5,13.038404810405298,14.0,14.0,45.0,32.0,38.01315561749642
362,733,1.4142135623730951,98.00510190801293,9.055385138137417,12.165525060596439,28.284271247461902,29.274562336608895,28.160255680657446,50.48762224545735,38.3275357934736,37.5,31.0,45.0,10.0,12.0,3.0,1.0,13.152946437965905,14.0,13.5,42.0,30.0,36.0
363,734,3.1622776601683795,95.88534820294495,10.04987562112089,12.165525060596439,28.160255680657446,28.284271247461902,26.076809620810597,51.35172830587107,39.20459156782532,37.5,31.0,44.0,11.5,13.5,2.5,1.5,14.142135623730951,14.035668847618199,14.0,43.0,30.0,37.0
364,735,1.0,95.88534820294495,9.055385138137417,11.180339887498949,27.294688127912362,28.284271247461902,27.073972741361768,48.25971404805462,37.12142238654117,36.5,31.0,44.0,10.5,10.5,3.5,0.5,13.152946437965905,14.035668847618199,14.0,42.0,30.0,36.0
365,736,2.23606797749979,99.84988733093293,9.055385138137417,10.04987562112089,29.154759474226502,29.154759474226502,27.16615541441225,48.373546489791295,38.3275357934736,37.0,31.0,44.0,10.5,10.5,2.5,1.5,13.152946437965905,13.038404810405298,13.5,42.0,30.0,37.013511046643494
366,737,3.1622776601683795,98.99494936611666,8.06225774829855,11.180339887498949,29.274562336608895,30.265491900843113,27.018512172212592,49.25444142409901,38.118237105091836,36.5,30.0,44.0,10.0,12.0,3.0,1.0,13.152946437965905,13.152946437965905,13.0,42.0,31.0,36.013886210738214
367,738,4.123105625617661,99.84988733093293,9.055385138137417,11.180339887498949,29.154759474226502,29.274562336608895,27.073972741361768,51.35172830587107,40.19950248448356,38.0,31.0,44.0,10.5,13.5,0.5,1.5,13.152946437965905,13.038404810405298,13.5,42.0,30.0,36.013886210738214
368,739,2.23606797749979,100.9752444909147,9.055385138137417,11.180339887498949,28.284271247461902,28.160255680657446,27.073972741361768,49.36598018878993,38.2099463490856,37.0,31.0,45.0,11.0,11.0,3.0,1.0,16.0312195418814,15.132745950421556,15.0,43.0,32.0,37.0
369,740,3.1622776601683795,98.73196037757987,11.045361017187261,13.152946437965905,29.274562336608895,30.265491900843113,25.079872407968907,52.3450093132096,39.20459156782532,37.5,32.0,44.0,13.0,14.0,2.0,1.0,14.142135623730951,13.038404810405298,13.5,43.0,33.0,36.0
370,741,4.0,96.87620966986684,10.04987562112089,12.165525060596439,27.16615541441225,28.160255680657446,26.019223662515376,52.15361924162119,40.049968789001575,38.0,31.0,44.0,11.5,14.5,1.5,1.5,14.142135623730951,15.033296378372908,14.5,42.0,30.0,37.013511046643494
371,742,1.0,99.98499887483122,8.246211251235321,11.045361017187261,27.294688127912362,29.274562336608895,29.017236257093817,48.25971404805462,37.21558813185679,37.0,32.0,46.0,10.0,9.0,6.0,1.0,13.152946437965905,14.035668847618199,14.0,40.0,27.0,37.013511046643494
372,743,6.082762530298219,100.9752444909147,8.06225774829855,11.180339887498949,27.294688127912362,29.274562336608895,27.073972741361768,52.3450093132096,41.19465984809196,38.0,32.0,46.0,12.0,13.0,1.0,3.0,14.035668847618199,14.0,14.0,42.0,30.0,38.01315561749642
373,744,1.0,98.85848471426213,9.219544457292887,11.180339887498949,28.284271247461902,29.274562336608895,28.071337695236398,49.36598018878993,38.2099463490856,37.5,33.0,46.0,11.5,9.5,4.5,1.5,12.165525060596439,14.035668847618199,14.0,42.0,29.0,38.05259518088089
374,745,5.0990195135927845,97.16480844420988,9.055385138137417,11.180339887498949,27.294688127912362,28.284271247461902,27.018512172212592,52.23983154643591,41.10960958218893,38.5,31.0,46.0,11.5,13.5,1.5,1.5,14.142135623730951,14.035668847618199,14.0,43.0,30.0,37.013511046643494
375,746,1.0,94.2019108086455,10.04987562112089,12.165525060596439,27.294688127912362,28.442925306655784,25.079872407968907,47.38143096192854,35.22782990761707,35.0,29.0,44.0,11.5,10.5,4.5,0.5,13.152946437965905,15.033296378372908,15.0,43.0,28.0,39.05124837953327
376,747,1.0,94.2019108086455,10.04987562112089,11.180339887498949,26.30589287593181,28.442925306655784,25.179356624028344,46.52956049652737,35.35533905932738,35.0,29.0,44.0,11.5,9.5,4.5,0.5,14.142135623730951,13.038404810405298,13.0,44.0,29.0,36.013886210738214
377,748,1.0,96.33794683301072,8.06225774829855,11.180339887498949,26.30589287593181,27.294688127912362,28.160255680657446,47.51841748206689,36.345563690772494,36.0,29.0,45.0,9.0,10.0,5.0,0.0,14.142135623730951,14.035668847618199,14.0,43.0,27.0,37.05401462729781
378,749,1.0,96.33794683301072,10.198039027185569,11.180339887498949,27.294688127912362,28.442925306655784,25.079872407968907,46.52956049652737,35.35533905932738,35.0,28.0,44.0,11.0,10.0,5.0,0.0,14.317821063276353,14.035668847618199,14.0,45.0,28.0,36.05551275463989
379,750,2.0,97.32420048477151,10.04987562112089,11.180339887498949,27.294688127912362,28.442925306655784,25.179356624028344,46.69047011971501,35.510561809129406,35.0,29.0,45.0,12.0,9.0,6.0,1.0,13.341664064126334,14.035668847618199,14.0,44.0,27.0,38.118237105091836
380,751,2.0,97.49358953285082,9.055385138137417,10.198039027185569,28.442925306655784,28.442925306655784,25.179356624028344,44.721359549995796,34.52535300326414,34.0,27.0,44.0,10.5,8.5,5.5,0.5,14.317821063276353,14.035668847618199,14.0,44.0,28.0,37.12142238654117
381,752,2.23606797749979,95.35197952848173,10.04987562112089,12.165525060596439,27.459060435491963,27.459060435491963,23.194827009486403,44.721359549995796,32.55764119219941,32.5,26.0,42.0,11.0,10.0,5.0,0.0,13.152946437965905,14.035668847618199,14.0,44.0,28.0,36.013886210738214
382,753,1.4142135623730951,94.36630754670864,8.06225774829855,11.180339887498949,26.30589287593181,28.284271247461902,24.08318915758459,44.40720662234904,33.24154027718932,32.5,26.0,42.0,10.0,10.0,5.0,1.0,14.142135623730951,15.033296378372908,14.5,44.0,28.0,33.06055050963308
383,754,8.06225774829855,102.96115772464877,9.219544457292887,12.36931687685298,28.442925306655784,29.614185789921695,22.090722034374522,51.62363799656123,39.319206502675,35.0,26.0,46.0,14.0,15.0,2.0,3.0,10.04987562112089,11.180339887498949,11.0,41.0,23.0,29.068883707497267
384,755,1.0,108.67382389517726,10.04987562112089,11.045361017187261,29.427877939124322,28.861739379323623,23.021728866442675,44.04543109109048,33.015148038438355,33.0,26.0,45.0,12.5,8.5,6.5,0.5,12.165525060596439,12.041594578792296,12.0,45.0,29.0,33.24154027718932
385,756,20.0,116.41735265844177,9.055385138137417,14.035668847618199,35.90264614203248,38.3275357934736,24.331050121192877,67.02984409947557,53.08483775994799,43.0,27.0,55.0,17.0,26.0,5.0,5.0,10.04987562112089,11.045361017187261,10.0,42.0,25.0,31.144823004794873
386,757,8.0,106.23088063270491,10.04987562112089,10.198039027185569,32.7566787083184,34.20526275297414,24.020824298928627,52.03844732503075,42.0,38.0,30.0,56.0,19.0,9.0,7.0,7.0,12.165525060596439,13.038404810405298,12.5,44.0,27.0,37.12142238654117
387,758,13.038404810405298,105.26157893552613,10.04987562112089,13.038404810405298,31.78049716414141,34.48187929913333,24.020824298928627,60.03332407921454,47.01063709417264,40.5,31.0,57.0,20.0,16.0,4.0,8.0,12.165525060596439,14.035668847618199,13.5,41.0,26.0,36.124783736376884
388,759,7.0710678118654755,110.45361017187261,8.06225774829855,13.038404810405298,30.066592756745816,32.2490309931942,19.1049731745428,47.01063709417264,34.058772731852805,30.5,21.0,31.0,7.0,21.0,5.0,0.0,13.152946437965905,13.038404810405298,12.5,45.0,29.0,37.05401462729781
389,760,2.23606797749979,95.88013350011565,10.198039027185569,13.341664064126334,27.65863337187866,29.120439557122072,23.021728866442675,48.25971404805462,35.05709628591621,34.0,27.0,54.0,17.5,7.5,10.5,5.5,13.152946437965905,14.0,13.5,44.0,29.0,33.06055050963308
390,761,19.026297590440446,109.14210919713803,10.04987562112089,12.041594578792296,32.55764119219941,33.95585369269929,21.213203435596427,62.03224967708329,50.08991914547278,40.5,28.0,54.0,20.0,21.0,3.0,8.0,12.165525060596439,14.0,13.5,44.0,28.0,36.124783736376884
391,762,2.23606797749979,94.14881836751856,10.04987562112089,12.041594578792296,28.442925306655784,29.614185789921695,21.095023109728988,44.40720662234904,32.38826948140329,31.5,27.0,47.0,16.0,7.0,9.0,4.0,13.152946437965905,13.038404810405298,13.0,45.0,30.0,36.013886210738214
392,763,3.1622776601683795,100.22474744293447,10.04987562112089,10.198039027185569,28.442925306655784,28.442925306655784,25.019992006393608,42.2965719651132,32.14031735997639,33.5,26.0,47.0,11.5,5.5,8.5,0.5,12.165525060596439,12.041594578792296,11.5,44.0,29.0,39.11521443121589
393,764,2.23606797749979,94.89467845985885,9.055385138137417,12.165525060596439,25.179356624028344,26.30589287593181,22.20360331117452,45.5411901469428,33.37663853655727,32.0,25.0,38.0,9.5,13.5,0.5,0.5,13.152946437965905,12.041594578792296,12.0,43.0,29.0,35.05709628591621
394,765,2.23606797749979,90.79647570252934,10.04987562112089,13.152946437965905,26.076809620810597,26.1725046566048,23.08679276123039,47.51841748206689,34.36568055487916,33.5,26.0,38.0,9.0,15.0,1.0,1.0,13.152946437965905,13.038404810405298,13.5,46.0,30.0,32.01562118716424
395,766,2.8284271247461903,90.93404203047393,12.041594578792296,15.297058540778355,28.160255680657446,30.265491900843113,21.095023109728988,50.635955604688654,35.35533905932738,34.0,28.0,41.0,13.5,15.5,1.5,1.5,13.341664064126334,14.035668847618199,13.5,44.0,30.0,33.0
396,767,6.324555320336759,89.67719888578144,13.0,17.029386365926403,29.154759474226502,30.066592756745816,18.439088914585774,54.45181356024793,37.48332962798263,34.0,30.0,41.0,17.5,18.5,1.5,3.5,12.36931687685298,14.035668847618199,13.5,44.0,31.0,36.0
397,768,3.1622776601683795,90.79647570252934,11.045361017187261,17.11724276862369,26.076809620810597,27.16615541441225,24.186773244895647,55.44366510251645,38.3275357934736,36.5,30.0,42.0,12.0,19.0,1.0,1.0,14.317821063276353,15.033296378372908,14.5,44.0,30.0,39.05124837953327
398,769,3.1622776601683795,89.67719888578144,10.04987562112089,14.142135623730951,29.068883707497267,30.265491900843113,25.179356624028344,52.46903848937962,38.3275357934736,36.5,30.0,41.0,10.5,16.5,0.5,1.5,14.142135623730951,14.0,14.0,44.0,30.0,38.0
399,770,5.0990195135927845,87.82368700982668,8.06225774829855,13.152946437965905,26.076809620810597,28.160255680657446,27.073972741361768,53.33854141237835,40.19950248448356,37.5,31.0,43.0,10.0,16.0,0.0,2.0,13.152946437965905,14.0,13.5,42.0,30.0,35.014282800023196
400,771,5.385164807134504,91.7877987534291,9.0,14.142135623730951,29.154759474226502,29.154759474226502,24.186773244895647,52.46903848937962,38.3275357934736,35.5,29.0,41.0,11.0,17.0,0.0,2.0,13.152946437965905,13.0,13.0,39.0,27.0,36.013886210738214
401,772,7.0710678118654755,92.77930803794561,8.06225774829855,12.165525060596439,29.068883707497267,30.265491900843113,26.019223662515376,53.23532661682466,41.10960958218893,37.5,30.0,42.0,10.0,17.0,1.0,3.0,14.035668847618199,15.033296378372908,14.0,40.0,27.0,35.014282800023196
402,773,1.0,91.54780172128658,9.055385138137417,15.132745950421556,26.1725046566048,27.16615541441225,26.076809620810597,51.24451190127583,36.124783736376884,35.5,30.0,40.0,9.0,16.0,2.0,0.0,12.041594578792296,13.038404810405298,12.5,40.0,30.0,34.0147027033899
403,774,1.4142135623730951,91.6624241442479,10.04987562112089,14.142135623730951,27.16615541441225,28.160255680657446,24.020824298928627,49.25444142409901,35.12833614050059,34.5,29.0,40.0,10.5,14.5,3.5,0.5,13.152946437965905,13.038404810405298,12.5,40.0,29.0,35.014282800023196
404,775,0.0,93.64827814754524,10.04987562112089,14.142135623730951,27.073972741361768,29.154759474226502,25.0,49.09175083453431,35.014282800023196,35.0,29.0,40.0,9.5,14.5,2.5,0.5,13.152946437965905,12.041594578792296,12.5,41.0,31.0,37.013511046643494
405,776,2.0,94.53041838477179,10.0,13.038404810405298,31.144823004794873,31.144823004794873,24.08318915758459,49.09175083453431,36.05551275463989,35.0,29.0,39.0,10.0,15.0,2.0,0.0,11.180339887498949,13.038404810405298,12.0,37.0,27.0,32.01562118716424
406,777,2.23606797749979,96.51942809610924,10.0,14.035668847618199,28.160255680657446,30.14962686336267,26.076809620810597,52.15361924162119,38.118237105091836,37.0,32.0,42.0,11.0,15.0,2.0,1.0,14.142135623730951,14.0,14.0,41.0,32.0,36.0
407,778,9.055385138137417,96.33275663033837,9.0,13.038404810405298,28.071337695236398,29.017236257093817,27.018512172212592,58.077534382926416,45.044422518220834,40.5,33.0,41.0,10.0,21.0,6.0,1.0,13.038404810405298,14.035668847618199,13.5,41.0,33.0,35.0
408,779,8.06225774829855,95.33624704172071,11.045361017187261,15.033296378372908,28.071337695236398,30.14962686336267,25.019992006393608,59.135437767890075,44.10215414239989,40.0,34.0,42.0,13.0,21.0,3.0,2.0,14.142135623730951,15.033296378372908,14.5,40.0,32.0,35.014282800023196
409,780,8.0,97.25224933131366,10.04987562112089,13.038404810405298,29.068883707497267,30.066592756745816,26.0,57.0350769263968,44.01136216933077,40.0,35.0,42.0,12.5,18.5,2.5,2.5,15.033296378372908,15.0,14.5,41.0,33.0,37.013511046643494
410,781,8.06225774829855,95.25754563287887,10.04987562112089,14.0,27.073972741361768,28.0178514522438,25.019992006393608,57.0087712549569,43.01162633521314,39.0,33.0,40.0,11.5,20.5,4.5,1.5,14.035668847618199,14.0,14.0,42.0,36.0,36.013886210738214
411,782,3.1622776601683795,96.25487000666512,11.0,14.035668847618199,29.068883707497267,29.068883707497267,26.0,54.037024344425184,40.01249804748511,38.5,36.0,43.0,13.5,14.5,2.5,3.5,14.035668847618199,14.035668847618199,14.0,41.0,36.0,34.0147027033899
412,783,5.0,96.13012014972206,9.055385138137417,12.041594578792296,27.018512172212592,28.0178514522438,28.071337695236398,54.0,42.01190307520001,39.5,37.0,42.0,11.5,14.5,0.5,3.5,13.0,13.0,13.0,39.0,34.0,36.013886210738214
413,784,9.0,96.08329719571451,10.0,12.041594578792296,27.018512172212592,28.0178514522438,25.079872407968907,56.00892785976178,44.04543109109048,39.5,37.0,41.0,14.0,17.0,3.0,4.0,12.041594578792296,13.0,12.5,40.0,36.0,36.013886210738214
414,785,7.0,95.04735661763561,8.0,10.0,26.0,27.0,28.160255680657446,53.08483775994799,43.104524124504614,39.5,39.0,42.0,12.5,12.5,1.5,5.5,12.0,12.0,11.5,37.0,34.0,36.013886210738214
415,786,6.082762530298219,93.04837451562494,9.0,11.045361017187261,25.019992006393608,25.019992006393608,27.294688127912362,53.03772242470448,42.1070065428546,39.0,38.0,41.0,12.5,13.5,1.5,3.5,12.0,12.0,11.5,38.0,36.0,36.013886210738214
416,787,9.055385138137417,97.04638066409278,10.0,12.0,26.019223662515376,27.018512172212592,26.30589287593181,57.07889277132134,45.09988913511872,40.5,38.0,41.0,13.5,17.5,3.5,3.5,12.041594578792296,13.0,12.5,37.0,36.0,33.015148038438355
417,788,9.0,89.08984229416954,10.04987562112089,11.0,24.0,25.0,28.284271247461902,58.215118311311535,47.265209192385896,42.5,39.0,43.0,13.0,17.0,4.0,4.0,11.0,11.0,10.0,38.0,36.0,33.13608305156178
418,789,6.324555320336759,90.0,8.06225774829855,14.0,23.021728866442675,25.019992006393608,30.265491900843113,58.42088667591412,44.553338819890925,41.0,41.0,41.0,11.0,17.0,2.0,4.0,12.0,13.0,12.0,36.0,37.0,32.01562118716424
419,790,12.165525060596439,86.00581375697809,10.0,12.041594578792296,23.0,24.020824298928627,26.476404589747453,60.530983801686226,48.507731342539614,42.0,40.0,41.0,14.5,19.5,5.5,5.5,13.0,13.038404810405298,12.0,35.0,38.0,29.068883707497267
420,791,9.055385138137417,90.00555538409837,10.04987562112089,14.035668847618199,24.0,25.019992006393608,26.476404589747453,59.53990258641679,45.5411901469428,40.5,38.0,39.0,12.5,20.5,4.5,3.5,12.0,13.038404810405298,12.0,35.0,38.0,30.14962686336267
421,792,6.082762530298219,85.00588214941364,9.055385138137417,12.041594578792296,22.0,22.02271554554524,28.635642126552707,55.731499172371095,43.73785545725808,40.0,39.0,38.0,10.5,16.5,2.5,2.5,14.0,13.038404810405298,12.5,37.0,40.0,32.01562118716424
422,793,4.123105625617661,82.00609733428362,8.0,12.165525060596439,20.0,22.0,29.614185789921695,53.75872022286245,41.593268686170845,39.0,39.0,38.0,9.5,14.5,0.5,2.5,13.0,13.152946437965905,12.5,36.0,40.0,27.073972741361768
423,794,6.082762530298219,86.0,10.0,13.038404810405298,22.0,23.0,25.96150997149434,54.74486277268398,41.773197148410844,38.0,38.0,38.0,13.0,16.0,2.0,4.0,10.04987562112089,11.045361017187261,10.0,35.0,39.0,28.071337695236398
424,795,5.0,83.02409288875127,9.055385138137417,12.165525060596439,22.02271554554524,24.0,26.68332812825267,52.773099207835045,40.607881008493905,37.5,38.0,36.0,11.0,15.0,2.0,3.0,12.0,12.041594578792296,11.5,35.0,41.0,32.0624390837628
425,796,5.0990195135927845,87.00574693662483,9.055385138137417,12.041594578792296,22.02271554554524,23.0,25.709920264364882,51.78802950489621,39.81205847478876,36.5,36.0,35.0,10.5,15.5,2.5,2.5,10.0,11.045361017187261,10.5,35.0,39.0,27.073972741361768
426,797,5.0990195135927845,84.00595217006948,8.06225774829855,10.04987562112089,20.0,22.0,27.892651361962706,50.99019513592785,41.0,37.5,37.0,36.0,9.5,13.5,1.5,2.5,11.045361017187261,12.041594578792296,11.5,35.0,39.0,29.274562336608895
427,798,2.0,84.0,8.06225774829855,10.198039027185569,21.0,22.0,28.635642126552707,48.83646178829912,38.63935817272331,37.0,37.0,37.0,9.0,11.0,0.0,2.0,11.045361017187261,12.165525060596439,11.0,34.0,40.0,28.160255680657446
428,799,4.0,84.0,10.04987562112089,11.180339887498949,21.0,22.0,24.73863375370596,49.8196748283246,38.63935817272331,36.0,35.0,35.0,11.0,14.0,2.0,2.0,13.0,13.152946437965905,12.0,34.0,40.0,31.064449134018133
429,800,1.4142135623730951,82.00609733428362,7.0710678118654755,11.045361017187261,21.0,22.02271554554524,27.892651361962706,47.07440918375928,36.138621999185304,34.5,37.0,36.0,9.5,9.5,2.5,2.5,13.0,14.035668847618199,13.5,36.0,42.0,28.0178514522438
430,801,1.0,83.00602387778854,8.06225774829855,10.04987562112089,21.0,21.0,28.635642126552707,47.67598976424087,37.656340767525464,36.5,37.0,36.0,8.5,10.5,1.5,1.5,12.0,12.165525060596439,11.5,36.0,42.0,33.06055050963308
431,802,2.0,88.0056816347672,9.055385138137417,11.180339887498949,23.0,24.020824298928627,24.73863375370596,46.87216658103186,35.6931365951495,34.0,33.0,32.0,8.5,13.5,1.5,0.5,12.041594578792296,12.165525060596439,11.5,34.0,41.0,29.068883707497267
432,803,1.0,88.02272433866155,10.04987562112089,11.045361017187261,23.021728866442675,24.0,23.53720459187964,44.721359549995796,33.734255586866,33.0,33.0,35.0,11.0,10.0,2.0,2.0,12.0,12.041594578792296,11.0,36.0,41.0,29.017236257093817
433,804,0.0,96.00520819205592,9.055385138137417,10.198039027185569,26.019223662515376,27.0,23.345235059857504,42.579337712087536,32.38826948140329,32.0,32.0,31.0,8.5,10.5,0.5,0.5,9.0,10.04987562112089,9.5,34.0,41.0,28.160255680657446
434,805,1.0,95.0,12.041594578792296,13.152946437965905,26.0,28.0,18.681541692269406,44.721359549995796,31.575306807693888,30.5,32.0,32.0,14.0,12.0,2.0,3.0,8.0,10.04987562112089,9.0,34.0,40.0,32.14031735997639
435,806,2.23606797749979,97.0051545022222,13.038404810405298,13.152946437965905,27.0,29.0,16.492422502470642,44.721359549995796,31.575306807693888,30.0,34.0,33.0,17.5,10.5,3.5,5.5,9.055385138137417,10.198039027185569,9.5,35.0,45.0,33.37663853655727
436,807,1.0,95.1892851112981,10.04987562112089,11.180339887498949,26.0,26.076809620810597,20.615528128088304,41.97618372363071,30.805843601498726,30.0,33.0,27.0,10.0,11.0,1.0,1.0,8.246211251235321,9.486832980505138,8.0,33.0,46.0,30.265491900843113
437,808,2.23606797749979,96.18731725128839,9.219544457292887,8.54400374531753,26.0,26.076809620810597,23.53720459187964,39.56008088970496,31.04834939252005,31.0,33.0,27.0,7.0,8.0,1.0,0.0,9.219544457292887,9.486832980505138,9.0,30.0,44.0,32.2490309931942
438,809,2.23606797749979,95.1892851112981,8.06225774829855,8.06225774829855,26.019223662515376,27.073972741361768,21.840329667841555,39.293765408777,31.32091952673165,29.5,32.0,26.0,8.0,9.0,0.0,1.0,9.219544457292887,10.198039027185569,9.5,31.0,47.0,30.4138126514911
439,810,1.4142135623730951,92.19544457292888,10.04987562112089,9.486832980505138,25.0,26.076809620810597,20.8806130178211,41.48493702538308,32.01562118716424,30.5,33.0,27.0,10.0,10.0,0.0,1.0,10.04987562112089,11.180339887498949,10.0,32.0,45.0,29.427877939124322
440,811,1.0,91.13725912051558,9.055385138137417,11.045361017187261,24.0,25.019992006393608,22.360679774997898,42.579337712087536,31.575306807693888,31.0,32.0,27.0,7.5,12.5,0.5,0.5,10.04987562112089,10.44030650891055,9.5,32.0,45.0,36.49657518178932
441,812,0.0,90.08884503644167,9.219544457292887,11.180339887498949,23.021728866442675,25.019992006393608,23.345235059857504,43.73785545725808,32.55764119219941,32.0,32.0,28.0,7.0,13.0,1.0,0.0,11.045361017187261,12.165525060596439,11.5,32.0,43.0,33.13608305156178
442,813,1.4142135623730951,91.19758768739445,10.04987562112089,11.180339887498949,24.020824298928627,25.079872407968907,24.331050121192877,44.721359549995796,33.54101966249684,33.5,35.0,29.0,8.0,12.0,0.0,1.0,8.06225774829855,8.246211251235321,8.0,32.0,45.0,30.265491900843113
443,814,1.0,86.02325267042627,9.219544457292887,13.152946437965905,21.0,24.020824298928627,25.495097567963924,48.83646178829912,35.6931365951495,34.5,33.0,31.0,7.0,16.0,2.0,1.0,10.04987562112089,11.40175425099138,10.0,38.0,46.0,32.2490309931942
444,815,3.0,84.0535543567314,12.165525060596439,19.1049731745428,24.0,27.018512172212592,23.345235059857504,57.55866572463264,38.47076812334269,36.5,37.0,34.0,12.5,21.5,0.5,1.5,10.04987562112089,11.180339887498949,10.5,39.0,44.0,30.14962686336267
445,816,3.1622776601683795,82.09750300709517,12.041594578792296,18.110770276274835,24.020824298928627,26.019223662515376,24.73863375370596,57.87054518492115,39.81205847478876,37.5,37.0,33.0,11.0,22.0,3.0,1.0,11.045361017187261,11.180339887498949,10.0,35.0,43.0,31.064449134018133
446,817,2.23606797749979,85.21150157109074,10.198039027185569,17.029386365926403,23.021728866442675,26.076809620810597,25.317977802344327,54.589376255824725,37.656340767525464,36.0,38.0,32.0,10.0,19.0,1.0,2.0,10.04987562112089,11.180339887498949,10.0,33.0,43.0,35.22782990761707
447,818,1.4142135623730951,88.09086218218096,11.180339887498949,15.132745950421556,23.021728866442675,25.019992006393608,22.20360331117452,49.64876634922564,34.52535300326414,33.5,36.0,32.0,12.0,15.0,2.0,3.0,11.045361017187261,10.04987562112089,9.5,33.0,39.0,33.13608305156178
448,819,3.1622776601683795,83.02409288875127,10.04987562112089,14.035668847618199,23.021728866442675,24.020824298928627,22.20360331117452,49.36598018878993,35.35533905932738,33.5,37.0,35.0,14.0,13.0,2.0,5.0,10.198039027185569,10.04987562112089,9.5,35.0,41.0,31.144823004794873
449,820,2.0,85.05292469985967,12.041594578792296,15.033296378372908,24.0,26.019223662515376,19.4164878389476,48.373546489791295,33.37663853655727,32.0,37.0,34.0,16.5,12.5,3.5,5.5,10.04987562112089,11.180339887498949,10.5,36.0,41.0,31.144823004794873
450,821,1.0,82.0,10.04987562112089,13.038404810405298,23.0,24.020824298928627,23.08679276123039,46.2709412050371,33.24154027718932,33.0,33.0,33.0,10.0,13.0,2.0,2.0,11.045361017187261,12.165525060596439,11.0,36.0,43.0,32.2490309931942
451,822,1.4142135623730951,86.00581375697809,11.045361017187261,14.035668847618199,24.0,26.0,22.02271554554524,48.16637831516918,34.132096331752024,33.5,36.0,35.0,13.5,12.5,3.5,3.5,10.198039027185569,11.045361017187261,10.0,37.0,44.0,32.2490309931942
452,823,1.0,87.0,10.04987562112089,14.035668847618199,24.020824298928627,25.019992006393608,23.08679276123039,47.265209192385896,33.24154027718932,33.0,34.0,34.0,11.0,13.0,3.0,2.0,11.045361017187261,13.152946437965905,12.0,35.0,41.0,34.058772731852805
453,824,1.0,90.0499861188218,11.045361017187261,14.142135623730951,24.020824298928627,25.019992006393608,22.20360331117452,47.51841748206689,33.37663853655727,33.0,37.0,34.0,13.5,11.5,2.5,3.5,10.198039027185569,10.198039027185569,9.5,37.0,44.0,34.132096331752024
454,825,1.0,85.0235261559999,9.055385138137417,13.152946437965905,22.02271554554524,23.021728866442675,23.345235059857504,46.52956049652737,33.37663853655727,32.5,33.0,31.0,9.0,14.0,0.0,2.0,13.038404810405298,13.038404810405298,12.0,39.0,43.0,27.073972741361768
455,826,1.0,87.09190547921202,12.165525060596439,16.1245154965971,23.021728866442675,25.019992006393608,19.1049731745428,47.51841748206689,31.400636936215164,31.0,35.0,31.0,14.0,14.0,3.0,3.0,8.246211251235321,9.219544457292887,8.0,39.0,48.0,34.23448553724738
456,827,2.0,84.02380615040002,11.180339887498949,14.142135623730951,23.021728866442675,25.019992006393608,22.20360331117452,49.49747468305833,35.35533905932738,34.0,37.0,35.0,14.0,13.0,3.0,5.0,11.0,11.180339887498949,10.5,39.0,46.0,36.22154055254967
457,828,2.23606797749979,86.02325267042627,11.045361017187261,16.0312195418814,23.0,25.0,21.213203435596427,50.35871324805669,34.36568055487916,33.0,34.0,32.0,12.0,17.0,0.0,2.0,10.04987562112089,10.198039027185569,9.0,40.0,49.0,32.55764119219941
458,829,7.0,83.09632964216891,11.180339887498949,18.110770276274835,24.020824298928627,26.0,17.46424919657298,53.600373133029585,35.510561809129406,31.5,36.0,32.0,17.0,19.0,0.0,7.0,9.055385138137417,10.198039027185569,9.5,41.0,49.0,33.24154027718932
459,830,5.0990195135927845,84.1486779456457,12.165525060596439,18.24828759089466,23.08679276123039,26.019223662515376,22.80350850198276,58.249463516842795,40.024992192379,36.5,37.0,32.0,12.5,22.5,3.5,2.5,11.045361017187261,12.165525060596439,11.5,41.0,49.0,30.265491900843113
460,831,7.280109889280518,86.20904824900923,11.045361017187261,16.0312195418814,23.08679276123039,26.076809620810597,24.041630560342615,58.05170109479997,42.20189569201838,37.5,37.0,31.0,11.0,23.0,6.0,2.0,12.0,12.165525060596439,11.5,40.0,50.0,29.274562336608895
461,832,4.123105625617661,88.20430828479978,12.165525060596439,18.24828759089466,23.08679276123039,26.076809620810597,24.73863375370596,59.22837157984339,41.0,38.0,37.0,31.0,10.0,24.0,6.0,1.0,13.0,12.165525060596439,12.0,38.0,49.0,36.345563690772494
462,833,7.0710678118654755,83.21658488546619,10.198039027185569,15.297058540778355,23.08679276123039,24.08318915758459,24.73863375370596,57.271284253105414,41.97618372363071,37.5,37.0,31.0,10.0,22.0,6.0,2.0,12.041594578792296,12.165525060596439,11.5,39.0,50.0,32.38826948140329
463,834,8.06225774829855,85.28774824088158,11.180339887498949,17.26267650163207,23.08679276123039,24.020824298928627,23.769728648009426,60.207972893961475,42.95346318982906,38.0,39.0,32.0,12.5,23.5,5.5,3.5,11.045361017187261,12.36931687685298,11.0,39.0,48.0,31.400636936215164
464,835,7.0710678118654755,89.1403387922662,13.038404810405298,17.26267650163207,25.079872407968907,27.018512172212592,22.47220505424423,59.43904440685432,42.20189569201838,37.5,39.0,34.0,15.5,21.5,3.5,4.5,13.0,12.165525060596439,11.5,39.0,49.0,32.38826948140329
465,836,9.055385138137417,93.13431161500041,12.165525060596439,17.26267650163207,24.08318915758459,27.0,17.88854381999832,55.78530272392541,38.600518131237564,32.5,34.0,29.0,15.5,22.5,4.5,5.5,9.219544457292887,11.40175425099138,10.0,39.0,48.0,29.274562336608895
466,837,4.123105625617661,88.09086218218096,11.180339887498949,16.0312195418814,23.0,25.0,22.561028345356956,53.75872022286245,37.8549864614954,35.0,36.0,32.0,12.0,19.0,2.0,2.0,13.038404810405298,13.341664064126334,12.5,40.0,48.0,34.132096331752024
467,838,2.0,90.0499861188218,11.045361017187261,15.132745950421556,24.020824298928627,26.019223662515376,23.345235059857504,51.478150704935004,36.345563690772494,35.0,34.0,31.0,9.5,18.5,1.5,0.5,13.0,13.152946437965905,12.0,38.0,47.0,34.23448553724738
468,839,7.0,102.0196059588548,10.198039027185569,16.0312195418814,27.018512172212592,29.017236257093817,22.20360331117452,55.326304774492215,39.319206502675,35.5,32.0,30.0,9.0,24.0,7.0,1.0,13.0,13.038404810405298,12.0,40.0,47.0,39.20459156782532
469,840,3.1622776601683795,95.00526301210897,11.045361017187261,15.132745950421556,25.0,27.0,22.360679774997898,51.62363799656123,36.49657518178932,34.5,33.0,32.0,10.5,18.5,1.5,1.5,11.0,12.165525060596439,11.0,42.0,47.0,30.265491900843113
470,841,2.0,89.08984229416954,12.165525060596439,15.132745950421556,24.020824298928627,26.019223662515376,21.213203435596427,50.48762224545735,35.35533905932738,34.0,35.0,31.0,12.0,17.0,0.0,2.0,12.0,12.165525060596439,11.0,40.0,48.0,33.24154027718932
471,842,2.23606797749979,91.0494371207203,12.041594578792296,16.0312195418814,24.020824298928627,27.0,20.396078054371138,50.48762224545735,34.52535300326414,33.0,34.0,31.0,12.5,17.5,0.5,2.5,12.041594578792296,12.165525060596439,11.5,40.0,48.0,28.442925306655784
472,843,1.0,93.04837451562494,11.180339887498949,16.1245154965971,24.020824298928627,26.0,23.53720459187964,50.99019513592785,34.92849839314596,34.0,35.0,32.0,10.5,16.5,0.5,1.5,13.0,13.152946437965905,12.0,43.0,48.0,36.345563690772494
473,844,4.123105625617661,89.02246907382428,10.04987562112089,14.142135623730951,23.0,25.0,22.360679774997898,50.635955604688654,36.49657518178932,34.0,34.0,32.0,11.0,17.0,1.0,2.0,13.0,12.36931687685298,11.5,42.0,48.0,32.14031735997639
474,845,7.0710678118654755,86.02325267042627,10.04987562112089,15.033296378372908,22.0,25.019992006393608,22.561028345356956,54.589376255824725,39.6232255123179,35.5,35.0,33.0,12.0,20.0,4.0,3.0,10.04987562112089,12.041594578792296,10.5,42.0,46.0,36.124783736376884
475,846,7.0710678118654755,90.08884503644167,12.041594578792296,15.132745950421556,24.08318915758459,25.019992006393608,22.135943621178654,56.089214649520635,41.0,36.5,39.0,35.0,16.0,18.0,2.0,6.0,12.0,12.36931687685298,10.5,41.0,48.0,32.14031735997639
476,847,9.055385138137417,91.0494371207203,10.198039027185569,15.297058540778355,24.08318915758459,26.019223662515376,23.769728648009426,58.249463516842795,42.95346318982906,37.5,37.0,34.0,12.5,21.5,5.5,3.5,13.0,13.152946437965905,12.5,41.0,46.0,33.13608305156178
477,848,5.385164807134504,92.02173656261873,12.041594578792296,16.1245154965971,21.02379604162864,24.020824298928627,25.709920264364882,59.033888572581766,42.95346318982906,39.5,39.0,37.0,13.0,20.0,3.0,3.0,13.0,13.152946437965905,12.0,38.0,44.0,34.058772731852805
478,849,12.165525060596439,87.00574693662483,11.180339887498949,14.317821063276353,23.021728866442675,25.0,24.73863375370596,62.369864518050704,48.05205510693585,41.0,36.0,35.0,11.5,25.5,9.5,2.5,11.045361017187261,11.180339887498949,10.5,39.0,47.0,32.14031735997639
479,850,9.055385138137417,92.0,11.045361017187261,15.132745950421556,24.020824298928627,26.0,21.840329667841555,56.88585061331157,41.773197148410844,36.5,36.0,36.0,15.0,20.0,4.0,5.0,10.0,12.165525060596439,11.0,40.0,46.0,30.066592756745816
480,851,11.045361017187261,89.08984229416954,10.04987562112089,14.035668847618199,22.02271554554524,24.020824298928627,21.840329667841555,56.71860364994893,42.7551166528639,36.5,32.0,36.0,13.0,22.0,6.0,4.0,8.0,10.0,9.5,41.0,44.0,30.01666203960727
481,852,7.0,88.0056816347672,10.198039027185569,11.180339887498949,22.02271554554524,23.0,22.561028345356956,50.80354318352215,39.6232255123179,35.5,36.0,35.0,13.5,14.5,1.5,4.5,11.0,12.041594578792296,11.5,40.0,46.0,27.073972741361768
482,853,6.324555320336759,87.00574693662483,8.06225774829855,12.36931687685298,22.02271554554524,22.02271554554524,24.515301344262525,51.19570294468082,38.8329756778952,35.0,33.0,32.0,8.5,17.5,4.5,1.5,11.0,10.04987562112089,10.0,40.0,46.0,28.442925306655784
483,854,7.280109889280518,81.0,6.082762530298219,12.041594578792296,19.026297590440446,20.0,25.709920264364882,50.99019513592785,39.05124837953327,34.5,34.0,34.0,9.0,16.0,3.0,4.0,9.0,11.045361017187261,10.0,40.0,43.0,27.073972741361768
484,855,2.23606797749979,90.00555538409837,10.198039027185569,15.297058540778355,25.019992006393608,26.0,21.840329667841555,49.47726750741192,34.20526275297414,32.0,30.0,31.0,9.5,17.5,1.5,0.5,8.06225774829855,9.055385138137417,8.0,42.0,45.0,27.018512172212592
485,856,1.4142135623730951,85.0,9.055385138137417,13.152946437965905,20.0,21.0,24.73863375370596,48.05205510693585,34.92849839314596,33.5,33.0,33.0,9.0,14.0,0.0,1.0,12.0,12.041594578792296,11.5,42.0,48.0,26.076809620810597
486,857,4.123105625617661,84.0,9.219544457292887,12.165525060596439,21.0,22.0,22.80350850198276,48.27007354458868,36.138621999185304,33.0,31.0,31.0,9.0,16.0,1.0,1.0,9.0,9.219544457292887,8.5,40.0,44.0,24.08318915758459
487,858,3.1622776601683795,81.00617260431454,7.0710678118654755,11.180339887498949,18.027756377319946,19.0,26.68332812825267,48.05205510693585,36.87817782917155,34.5,35.0,34.0,8.5,12.5,0.5,1.5,8.0,9.055385138137417,8.0,40.0,45.0,28.0
488,859,4.123105625617661,83.0,9.219544457292887,11.180339887498949,22.0,22.0,23.53720459187964,48.05205510693585,36.87817782917155,34.0,34.0,34.0,11.0,13.0,0.0,3.0,8.06225774829855,8.246211251235321,7.5,38.0,44.0,28.160255680657446
489,860,4.242640687119285,82.0,10.04987562112089,12.041594578792296,22.02271554554524,23.0,24.041630560342615,49.47726750741192,37.64306044943742,34.5,35.0,35.0,12.0,13.0,1.0,2.0,9.055385138137417,11.180339887498949,10.0,38.0,44.0,25.079872407968907
490,861,2.23606797749979,81.00617260431454,6.082762530298219,10.198039027185569,20.0,20.0,27.65863337187866,45.35416188179427,35.17101079013795,33.5,35.0,34.0,7.5,9.5,1.5,2.5,11.045361017187261,11.180339887498949,10.5,39.0,46.0,28.160255680657446
491,862,2.8284271247461903,84.00595217006948,10.04987562112089,12.041594578792296,23.0,24.0,21.840329667841555,46.09772228646444,34.20526275297414,32.0,36.0,35.0,14.5,9.5,3.5,4.5,11.045361017187261,11.40175425099138,10.0,40.0,48.0,25.179356624028344
492,863,2.23606797749979,83.0,11.045361017187261,13.038404810405298,20.0,22.02271554554524,20.8806130178211,46.87216658103186,33.95585369269929,32.0,34.0,34.0,14.0,12.0,2.0,4.0,12.041594578792296,12.165525060596439,11.0,39.0,47.0,30.066592756745816
493,864,3.1622776601683795,83.0,10.198039027185569,13.152946437965905,21.02379604162864,22.02271554554524,21.587033144922902,48.05205510693585,34.92849839314596,32.5,35.0,35.0,14.0,12.0,3.0,5.0,12.041594578792296,11.045361017187261,10.5,41.0,47.0,25.019992006393608
494,865,3.1622776601683795,83.0,10.04987562112089,12.165525060596439,21.02379604162864,23.0,21.587033144922902,46.87216658103186,34.713109915419565,32.5,35.0,35.0,14.0,11.0,3.0,5.0,12.041594578792296,12.165525060596439,11.5,39.0,47.0,26.076809620810597
495,866,5.0990195135927845,83.00602387778854,11.180339887498949,14.142135623730951,23.021728866442675,26.019223662515376,22.360679774997898,52.773099207835045,38.63935817272331,35.5,37.0,36.0,14.5,15.5,0.5,4.5,11.045361017187261,12.041594578792296,11.0,40.0,47.0,25.179356624028344
496,867,3.1622776601683795,85.00588214941364,11.180339887498949,13.152946437965905,22.0,23.021728866442675,25.709920264364882,53.150729063673246,40.024992192379,37.5,39.0,38.0,13.5,13.5,0.5,3.5,12.041594578792296,13.038404810405298,12.0,38.0,42.0,29.068883707497267
