,frame_seq,m1,m3,m4,m5,m6,m7,m8,m9,m10,m11,m12,m13,m14,m15,m16,m17,e1,e2,e3,b1,b2,b3
0,0,4.0,28.0178514522438,2.0,3.0,6.0,7.0,8.0,17.0,14.0,12.0,11.0,12.0,3.5,5.5,2.5,1.5,3.0,2.0,2.5,8.0,6.0,11.045361017187261
1,1,4.0,27.018512172212592,2.0,2.23606797749979,7.0710678118654755,7.0,8.0,16.0312195418814,14.0,12.0,11.0,12.0,3.5,4.5,2.5,1.5,3.0,3.0,3.0,8.0,6.0,11.0
2,2,5.0990195135927845,27.018512172212592,2.0,2.0,7.0,7.0,8.0,17.029386365926403,15.033296378372908,12.5,11.0,12.0,3.5,5.5,2.5,1.5,3.0,2.0,2.5,8.0,6.0,12.041594578792296
3,3,5.0,28.0178514522438,2.0,2.0,7.0,8.0,8.0,17.0,15.0,12.5,11.0,12.0,3.5,5.5,2.5,1.5,3.0,2.0,2.5,7.0,6.0,12.0
4,4,5.0,27.018512172212592,2.0,2.23606797749979,6.0,7.0,8.0,17.029386365926403,15.0,12.5,11.0,12.0,3.5,5.5,2.5,1.5,3.1622776601683795,2.23606797749979,2.5,7.0,5.0,11.045361017187261
5,5,4.0,27.073972741361768,2.0,2.0,6.082762530298219,7.0,7.0,15.0,13.0,11.0,9.0,11.0,3.0,5.0,3.0,1.0,2.0,2.0,2.0,8.0,5.0,12.041594578792296
6,6,5.0,26.076809620810597,1.0,2.23606797749979,6.0,7.0,8.0,16.0312195418814,14.0,11.5,10.0,12.0,3.0,5.0,3.0,2.0,3.0,2.0,2.5,8.0,6.0,11.045361017187261
7,7,5.0,26.076809620810597,2.0,2.0,6.082762530298219,7.0710678118654755,7.0,16.0,14.0,11.5,9.0,11.0,3.0,6.0,3.0,1.0,2.23606797749979,2.0,2.0,8.0,5.0,12.041594578792296
8,8,5.0,26.076809620810597,1.0,2.0,6.0,7.0,8.0,16.0,14.0,11.5,10.0,12.0,3.0,5.0,2.0,2.0,2.0,2.0,2.5,8.0,6.0,12.041594578792296
9,9,5.0,25.079872407968907,1.0,2.0,6.0,7.0,8.0,16.0,14.0,11.5,10.0,12.0,3.0,5.0,3.0,2.0,3.0,3.0,2.5,8.0,5.0,12.0
10,10,6.082762530298219,24.020824298928627,1.0,2.0,6.0,7.0,8.0,17.029386365926403,15.033296378372908,12.0,11.0,12.0,3.5,5.5,2.5,2.5,2.0,2.0,2.0,8.0,5.0,13.038404810405298
11,11,7.0,23.08679276123039,1.0,2.23606797749979,6.0,7.0,8.0,18.027756377319946,16.0,12.5,11.0,13.0,4.0,6.0,3.0,3.0,2.0,2.0,2.5,9.0,6.0,12.041594578792296
12,12,7.0,23.08679276123039,1.0,2.0,6.0,6.0,8.0,18.0,16.0,12.5,11.0,13.0,4.0,6.0,3.0,3.0,2.0,2.0,2.5,8.0,4.0,12.041594578792296
13,13,6.0,22.090722034374522,2.23606797749979,3.0,5.0,6.082762530298219,7.0,18.027756377319946,15.033296378372908,12.0,11.0,13.0,5.0,6.0,3.0,3.0,2.0,3.0,3.0,7.0,5.0,11.045361017187261
14,14,5.0,20.09975124224178,2.23606797749979,3.0,5.0990195135927845,6.082762530298219,8.0,18.027756377319946,15.033296378372908,12.5,11.0,13.0,4.0,6.0,2.0,2.0,3.0,2.23606797749979,2.0,8.0,5.0,11.045361017187261
15,15,3.1622776601683795,18.24828759089466,3.0,3.0,5.0990195135927845,6.0,8.0,17.029386365926403,14.035668847618199,12.5,12.0,15.0,5.5,3.5,0.5,2.5,2.0,3.0,3.0,8.0,5.0,11.045361017187261
16,16,3.0,19.1049731745428,2.0,4.0,6.082762530298219,6.082762530298219,8.0,17.0,13.0,11.5,12.0,14.0,5.0,4.0,1.0,2.0,2.0,2.0,2.0,8.0,4.0,11.045361017187261
17,17,2.0,17.26267650163207,3.0,4.0,5.0,6.082762530298219,7.0710678118654755,16.0312195418814,12.041594578792296,11.0,12.0,15.0,6.5,2.5,1.5,3.5,2.0,2.23606797749979,2.0,7.0,4.0,11.180339887498949
18,18,2.0,16.1245154965971,3.1622776601683795,4.0,5.0990195135927845,6.082762530298219,7.0710678118654755,16.0,12.0,11.0,12.0,14.0,6.0,3.0,2.0,3.0,2.0,2.0,2.0,8.0,4.0,11.180339887498949
19,19,3.1622776601683795,16.278820596099706,3.0,4.0,5.0990195135927845,5.0990195135927845,7.0,17.029386365926403,13.038404810405298,11.5,12.0,15.0,6.5,3.5,1.5,2.5,2.0,2.23606797749979,2.0,9.0,4.0,11.180339887498949
20,20,3.0,17.26267650163207,3.0,4.123105625617661,4.123105625617661,6.082762530298219,8.06225774829855,18.110770276274835,14.035668847618199,12.5,13.0,16.0,6.5,3.5,1.5,3.5,2.0,2.23606797749979,2.0,9.0,4.0,10.04987562112089
21,21,4.0,17.26267650163207,3.1622776601683795,4.123105625617661,6.082762530298219,6.082762530298219,7.0,18.110770276274835,14.035668847618199,12.0,13.0,16.0,7.5,3.5,1.5,4.5,2.0,2.23606797749979,2.0,9.0,4.0,10.04987562112089
22,22,7.0,19.235384061671343,2.0,3.1622776601683795,6.082762530298219,6.082762530298219,7.0710678118654755,19.1049731745428,16.0312195418814,12.5,12.0,15.0,6.5,5.5,1.5,3.5,2.0,2.0,2.0,8.0,3.0,11.045361017187261
23,23,7.0,22.360679774997898,2.0,3.1622776601683795,6.082762530298219,7.0710678118654755,6.082762530298219,18.110770276274835,15.033296378372908,11.5,10.0,14.0,6.0,6.0,3.0,3.0,2.0,2.23606797749979,2.0,9.0,4.0,11.180339887498949
24,24,8.06225774829855,22.360679774997898,2.0,2.0,6.082762530298219,7.0,7.0710678118654755,19.1049731745428,17.11724276862369,13.0,11.0,15.0,6.0,6.0,3.0,3.0,2.0,3.1622776601683795,2.5,9.0,3.0,11.045361017187261
25,25,7.0710678118654755,23.345235059857504,2.0,2.23606797749979,7.0710678118654755,7.0,7.0710678118654755,18.24828759089466,16.1245154965971,12.5,10.0,14.0,5.0,6.0,3.0,3.0,2.0,3.1622776601683795,2.5,9.0,4.0,11.180339887498949
26,26,7.0710678118654755,24.331050121192877,2.0,3.0,7.0710678118654755,7.0710678118654755,6.082762530298219,18.110770276274835,15.132745950421556,11.5,10.0,14.0,6.0,6.0,3.0,3.0,2.0,2.0,2.0,9.0,4.0,11.180339887498949
27,27,7.0710678118654755,23.345235059857504,2.0,2.0,7.0710678118654755,7.280109889280518,6.082762530298219,17.11724276862369,15.132745950421556,11.5,10.0,14.0,6.0,5.0,2.0,3.0,2.0,3.1622776601683795,2.5,8.0,3.0,11.045361017187261
28,28,5.0,24.331050121192877,2.23606797749979,3.1622776601683795,6.082762530298219,7.0710678118654755,6.0,16.1245154965971,13.038404810405298,10.5,9.0,13.0,5.0,5.0,1.0,2.0,2.0,1.4142135623730951,1.5,9.0,4.0,10.04987562112089
29,29,4.0,24.331050121192877,1.0,2.23606797749979,6.082762530298219,6.082762530298219,7.0710678118654755,14.142135623730951,12.041594578792296,10.0,9.0,13.0,4.0,3.0,0.0,2.0,2.0,2.23606797749979,2.0,9.0,4.0,11.180339887498949
30,30,1.4142135623730951,22.20360331117452,2.0,3.0,6.082762530298219,6.082762530298219,7.0710678118654755,13.152946437965905,10.198039027185569,9.5,9.0,12.0,3.5,2.5,1.5,1.5,2.0,2.0,2.0,8.0,2.0,10.198039027185569
31,31,2.23606797749979,23.345235059857504,2.0,2.0,6.082762530298219,7.0710678118654755,7.0,13.038404810405298,11.045361017187261,10.0,9.0,13.0,4.0,2.0,1.0,1.0,2.0,2.0,2.0,8.0,2.0,12.165525060596439
32,32,3.1622776601683795,22.20360331117452,2.0,2.0,6.0,7.0710678118654755,7.0,14.035668847618199,12.041594578792296,10.5,10.0,13.0,4.5,2.5,0.5,2.5,2.0,2.0,2.0,8.0,3.0,10.198039027185569
33,33,3.0,21.37755832643195,3.1622776601683795,3.1622776601683795,6.082762530298219,7.0710678118654755,7.0,16.1245154965971,13.038404810405298,11.5,10.0,14.0,5.0,4.0,1.0,2.0,2.0,2.23606797749979,2.0,8.0,3.0,11.180339887498949
34,34,1.0,22.20360331117452,3.0,2.23606797749979,6.082762530298219,6.082762530298219,9.055385138137417,15.132745950421556,13.038404810405298,12.5,12.0,15.0,4.5,1.5,1.5,1.5,2.0,2.23606797749979,2.0,9.0,4.0,10.198039027185569
35,35,0.0,21.213203435596427,3.0,3.1622776601683795,5.0,5.0,9.055385138137417,15.132745950421556,12.041594578792296,12.0,13.0,16.0,5.5,0.5,2.5,2.5,3.0,2.23606797749979,2.0,9.0,4.0,11.180339887498949
36,36,1.0,22.20360331117452,3.1622776601683795,3.0,6.082762530298219,6.0,8.0,15.033296378372908,12.041594578792296,11.5,12.0,15.0,5.5,1.5,1.5,1.5,2.0,2.23606797749979,2.0,9.0,4.0,11.180339887498949
37,37,1.4142135623730951,22.20360331117452,3.0,2.0,5.0,6.082762530298219,8.0,14.035668847618199,12.041594578792296,11.5,12.0,15.0,5.5,0.5,2.5,2.5,2.0,2.0,2.0,9.0,4.0,10.04987562112089
38,38,1.0,22.090722034374522,3.1622776601683795,3.0,6.082762530298219,6.0,9.0,14.035668847618199,11.045361017187261,11.5,12.0,14.0,4.0,1.0,2.0,1.0,2.23606797749979,2.23606797749979,2.0,9.0,4.0,11.180339887498949
39,39,1.0,22.090722034374522,3.0,3.0,5.0,6.0,8.0,14.035668847618199,11.045361017187261,11.0,12.0,14.0,5.0,1.0,2.0,2.0,2.0,2.0,2.0,9.0,4.0,11.045361017187261
40,40,1.0,22.090722034374522,3.0,3.0,6.082762530298219,5.0,9.055385138137417,14.035668847618199,11.045361017187261,11.5,12.0,14.0,4.0,1.0,2.0,1.0,2.23606797749979,3.1622776601683795,3.0,8.0,5.0,12.165525060596439
41,41,1.4142135623730951,23.08679276123039,2.0,2.0,5.0,6.0,10.0,15.033296378372908,13.038404810405298,12.5,12.0,14.0,3.0,2.0,1.0,1.0,2.23606797749979,2.23606797749979,2.0,8.0,4.0,12.041594578792296
42,42,3.0,23.08679276123039,2.0,3.1622776601683795,6.082762530298219,6.0,9.055385138137417,17.11724276862369,14.035668847618199,12.5,12.0,14.0,4.0,4.0,1.0,1.0,2.0,2.23606797749979,2.0,9.0,5.0,12.041594578792296
43,43,5.0990195135927845,24.020824298928627,3.0,4.0,6.0,7.0710678118654755,7.0,19.026297590440446,15.033296378372908,12.5,12.0,13.0,5.5,6.5,2.5,2.5,2.0,2.0,2.0,9.0,5.0,12.041594578792296
44,44,6.0,25.019992006393608,2.0,3.0,7.0,6.0,7.0710678118654755,18.027756377319946,15.033296378372908,12.0,12.0,13.0,5.5,5.5,2.5,3.5,2.0,2.0,2.0,8.0,5.0,11.180339887498949
45,45,5.0,25.019992006393608,2.0,3.0,7.0,8.06225774829855,7.0710678118654755,17.029386365926403,14.035668847618199,11.5,11.0,12.0,4.5,5.5,2.5,2.5,3.0,2.0,2.0,8.0,5.0,10.0
46,46,4.0,24.020824298928627,2.0,3.0,6.0,7.0710678118654755,7.0,16.0,13.0,11.0,12.0,13.0,5.5,3.5,0.5,3.5,2.0,2.0,2.0,7.0,5.0,11.045361017187261
47,47,2.0,23.021728866442675,2.0,3.0,7.0,7.0,7.0,14.0,11.0,10.0,11.0,12.0,4.5,2.5,0.5,2.5,2.0,2.0,2.0,7.0,5.0,11.045361017187261
48,48,2.0,23.021728866442675,2.0,4.0,6.0,7.0710678118654755,7.0,15.0,11.0,10.0,12.0,13.0,5.5,2.5,1.5,3.5,2.0,2.0,2.0,7.0,5.0,11.045361017187261
49,49,2.0,22.02271554554524,2.0,3.0,7.0,7.0,7.0,14.0,11.0,10.0,11.0,12.0,4.5,2.5,1.5,2.5,2.0,2.0,2.0,7.0,5.0,11.045361017187261
50,50,3.0,22.090722034374522,2.0,3.0,6.082762530298219,7.0710678118654755,7.0,15.0,12.0,10.5,11.0,13.0,5.0,3.0,1.0,2.0,2.0,2.23606797749979,2.0,8.0,6.0,11.045361017187261
51,51,2.0,19.026297590440446,3.0,3.0,6.0,6.0,6.0,14.0,11.0,10.0,11.0,12.0,5.5,2.5,1.5,2.5,2.0,2.23606797749979,2.0,8.0,6.0,11.045361017187261
52,52,2.0,19.026297590440446,3.0,4.0,6.082762530298219,6.0,7.0,16.0,12.0,11.0,12.0,13.0,5.5,3.5,1.5,2.5,2.0,2.0,2.0,8.0,6.0,10.04987562112089
53,53,2.0,19.026297590440446,3.0,4.0,6.0,6.0,7.0,16.0,12.0,11.0,12.0,13.0,5.5,3.5,0.5,2.5,3.0,2.0,2.5,8.0,6.0,11.045361017187261
54,54,2.0,19.026297590440446,3.0,4.123105625617661,6.082762530298219,7.0,8.06225774829855,17.0,13.038404810405298,12.0,13.0,14.0,5.5,3.5,1.5,2.5,3.0,2.0,2.0,7.0,5.0,12.041594578792296
55,55,5.0,19.026297590440446,3.0,4.0,5.0,7.0,9.055385138137417,21.02379604162864,17.029386365926403,14.5,15.0,16.0,6.5,5.5,0.5,3.5,2.0,2.0,2.0,7.0,5.0,12.0
56,56,6.0,21.02379604162864,3.1622776601683795,4.0,7.0,7.0710678118654755,8.0,21.02379604162864,17.029386365926403,14.0,14.0,15.0,6.5,6.5,2.5,3.5,2.0,2.0,2.0,8.0,6.0,12.041594578792296
57,57,6.0,23.0,3.0,3.0,6.0,6.0,8.0,20.0,17.0,14.0,14.0,14.0,6.0,6.0,2.0,3.0,2.0,2.23606797749979,2.0,7.0,6.0,12.0
58,58,6.0,22.0,3.0,2.0,6.0,7.0,8.0,19.0,17.0,14.0,15.0,15.0,7.0,4.0,1.0,4.0,2.23606797749979,2.0,2.0,7.0,5.0,12.041594578792296
59,59,6.0,23.0,3.0,2.0,6.0,7.0,7.0,18.0,16.0,13.0,14.0,14.0,7.0,4.0,1.0,4.0,2.0,2.0,2.0,6.0,6.0,12.0
60,60,5.0,22.02271554554524,2.0,3.0,6.0,7.0710678118654755,8.06225774829855,18.027756377319946,15.033296378372908,12.5,15.0,14.0,6.5,3.5,0.5,4.5,2.23606797749979,2.0,2.0,6.0,6.0,11.0
61,62,6.0,21.095023109728988,2.0,2.0,5.0,5.0,8.246211251235321,18.110770276274835,16.1245154965971,13.0,16.0,14.0,7.0,3.0,1.0,5.0,2.23606797749979,2.0,2.0,5.0,7.0,12.041594578792296
62,67,5.0,20.09975124224178,2.23606797749979,2.0,7.0,7.0,6.082762530298219,15.132745950421556,13.152946437965905,10.5,14.0,12.0,7.0,2.0,0.0,5.0,2.23606797749979,2.0,2.5,5.0,7.0,11.045361017187261
63,68,7.0710678118654755,20.09975124224178,2.0,3.0,7.0710678118654755,7.0710678118654755,7.0710678118654755,19.1049731745428,16.1245154965971,12.5,15.0,13.0,7.0,5.0,2.0,6.0,2.0,2.23606797749979,2.0,4.0,8.0,11.045361017187261
64,69,7.0,21.095023109728988,2.0,3.1622776601683795,6.082762530298219,6.082762530298219,7.0710678118654755,19.1049731745428,16.0312195418814,12.5,15.0,13.0,7.0,5.0,2.0,6.0,3.1622776601683795,2.23606797749979,2.5,5.0,8.0,11.045361017187261
65,70,8.0,20.09975124224178,2.0,3.1622776601683795,6.082762530298219,6.082762530298219,6.082762530298219,19.1049731745428,16.0312195418814,12.0,15.0,13.0,8.0,5.0,2.0,6.0,2.23606797749979,2.23606797749979,2.0,6.0,9.0,11.045361017187261
66,71,8.0,21.095023109728988,1.0,3.1622776601683795,6.082762530298219,6.082762530298219,7.0710678118654755,19.1049731745428,16.0312195418814,12.0,15.0,13.0,7.0,5.0,2.0,6.0,2.23606797749979,3.1622776601683795,3.0,5.0,8.0,10.04987562112089
67,72,3.1622776601683795,19.235384061671343,3.0,4.0,5.0990195135927845,6.082762530298219,6.082762530298219,16.1245154965971,12.165525060596439,10.5,14.0,11.0,6.5,3.5,0.5,4.5,2.23606797749979,2.0,2.0,5.0,9.0,11.045361017187261
68,73,2.0,20.223748416156685,2.0,4.123105625617661,6.0,7.0710678118654755,7.0710678118654755,15.132745950421556,11.045361017187261,10.0,14.0,11.0,5.5,2.5,1.5,3.5,3.1622776601683795,3.1622776601683795,3.0,5.0,9.0,11.045361017187261
69,74,1.0,20.396078054371138,3.0,4.123105625617661,6.0,6.082762530298219,6.082762530298219,14.142135623730951,10.04987562112089,9.5,14.0,10.0,6.0,2.0,2.0,3.0,2.0,2.23606797749979,2.0,5.0,8.0,11.0
70,75,2.0,20.09975124224178,2.0,4.0,6.0,7.0710678118654755,7.280109889280518,15.132745950421556,11.180339887498949,10.0,13.0,11.0,5.0,3.0,1.0,3.0,2.0,3.0,2.5,5.0,8.0,11.0
71,76,1.0,20.223748416156685,3.0,5.0990195135927845,6.082762530298219,6.082762530298219,6.082762530298219,15.132745950421556,10.04987562112089,9.5,13.0,10.0,5.5,3.5,1.5,3.5,2.0,2.23606797749979,2.0,5.0,8.0,11.0
72,77,3.0,21.095023109728988,2.0,4.123105625617661,6.0,6.082762530298219,6.082762530298219,15.132745950421556,11.045361017187261,9.5,12.0,10.0,5.0,4.0,0.0,3.0,2.23606797749979,2.0,2.0,5.0,8.0,11.0
73,78,3.0,20.09975124224178,2.0,4.123105625617661,6.0,6.082762530298219,6.082762530298219,15.132745950421556,11.045361017187261,9.5,12.0,10.0,5.0,4.0,0.0,3.0,2.0,2.0,2.0,5.0,8.0,11.0
74,79,1.0,21.095023109728988,3.0,4.123105625617661,6.082762530298219,7.0,6.324555320336759,14.317821063276353,10.198039027185569,9.5,12.0,10.0,5.0,3.0,1.0,3.0,2.23606797749979,2.0,2.0,5.0,8.0,11.0
75,80,2.0,21.095023109728988,3.0,4.123105625617661,6.082762530298219,7.0,6.082762530298219,15.132745950421556,11.045361017187261,10.0,13.0,11.0,6.0,3.0,1.0,4.0,2.0,2.0,2.0,5.0,7.0,12.0
76,81,2.0,20.09975124224178,2.0,4.0,6.0,7.0,7.0710678118654755,15.033296378372908,11.045361017187261,10.0,13.0,11.0,5.0,3.0,1.0,3.0,3.0,2.23606797749979,2.0,6.0,8.0,11.045361017187261
77,82,3.0,20.09975124224178,2.0,4.123105625617661,6.082762530298219,7.0710678118654755,6.324555320336759,15.297058540778355,11.180339887498949,9.5,12.0,10.0,5.0,4.0,0.0,3.0,3.0,3.0,3.0,6.0,8.0,11.0
78,83,2.0,20.09975124224178,3.0,4.123105625617661,6.0,6.0,6.082762530298219,15.132745950421556,11.045361017187261,10.0,13.0,11.0,6.0,3.0,1.0,3.0,2.0,2.23606797749979,2.0,5.0,8.0,12.0
79,84,2.0,20.09975124224178,2.0,4.123105625617661,6.0,7.0,6.082762530298219,14.142135623730951,10.04987562112089,9.0,12.0,10.0,5.0,3.0,1.0,3.0,2.23606797749979,2.0,2.0,6.0,8.0,12.041594578792296
80,85,2.23606797749979,20.09975124224178,3.0,4.0,5.0990195135927845,6.082762530298219,7.0710678118654755,16.1245154965971,12.165525060596439,11.0,14.0,12.0,6.0,3.0,1.0,4.0,3.0,2.0,2.0,6.0,8.0,11.0
81,86,2.0,19.1049731745428,3.1622776601683795,4.0,5.0990195135927845,6.082762530298219,6.0,15.033296378372908,11.045361017187261,10.0,13.0,11.0,6.0,3.0,1.0,4.0,3.1622776601683795,3.1622776601683795,3.0,6.0,8.0,12.0
82,87,3.0,19.235384061671343,2.0,4.123105625617661,6.082762530298219,6.082762530298219,7.0710678118654755,16.1245154965971,12.041594578792296,10.5,14.0,11.0,5.5,3.5,0.5,3.5,2.0,2.0,2.0,6.0,8.0,11.0
83,88,3.0,19.235384061671343,3.0,5.0990195135927845,6.0,6.082762530298219,6.082762530298219,17.11724276862369,12.041594578792296,10.5,14.0,11.0,6.5,4.5,0.5,3.5,3.0,2.0,2.0,7.0,9.0,11.0
84,89,3.0,18.24828759089466,3.0,4.0,5.0990195135927845,6.082762530298219,7.280109889280518,17.11724276862369,13.152946437965905,11.5,16.0,13.0,7.5,2.5,1.5,5.5,2.0,2.0,2.5,7.0,8.0,11.045361017187261
85,90,3.0,18.110770276274835,3.0,5.0990195135927845,6.082762530298219,6.082762530298219,7.0710678118654755,18.110770276274835,13.038404810405298,11.5,15.0,13.0,7.0,4.0,1.0,4.0,3.0,2.0,2.0,7.0,9.0,11.045361017187261
86,91,3.0,17.26267650163207,3.0,5.0990195135927845,6.082762530298219,6.082762530298219,7.0710678118654755,18.110770276274835,13.038404810405298,11.5,16.0,13.0,7.5,3.5,1.5,4.5,2.0,3.0,3.0,6.0,8.0,11.045361017187261
87,92,2.0,18.110770276274835,3.1622776601683795,5.0,5.0,6.0,7.0,17.029386365926403,12.041594578792296,11.0,14.0,12.0,6.0,4.0,1.0,3.0,3.0,3.0,3.0,6.0,8.0,12.041594578792296
88,93,3.0,18.24828759089466,3.1622776601683795,4.0,5.0,6.0,6.082762530298219,16.1245154965971,12.165525060596439,10.5,14.0,11.0,6.5,3.5,0.5,3.5,3.1622776601683795,3.0,3.0,6.0,8.0,12.041594578792296
89,94,2.23606797749979,20.09975124224178,2.0,4.0,5.0,6.0,7.0710678118654755,15.132745950421556,11.180339887498949,10.0,13.0,11.0,5.0,3.0,1.0,3.0,3.1622776601683795,3.0,2.5,6.0,8.0,11.0
90,95,2.0,19.1049731745428,2.0,4.123105625617661,6.082762530298219,7.0710678118654755,7.0710678118654755,15.132745950421556,11.045361017187261,10.0,13.0,11.0,5.0,3.0,1.0,4.0,3.1622776601683795,3.0,3.0,6.0,8.0,11.045361017187261
91,96,2.0,19.235384061671343,2.0,4.123105625617661,6.0,6.0,7.0710678118654755,15.132745950421556,11.045361017187261,10.0,14.0,11.0,5.5,2.5,1.5,3.5,3.0,3.0,3.0,6.0,8.0,12.0
92,97,2.0,19.1049731745428,2.0,4.0,6.0,6.082762530298219,7.0710678118654755,15.033296378372908,11.045361017187261,10.0,13.0,11.0,5.0,3.0,1.0,3.0,3.0,3.0,3.0,6.0,8.0,11.0
93,98,2.0,20.09975124224178,2.0,4.0,6.0,7.0,7.0710678118654755,15.033296378372908,11.045361017187261,10.0,13.0,11.0,5.0,3.0,1.0,3.0,2.23606797749979,2.23606797749979,2.5,5.0,7.0,12.041594578792296
94,99,5.0,21.095023109728988,2.0,4.123105625617661,6.0,7.0,7.0710678118654755,18.110770276274835,14.035668847618199,11.5,14.0,12.0,6.0,5.0,1.0,4.0,3.0,3.1622776601683795,3.0,5.0,7.0,12.041594578792296
95,100,7.0,21.095023109728988,1.0,3.0,6.0,7.0,7.0710678118654755,18.027756377319946,15.033296378372908,11.5,14.0,12.0,6.0,5.0,2.0,5.0,2.0,3.1622776601683795,3.0,5.0,7.0,12.041594578792296
96,101,7.0,21.095023109728988,1.0,3.0,6.082762530298219,7.0,8.06225774829855,19.026297590440446,16.0312195418814,12.5,15.0,13.0,6.0,5.0,2.0,5.0,3.1622776601683795,3.0,3.0,6.0,8.0,11.045361017187261
97,102,5.0,20.09975124224178,1.4142135623730951,3.0,7.0,6.0,8.0,17.029386365926403,14.035668847618199,11.5,14.0,12.0,5.0,4.0,1.0,4.0,2.23606797749979,2.0,2.0,5.0,7.0,11.045361017187261
98,103,3.0,21.095023109728988,2.0,3.0,5.0,6.0,7.0710678118654755,15.033296378372908,12.041594578792296,10.5,13.0,11.0,5.0,3.0,0.0,3.0,3.1622776601683795,2.0,2.0,6.0,7.0,11.0
99,104,1.4142135623730951,21.095023109728988,3.0,3.0,6.082762530298219,6.082762530298219,7.0,14.035668847618199,11.045361017187261,10.5,13.0,11.0,5.0,2.0,1.0,3.0,2.23606797749979,2.0,2.5,5.0,7.0,12.041594578792296
100,105,2.0,21.095023109728988,2.0,3.1622776601683795,6.0,6.0,7.0710678118654755,14.142135623730951,11.045361017187261,10.0,13.0,11.0,5.0,2.0,1.0,3.0,2.0,2.0,2.0,6.0,7.0,11.045361017187261
101,106,1.0,21.02379604162864,2.0,3.0,6.0,6.0,7.0710678118654755,13.038404810405298,10.04987562112089,9.5,12.0,11.0,4.5,1.5,1.5,2.5,1.4142135623730951,2.0,1.5,6.0,6.0,10.0
102,107,2.0,21.0,2.0,2.0,5.0,6.0,7.0710678118654755,13.038404810405298,11.045361017187261,10.0,12.0,12.0,5.0,1.0,2.0,3.0,1.0,2.0,1.5,6.0,5.0,11.0
103,108,4.0,22.02271554554524,3.0,3.0,5.0990195135927845,7.0710678118654755,7.0710678118654755,17.029386365926403,14.035668847618199,12.0,13.0,14.0,6.5,3.5,0.5,3.5,2.0,1.0,1.5,8.0,5.0,11.045361017187261
104,109,9.0,23.08679276123039,2.0,2.0,6.0,7.0,7.0,20.0,18.0,13.5,13.0,15.0,7.0,6.0,3.0,5.0,1.4142135623730951,2.0,2.0,8.0,5.0,11.180339887498949
105,110,10.0,24.020824298928627,2.0,3.0,6.0,8.06225774829855,8.0,23.0,20.0,15.0,15.0,16.0,7.5,7.5,3.5,5.5,1.0,1.0,1.5,8.0,5.0,11.045361017187261
106,111,11.0,25.019992006393608,2.0,3.0,6.082762530298219,8.0,7.0,23.0,20.0,14.5,15.0,16.0,8.5,7.5,4.5,5.5,2.0,2.0,1.5,7.0,6.0,11.045361017187261
107,112,11.0,25.019992006393608,2.23606797749979,4.0,6.0,7.0,7.0,24.020824298928627,20.024984394500787,14.5,14.0,15.0,7.5,9.5,5.5,5.5,2.0,1.0,1.5,7.0,6.0,11.045361017187261
108,113,11.0,27.018512172212592,3.0,3.0,7.0,8.0,7.0,24.0,21.0,15.5,15.0,16.0,8.5,8.5,5.5,5.5,2.0,2.23606797749979,2.0,7.0,5.0,11.045361017187261
109,114,12.0,26.019223662515376,2.0,3.0,7.0,8.0,8.06225774829855,25.019992006393608,22.02271554554524,16.0,15.0,16.0,7.5,9.5,6.5,5.5,1.4142135623730951,2.0,2.0,8.0,6.0,11.0
110,115,12.0,26.019223662515376,2.0,3.0,7.0,8.0,7.0,24.0,21.0,15.0,13.0,14.0,6.5,10.5,7.5,4.5,2.0,2.0,2.0,8.0,6.0,13.038404810405298
111,116,13.0,26.019223662515376,2.0,3.0,7.0,8.06225774829855,7.0,25.0,22.0,15.5,14.0,15.0,7.5,10.5,7.5,5.5,2.0,2.23606797749979,2.0,8.0,6.0,13.0
112,117,11.0,27.018512172212592,2.23606797749979,3.0,7.0,8.0,8.0,24.020824298928627,21.02379604162864,15.5,14.0,15.0,6.5,9.5,6.5,4.5,2.0,3.0,2.5,7.0,6.0,13.038404810405298
113,118,12.0,28.0178514522438,2.23606797749979,3.0,7.0710678118654755,8.06225774829855,8.0,25.019992006393608,22.02271554554524,16.0,14.0,15.0,6.5,10.5,6.5,4.5,2.0,2.0,2.0,8.0,6.0,13.038404810405298
114,119,12.0,27.018512172212592,2.0,3.0,8.0,8.0,7.0710678118654755,24.020824298928627,21.02379604162864,15.0,13.0,14.0,6.5,10.5,7.5,4.5,2.0,3.0,2.5,7.0,6.0,12.0
115,120,11.0,27.018512172212592,2.0,4.0,7.0,8.0,7.0710678118654755,24.020824298928627,20.024984394500787,14.5,13.0,14.0,6.5,10.5,6.5,4.5,2.0,2.23606797749979,2.0,7.0,6.0,12.0
116,121,9.055385138137417,25.0,2.0,3.0,7.0,7.0,7.0,21.02379604162864,18.027756377319946,13.5,14.0,14.0,7.0,7.0,4.0,5.0,2.23606797749979,2.0,2.0,8.0,7.0,13.0
117,122,7.0,24.020824298928627,2.0,4.0,6.0,7.0,8.0,21.0,17.0,13.5,14.0,15.0,6.5,6.5,2.5,4.5,2.23606797749979,2.0,2.0,8.0,6.0,13.038404810405298
118,123,6.0,22.0,2.0,3.0,6.0,6.0,7.0,18.0,15.0,12.0,14.0,14.0,7.0,4.0,1.0,5.0,2.0,3.0,2.5,7.0,7.0,12.0
119,124,5.0,22.0,2.0,2.0,6.0,6.0,7.0,16.0,14.0,11.5,13.0,13.0,6.0,3.0,1.0,4.0,3.0,3.0,3.0,6.0,6.0,12.0
120,125,2.0,20.024984394500787,3.0,2.0,5.0990195135927845,6.0,7.0710678118654755,14.035668847618199,12.041594578792296,11.0,13.0,12.0,5.5,1.5,1.5,3.5,2.0,2.0,2.0,5.0,6.0,11.0
121,126,2.0,21.0,2.0,3.0,6.0,6.0,7.0710678118654755,14.035668847618199,11.045361017187261,10.0,12.0,12.0,5.0,2.0,1.0,3.0,2.0,2.23606797749979,2.0,6.0,5.0,11.045361017187261
122,127,2.0,20.024984394500787,2.0,4.0,6.0,6.0,7.0710678118654755,15.033296378372908,11.045361017187261,10.0,13.0,12.0,5.5,2.5,1.5,3.5,2.0,3.0,2.5,6.0,6.0,11.045361017187261
123,128,2.0,19.0,3.0,4.0,6.0,7.0,6.0,15.0,11.0,10.0,13.0,13.0,7.0,2.0,2.0,4.0,3.1622776601683795,2.0,2.0,6.0,6.0,10.0
124,129,3.0,19.026297590440446,3.0,5.0,6.0,7.0,4.0,15.0,10.0,8.5,13.0,12.0,8.5,2.5,2.5,5.5,2.0,2.0,2.0,7.0,6.0,10.0
125,130,4.0,20.0,2.0,4.0,7.0,7.0,5.0,15.0,11.0,9.0,12.0,12.0,7.0,3.0,2.0,5.0,2.0,2.0,2.0,7.0,6.0,11.0
126,131,4.0,20.0,3.0,4.0,7.0,7.0,5.0,16.0,12.0,10.0,12.0,12.0,7.0,4.0,0.0,4.0,2.0,2.0,2.0,7.0,6.0,12.0
127,132,6.0,18.0,4.0,4.0,6.0,6.0,5.0990195135927845,19.026297590440446,15.033296378372908,12.0,15.0,15.0,10.0,4.0,1.0,6.0,3.0,2.23606797749979,2.0,7.0,6.0,11.0
128,133,6.0,20.024984394500787,3.0,4.0,6.0,7.0710678118654755,6.082762530298219,19.026297590440446,15.033296378372908,12.0,13.0,14.0,7.5,5.5,0.5,4.5,2.0,2.0,2.0,8.0,7.0,12.0
129,134,4.123105625617661,20.0,2.0,4.0,7.0,6.082762530298219,7.0,17.029386365926403,13.038404810405298,11.0,13.0,13.0,6.0,4.0,0.0,4.0,2.23606797749979,2.0,2.0,7.0,6.0,12.0
130,135,1.0,22.02271554554524,2.0,3.0,5.0990195135927845,6.082762530298219,9.0,15.0,12.0,11.5,13.0,12.0,3.5,2.5,1.5,2.5,2.0,2.0,2.0,7.0,7.0,11.0
131,136,1.0,23.021728866442675,2.0,3.0,6.0,7.0,9.0,15.0,12.0,11.5,13.0,12.0,3.5,2.5,0.5,1.5,2.23606797749979,2.0,2.0,7.0,7.0,12.0
132,137,3.0,23.0,3.0,3.0,6.0,6.0,8.0,17.0,14.0,12.5,13.0,13.0,5.0,4.0,1.0,2.0,3.0,2.0,2.5,7.0,7.0,12.0
133,138,5.0,24.0,3.0,3.0,6.082762530298219,6.0,8.0,19.0,16.0,13.5,14.0,14.0,6.0,5.0,1.0,4.0,3.0,2.0,2.5,7.0,7.0,12.0
134,139,4.0,23.0,3.0,4.0,7.0,7.0,7.0,18.0,14.0,12.0,13.0,13.0,6.0,5.0,1.0,4.0,2.0,2.0,2.5,7.0,7.0,13.0
135,140,5.0990195135927845,23.021728866442675,2.0,3.0,6.0,7.0,8.0,18.027756377319946,15.033296378372908,12.5,14.0,13.0,5.5,4.5,0.5,3.5,3.0,2.0,2.0,7.0,6.0,12.0
136,141,3.0,23.0,2.0,3.0,6.0,6.0,8.0,16.0,13.0,11.5,13.0,13.0,5.0,3.0,0.0,3.0,2.23606797749979,3.0,2.5,7.0,7.0,12.0
137,142,2.0,23.0,2.0,3.1622776601683795,6.0,6.0,7.0,14.035668847618199,11.0,10.0,12.0,12.0,5.0,2.0,1.0,3.0,3.1622776601683795,2.0,2.5,7.0,7.0,12.0
138,143,2.0,23.0,2.0,3.1622776601683795,6.0,7.0,8.0,15.033296378372908,12.0,11.0,13.0,13.0,5.0,2.0,1.0,3.0,3.0,2.23606797749979,2.5,7.0,6.0,12.0
139,144,2.23606797749979,23.0,2.0,4.0,6.0,7.0,8.0,16.0312195418814,12.041594578792296,11.0,13.0,13.0,5.0,3.0,1.0,3.0,3.0,2.23606797749979,2.5,6.0,6.0,12.0
140,145,2.0,23.0,2.0,3.0,6.0,7.0,8.06225774829855,15.033296378372908,12.041594578792296,11.0,13.0,13.0,5.0,2.0,1.0,3.0,2.23606797749979,2.0,2.0,7.0,7.0,12.041594578792296
141,146,2.0,22.02271554554524,2.0,3.0,6.0,6.0,8.0,15.0,12.0,11.0,12.0,13.0,4.5,2.5,1.5,2.5,2.0,2.0,2.0,7.0,7.0,12.0
142,147,2.0,22.0,2.0,4.0,6.0,6.0,7.0,15.0,11.0,10.0,12.0,12.0,5.0,3.0,1.0,3.0,2.0,2.0,2.0,7.0,6.0,11.0
143,148,2.23606797749979,22.02271554554524,2.23606797749979,3.0,6.0,7.0710678118654755,8.06225774829855,15.033296378372908,12.041594578792296,11.0,12.0,13.0,4.5,2.5,1.5,2.5,2.0,2.0,2.5,7.0,6.0,12.0
144,149,3.0,22.0,2.0,3.0,6.0,6.0,8.06225774829855,16.0312195418814,13.038404810405298,11.5,13.0,13.0,5.0,3.0,1.0,3.0,2.0,2.23606797749979,2.5,7.0,6.0,12.0
145,150,2.0,22.0,3.0,3.0,7.0,7.0,7.0710678118654755,15.033296378372908,12.041594578792296,11.0,12.0,12.0,5.0,3.0,0.0,3.0,2.23606797749979,2.23606797749979,2.0,8.0,7.0,12.0
146,151,2.23606797749979,21.0,2.0,3.0,6.0,7.0,8.0,15.033296378372908,12.041594578792296,11.0,13.0,13.0,5.0,2.0,2.0,3.0,3.0,2.23606797749979,2.0,8.0,7.0,13.0
147,152,1.4142135623730951,22.02271554554524,3.1622776601683795,4.0,5.0,6.0,7.0710678118654755,15.033296378372908,11.045361017187261,10.5,12.0,13.0,5.5,2.5,1.5,2.5,3.0,3.0,2.5,8.0,7.0,12.0
148,153,2.0,22.02271554554524,2.0,3.0,6.0,6.082762530298219,8.0,15.0,12.0,11.0,12.0,13.0,4.5,2.5,1.5,2.5,3.0,2.23606797749979,2.0,8.0,7.0,13.0
149,154,1.0,21.02379604162864,3.0,3.0,6.0,6.0,8.0,15.0,12.0,11.5,13.0,14.0,5.5,1.5,1.5,2.5,2.0,3.0,2.5,8.0,7.0,12.041594578792296
150,155,1.0,21.0,3.0,3.0,6.082762530298219,6.082762530298219,8.0,15.0,12.0,11.5,13.0,13.0,5.0,2.0,2.0,2.0,2.0,3.0,3.0,8.0,7.0,11.045361017187261
151,156,1.0,22.02271554554524,3.0,4.0,6.0,6.0,7.0,15.0,11.0,10.5,12.0,13.0,5.5,2.5,1.5,2.5,3.0,3.0,2.5,8.0,7.0,11.045361017187261
152,157,2.0,22.090722034374522,3.0,4.0,6.0,6.082762530298219,7.0,16.0,12.0,11.0,11.0,13.0,5.0,4.0,0.0,2.0,3.0,3.0,3.0,9.0,8.0,10.04987562112089
153,158,1.0,24.0,3.0,4.0,6.0,7.0710678118654755,8.0,16.0,12.0,11.5,11.0,11.0,3.0,5.0,1.0,1.0,3.0,3.0,2.5,11.0,10.0,11.0
154,159,1.0,25.019992006393608,3.0,4.0,6.0,7.0,7.0710678118654755,15.033296378372908,11.045361017187261,10.5,9.0,10.0,2.5,5.5,1.5,0.5,2.0,3.0,2.5,10.0,9.0,9.0
155,160,2.0,27.0,3.0,4.0,7.0,7.0,7.0710678118654755,16.0312195418814,12.041594578792296,11.0,10.0,10.0,3.0,6.0,1.0,1.0,3.0,3.0,3.0,10.0,9.0,9.0
156,173,3.1622776601683795,20.024984394500787,2.0,3.0,5.0,6.082762530298219,8.0,16.0312195418814,13.038404810405298,11.5,13.0,14.0,5.5,2.5,1.5,3.5,2.0,2.0,2.5,9.0,6.0,10.04987562112089
157,174,2.0,20.09975124224178,3.1622776601683795,3.0,5.0990195135927845,5.0,8.0,16.0312195418814,13.038404810405298,12.0,13.0,15.0,6.0,2.0,1.0,3.0,2.0,2.0,2.0,8.0,6.0,10.04987562112089
158,175,4.0,20.09975124224178,3.0,3.0,5.0,5.0990195135927845,7.0710678118654755,17.029386365926403,14.035668847618199,12.0,13.0,15.0,7.0,3.0,1.0,4.0,2.0,2.0,2.5,8.0,6.0,11.045361017187261
159,176,5.0,19.1049731745428,2.0,3.1622776601683795,4.0,5.0,8.0,18.027756377319946,15.0,12.5,14.0,16.0,7.0,3.0,0.0,5.0,3.0,2.23606797749979,2.0,8.0,5.0,11.045361017187261
160,177,5.0,19.1049731745428,2.23606797749979,3.0,5.0,5.0,9.0,19.026297590440446,16.0312195418814,13.5,15.0,17.0,7.0,3.0,0.0,5.0,3.0,2.0,2.0,8.0,5.0,11.045361017187261
161,178,5.0,19.1049731745428,2.0,3.0,6.0,6.0,8.0,18.0,15.0,12.5,14.0,16.0,7.0,3.0,0.0,5.0,3.0,3.0,3.0,8.0,6.0,11.045361017187261
162,179,6.0,20.024984394500787,2.0,2.0,5.0,5.0,8.0,18.0,16.0,13.0,15.0,16.0,7.5,2.5,0.5,5.5,3.0,2.0,2.0,8.0,5.0,12.041594578792296
163,180,5.0,20.024984394500787,2.0,3.0,5.0,6.0,8.06225774829855,18.027756377319946,15.033296378372908,12.5,14.0,15.0,6.5,3.5,0.5,4.5,3.0,2.0,2.0,7.0,4.0,12.041594578792296
164,181,5.0,19.026297590440446,2.23606797749979,3.0,5.0,6.0,8.0,18.027756377319946,15.033296378372908,12.5,14.0,15.0,6.5,3.5,0.5,4.5,2.0,2.0,2.0,7.0,4.0,12.041594578792296
165,182,5.0990195135927845,19.026297590440446,2.0,3.0,5.0,6.0,9.0,19.026297590440446,16.0312195418814,13.5,15.0,16.0,6.5,3.5,0.5,4.5,2.0,2.0,2.0,7.0,4.0,11.045361017187261
166,183,5.0,19.026297590440446,2.0,3.1622776601683795,5.0,6.0,9.0,19.026297590440446,16.0,13.5,15.0,16.0,6.5,3.5,0.5,4.5,2.0,2.0,2.0,7.0,4.0,11.045361017187261
167,184,5.0,20.09975124224178,2.0,3.1622776601683795,5.0,6.0,8.0,18.027756377319946,15.0,12.5,14.0,16.0,7.0,3.0,0.0,5.0,3.0,3.1622776601683795,3.0,8.0,5.0,12.041594578792296
168,185,5.0,20.09975124224178,2.0,3.1622776601683795,5.0,6.082762530298219,8.0,18.027756377319946,15.0,12.5,14.0,16.0,7.0,3.0,0.0,5.0,3.0,3.1622776601683795,2.5,7.0,4.0,11.045361017187261
169,186,5.0990195135927845,20.09975124224178,2.0,3.0,5.0,6.0,9.0,19.026297590440446,16.0312195418814,13.5,15.0,17.0,7.0,3.0,0.0,5.0,2.0,2.23606797749979,2.0,7.0,4.0,12.041594578792296
170,187,4.123105625617661,20.09975124224178,3.0,3.0,5.0990195135927845,6.0,8.0,18.027756377319946,15.033296378372908,13.0,14.0,16.0,7.0,3.0,0.0,4.0,3.0,3.1622776601683795,3.0,7.0,4.0,12.041594578792296
171,188,4.0,20.09975124224178,3.0,3.1622776601683795,5.0990195135927845,6.082762530298219,8.0,18.027756377319946,15.0,13.0,14.0,16.0,7.0,3.0,0.0,4.0,2.0,2.23606797749979,2.5,8.0,4.0,12.165525060596439
172,189,5.0,21.095023109728988,2.23606797749979,2.0,5.0,6.0,9.0,18.027756377319946,16.0312195418814,13.5,14.0,16.0,6.0,3.0,0.0,4.0,3.0,2.23606797749979,2.5,8.0,4.0,12.041594578792296
173,190,4.123105625617661,20.09975124224178,3.0,3.0,5.0990195135927845,6.082762530298219,8.0,18.027756377319946,15.033296378372908,13.0,14.0,16.0,7.0,3.0,0.0,4.0,2.0,2.23606797749979,2.5,8.0,4.0,12.041594578792296
174,191,4.0,19.235384061671343,2.23606797749979,3.1622776601683795,5.0,5.0990195135927845,8.0,17.11724276862369,14.035668847618199,12.0,13.0,16.0,6.5,2.5,1.5,4.5,2.0,2.0,2.0,8.0,4.0,11.045361017187261
175,192,3.0,17.46424919657298,3.1622776601683795,4.123105625617661,5.0990195135927845,6.082762530298219,8.0,18.110770276274835,14.035668847618199,12.5,13.0,17.0,7.0,3.0,2.0,4.0,2.0,2.23606797749979,2.0,8.0,4.0,12.041594578792296
176,193,3.0,18.24828759089466,3.0,4.123105625617661,5.0990195135927845,6.082762530298219,7.0710678118654755,17.11724276862369,13.038404810405298,11.5,13.0,16.0,7.5,2.5,2.5,3.5,2.0,1.4142135623730951,1.5,9.0,5.0,12.165525060596439
177,194,3.0,18.439088914585774,3.0,4.123105625617661,5.0,6.082762530298219,8.06225774829855,18.110770276274835,14.035668847618199,12.5,13.0,17.0,7.0,3.0,2.0,4.0,2.0,2.23606797749979,2.0,9.0,4.0,12.165525060596439
178,195,2.0,19.235384061671343,3.1622776601683795,4.123105625617661,6.082762530298219,6.324555320336759,8.0,17.11724276862369,13.038404810405298,12.0,13.0,16.0,6.5,2.5,2.5,3.5,3.0,2.0,2.5,9.0,5.0,11.045361017187261
179,196,3.0,20.223748416156685,2.0,3.1622776601683795,6.082762530298219,6.082762530298219,7.0,15.033296378372908,12.0,10.5,11.0,14.0,5.5,2.5,1.5,2.5,2.0,2.23606797749979,2.0,9.0,5.0,11.045361017187261
180,197,2.0,21.095023109728988,2.23606797749979,3.0,6.0,6.082762530298219,8.0,15.033296378372908,12.041594578792296,11.0,12.0,14.0,5.0,2.0,2.0,3.0,2.0,2.23606797749979,2.0,8.0,5.0,11.045361017187261
181,198,3.0,22.090722034374522,2.0,3.1622776601683795,5.0,6.082762530298219,8.0,16.0312195418814,13.0,11.5,13.0,15.0,6.0,2.0,1.0,4.0,2.0,2.0,2.5,8.0,4.0,11.180339887498949
182,199,5.0,21.095023109728988,2.23606797749979,3.0,6.0,6.082762530298219,8.0,18.027756377319946,15.033296378372908,12.5,13.0,15.0,6.0,4.0,0.0,4.0,2.0,2.23606797749979,2.0,8.0,4.0,11.180339887498949
183,200,7.0,20.09975124224178,2.0,3.1622776601683795,6.0,7.0,7.0,19.026297590440446,16.0,12.5,14.0,16.0,8.0,4.0,1.0,6.0,2.0,2.0,2.0,9.0,6.0,12.165525060596439
184,201,5.0,20.024984394500787,2.0,3.1622776601683795,5.0,6.082762530298219,8.0,18.027756377319946,15.0,12.5,14.0,15.0,6.5,3.5,0.5,4.5,3.0,2.0,2.0,9.0,6.0,12.165525060596439
185,202,2.0,22.02271554554524,2.23606797749979,3.0,6.0,6.0,8.0,15.033296378372908,12.041594578792296,11.0,13.0,14.0,5.5,1.5,1.5,3.5,2.0,2.0,2.0,8.0,5.0,11.045361017187261
186,203,1.0,23.021728866442675,2.23606797749979,3.0,6.0,6.0,8.0,14.035668847618199,11.045361017187261,10.5,12.0,13.0,4.5,1.5,2.5,2.5,2.0,2.0,2.5,8.0,5.0,11.180339887498949
187,204,1.0,23.021728866442675,3.0,3.0,6.082762530298219,6.082762530298219,8.06225774829855,15.033296378372908,12.041594578792296,11.5,12.0,13.0,4.5,2.5,1.5,1.5,2.0,2.23606797749979,2.0,8.0,5.0,11.045361017187261
188,205,3.0,23.021728866442675,2.0,3.0,6.0,6.0,8.0,16.0,13.0,11.5,13.0,14.0,5.5,2.5,0.5,3.5,2.0,2.23606797749979,2.0,8.0,5.0,10.04987562112089
189,206,5.0,23.08679276123039,2.0,3.0,6.0,6.082762530298219,7.0,17.0,14.0,11.5,12.0,14.0,6.0,4.0,0.0,4.0,2.0,2.23606797749979,2.5,9.0,5.0,10.198039027185569
190,207,5.0,22.02271554554524,2.0,3.0,6.0,7.0710678118654755,7.0,17.0,14.0,11.5,13.0,14.0,6.5,3.5,0.5,4.5,2.0,2.23606797749979,2.5,8.0,5.0,11.045361017187261
191,208,2.0,21.02379604162864,2.23606797749979,4.0,6.082762530298219,6.082762530298219,7.0,15.033296378372908,11.045361017187261,10.0,12.0,13.0,5.5,2.5,1.5,2.5,2.0,2.23606797749979,2.5,8.0,5.0,12.041594578792296
192,209,2.0,21.095023109728988,2.23606797749979,4.0,6.0,6.082762530298219,7.0,15.033296378372908,11.045361017187261,10.0,11.0,13.0,5.0,3.0,1.0,3.0,2.0,2.0,2.0,8.0,5.0,11.045361017187261
193,210,2.0,21.095023109728988,2.0,4.0,6.0,6.082762530298219,7.0710678118654755,15.033296378372908,11.045361017187261,10.0,11.0,13.0,5.0,3.0,1.0,3.0,2.0,2.0,2.5,8.0,5.0,12.041594578792296
194,211,2.23606797749979,21.095023109728988,2.0,3.0,5.0,6.082762530298219,7.0,14.035668847618199,11.045361017187261,10.0,11.0,13.0,5.0,2.0,1.0,3.0,2.0,2.0,2.5,8.0,6.0,11.045361017187261
195,212,2.0,22.02271554554524,2.0,4.0,6.0,7.0710678118654755,7.0,15.0,11.0,10.0,12.0,13.0,5.5,2.5,1.5,3.5,2.0,2.0,2.0,8.0,5.0,12.165525060596439
196,213,5.0,22.090722034374522,1.0,3.0,6.082762530298219,7.0710678118654755,8.06225774829855,17.029386365926403,14.035668847618199,11.5,13.0,15.0,6.0,3.0,1.0,4.0,2.0,2.23606797749979,2.5,8.0,5.0,12.041594578792296
197,214,6.082762530298219,20.09975124224178,2.0,3.0,6.082762530298219,6.082762530298219,8.0,19.026297590440446,16.0312195418814,13.0,14.0,16.0,7.0,4.0,0.0,5.0,2.0,2.0,2.5,8.0,5.0,11.045361017187261
198,215,6.0,20.223748416156685,2.23606797749979,3.0,5.0990195135927845,6.082762530298219,8.0,19.026297590440446,16.0312195418814,13.0,13.0,16.0,6.5,4.5,0.5,4.5,2.0,2.0,2.5,8.0,5.0,11.045361017187261
199,216,6.0,20.09975124224178,2.23606797749979,3.0,6.0,6.0,7.0,18.027756377319946,15.033296378372908,12.0,13.0,15.0,7.0,4.0,1.0,5.0,2.0,2.23606797749979,2.0,9.0,6.0,12.165525060596439
200,217,5.0,21.095023109728988,2.0,3.1622776601683795,6.0,6.082762530298219,7.0,17.029386365926403,14.0,11.5,12.0,14.0,6.0,4.0,1.0,4.0,2.0,2.0,2.0,8.0,5.0,12.041594578792296
201,218,3.0,22.02271554554524,2.0,3.1622776601683795,6.0,6.0,7.0,15.033296378372908,12.0,10.5,12.0,13.0,5.5,2.5,1.5,3.5,2.0,2.0,2.0,8.0,6.0,12.041594578792296
202,219,3.0,22.02271554554524,2.0,3.0,6.0,6.082762530298219,7.0,15.0,12.0,10.5,12.0,13.0,5.5,2.5,1.5,3.5,2.0,2.23606797749979,2.0,8.0,6.0,12.041594578792296
203,220,2.0,22.02271554554524,2.0,4.0,6.0,6.082762530298219,7.0,15.0,11.0,10.0,12.0,13.0,5.5,2.5,1.5,3.5,2.0,2.0,2.0,8.0,6.0,11.045361017187261
204,221,4.0,22.0,2.0,3.0,6.082762530298219,7.0,8.0,17.0,14.0,12.0,13.0,13.0,5.0,4.0,1.0,3.0,2.0,2.23606797749979,2.0,7.0,5.0,11.045361017187261
205,222,5.0,23.021728866442675,2.0,2.0,7.0,7.0,7.0,16.0,14.0,11.5,12.0,13.0,5.5,3.5,1.5,3.5,2.0,2.23606797749979,2.0,8.0,6.0,11.0
206,223,5.0,24.020824298928627,2.0,2.0,6.0,6.0,7.0,16.0,14.0,11.5,12.0,13.0,5.5,3.5,1.5,3.5,2.0,2.0,2.0,8.0,6.0,11.045361017187261
207,224,5.0,25.0,1.0,3.0,6.0,7.0,7.0,16.0,13.0,10.5,12.0,12.0,5.0,4.0,1.0,4.0,2.0,2.23606797749979,2.0,7.0,5.0,11.0
208,225,3.0,25.0,2.0,2.0,7.0710678118654755,7.0,8.0,15.0,13.0,11.5,13.0,13.0,5.0,2.0,0.0,4.0,2.0,1.0,1.5,6.0,5.0,12.0
209,226,2.0,23.0,3.0,4.0,6.0,6.0,6.082762530298219,15.033296378372908,11.045361017187261,10.0,13.0,13.0,7.0,2.0,2.0,4.0,1.0,2.0,1.5,7.0,6.0,11.0
210,227,6.0,23.0,2.0,2.23606797749979,5.0,6.0,7.0710678118654755,17.0,15.033296378372908,12.0,14.0,14.0,7.0,3.0,0.0,5.0,2.23606797749979,2.0,2.0,7.0,6.0,12.0
211,228,6.0,22.02271554554524,1.0,3.0,5.0,6.0,8.06225774829855,18.027756377319946,15.033296378372908,12.0,13.0,14.0,5.5,4.5,0.5,4.5,1.0,1.0,1.5,6.0,5.0,11.045361017187261
212,229,6.0,21.02379604162864,2.0,3.0,6.0,6.082762530298219,7.0,18.0,15.0,12.0,13.0,14.0,6.5,4.5,0.5,4.5,1.0,2.0,2.0,6.0,6.0,11.0
213,230,5.0,21.095023109728988,3.0,3.0,7.0,7.0,6.082762530298219,17.029386365926403,14.035668847618199,11.5,12.0,14.0,7.0,4.0,0.0,4.0,2.0,2.0,1.5,7.0,5.0,11.045361017187261
214,231,5.0,20.024984394500787,2.0,3.0,6.082762530298219,6.0,7.0,17.0,14.0,11.5,13.0,14.0,6.5,3.5,0.5,3.5,2.0,2.23606797749979,1.5,7.0,5.0,11.0
215,232,4.0,21.095023109728988,3.0,4.123105625617661,7.0710678118654755,7.0,5.0990195135927845,16.0,12.041594578792296,10.0,12.0,14.0,8.0,3.0,1.0,4.0,2.0,2.0,2.0,8.0,5.0,12.041594578792296
216,233,3.0,20.024984394500787,4.0,4.123105625617661,6.082762530298219,7.0710678118654755,5.0,16.0312195418814,12.0,10.5,13.0,14.0,8.5,2.5,2.5,4.5,1.0,2.0,2.0,8.0,5.0,11.045361017187261
217,234,2.0,19.1049731745428,3.0,5.0,6.0,7.0710678118654755,6.0,16.0,11.0,10.0,13.0,15.0,8.0,2.0,3.0,5.0,2.0,1.0,1.5,8.0,5.0,11.045361017187261
218,235,3.1622776601683795,19.026297590440446,3.0,4.0,7.0710678118654755,6.0,5.0990195135927845,15.0,11.0,9.5,13.0,14.0,8.5,1.5,3.5,4.5,2.0,2.0,1.5,7.0,5.0,11.0
219,236,2.23606797749979,19.1049731745428,3.0,5.0,5.0990195135927845,6.082762530298219,5.0,15.033296378372908,10.04987562112089,9.0,11.0,13.0,7.0,3.0,2.0,3.0,1.0,1.4142135623730951,1.5,8.0,5.0,11.045361017187261
220,237,2.0,17.11724276862369,3.1622776601683795,4.0,5.0990195135927845,6.0,6.0,15.033296378372908,11.045361017187261,10.0,13.0,15.0,8.0,1.0,4.0,4.0,2.0,2.23606797749979,1.5,7.0,4.0,12.041594578792296
221,238,4.123105625617661,19.1049731745428,3.0,4.0,5.0,6.0,7.0710678118654755,18.0,14.0,12.0,13.0,15.0,7.0,4.0,1.0,4.0,2.0,2.23606797749979,2.0,8.0,6.0,11.045361017187261
222,239,6.0,21.02379604162864,2.0,3.0,6.0,6.0,7.0710678118654755,18.027756377319946,15.033296378372908,12.0,14.0,15.0,7.5,3.5,0.5,5.5,2.0,2.0,1.5,7.0,5.0,11.0
223,240,6.0,22.02271554554524,2.0,3.0,6.0,7.0,8.06225774829855,19.026297590440446,16.0312195418814,13.0,14.0,15.0,6.5,4.5,0.5,4.5,2.0,2.0,2.0,6.0,5.0,12.041594578792296
224,241,6.0,22.02271554554524,2.0,3.1622776601683795,6.0,7.0710678118654755,7.0,18.027756377319946,15.0,12.0,14.0,15.0,7.5,3.5,0.5,5.5,2.0,2.0,2.0,7.0,6.0,11.0
225,242,5.0,21.0,3.1622776601683795,2.0,5.0,6.0,7.0710678118654755,17.0,15.0,12.5,14.0,14.0,7.0,3.0,0.0,5.0,2.0,1.0,1.5,6.0,5.0,11.0
226,243,2.0,21.0,3.0,3.0,6.0,6.0,6.0,14.0,11.0,10.0,13.0,13.0,7.0,1.0,2.0,4.0,2.0,2.0,2.0,7.0,6.0,11.0
227,244,2.0,22.02271554554524,3.0,4.0,6.0,6.082762530298219,6.0,15.0,11.0,10.0,13.0,12.0,6.5,2.5,1.5,3.5,2.0,1.0,1.5,7.0,6.0,12.0
228,245,2.0,22.02271554554524,3.0,3.0,7.0710678118654755,7.0,6.0,14.0,11.0,10.0,13.0,12.0,6.5,1.5,1.5,4.5,3.0,2.0,2.0,6.0,6.0,12.0
229,246,2.0,21.02379604162864,3.0,3.0,6.0,6.0,6.0,14.0,11.0,10.0,13.0,12.0,6.5,1.5,1.5,3.5,2.0,1.0,1.5,7.0,6.0,12.0
230,247,2.0,22.02271554554524,3.0,4.0,6.0,7.0,6.0,15.0,11.0,10.0,13.0,12.0,6.5,2.5,1.5,3.5,2.0,1.0,1.5,7.0,6.0,11.0
231,248,3.0,22.0,3.0,3.0,6.0,6.0,6.0,15.0,12.0,10.5,13.0,13.0,7.0,2.0,1.0,4.0,2.23606797749979,2.0,2.0,7.0,6.0,11.0
232,249,5.0,21.02379604162864,2.0,2.0,6.0,7.0,7.0710678118654755,16.0312195418814,14.035668847618199,11.5,13.0,14.0,6.5,2.5,0.5,4.5,2.0,2.23606797749979,2.0,7.0,6.0,11.0
233,250,5.0,21.02379604162864,2.0,3.0,6.0,6.082762530298219,7.0,17.0,14.0,11.5,13.0,14.0,6.5,3.5,0.5,4.5,2.0,2.0,2.0,7.0,6.0,11.0
234,251,5.0,21.0,2.0,3.0,6.0,6.0,7.0,17.0,14.0,11.5,14.0,14.0,7.0,3.0,0.0,5.0,2.23606797749979,2.0,2.0,7.0,6.0,11.045361017187261
235,252,4.0,21.0,2.0,3.0,6.0,7.0,7.0,16.0,13.0,11.0,13.0,13.0,6.0,3.0,1.0,4.0,3.1622776601683795,1.0,1.5,7.0,6.0,11.0
236,253,2.0,21.02379604162864,2.0,4.0,6.0,6.0,7.0,15.0,11.0,10.0,13.0,12.0,5.5,2.5,1.5,3.5,2.23606797749979,2.0,2.0,6.0,6.0,11.0
237,254,2.0,22.02271554554524,3.0,4.0,7.0,7.0,6.0,15.0,11.0,10.0,13.0,12.0,6.5,2.5,1.5,3.5,2.0,2.0,2.0,6.0,6.0,12.0
238,255,2.0,22.02271554554524,2.0,3.0,6.0,6.082762530298219,7.0,14.0,11.0,10.0,13.0,12.0,5.5,1.5,1.5,3.5,2.0,2.0,2.0,6.0,6.0,12.0
239,256,2.0,21.02379604162864,3.0,4.0,7.0,7.0710678118654755,6.082762530298219,15.033296378372908,11.045361017187261,10.0,13.0,12.0,6.5,2.5,1.5,3.5,2.0,2.0,2.0,6.0,6.0,12.0
240,257,3.0,21.02379604162864,2.23606797749979,3.0,6.0,6.082762530298219,7.0,15.033296378372908,12.041594578792296,10.5,13.0,12.0,5.5,2.5,0.5,3.5,2.23606797749979,1.0,1.5,6.0,6.0,12.0
241,258,3.0,21.02379604162864,3.0,3.0,6.0,6.0,6.082762530298219,15.033296378372908,12.041594578792296,10.5,14.0,13.0,7.5,1.5,1.5,4.5,2.0,2.0,2.0,6.0,7.0,11.045361017187261
242,259,5.0,23.0,3.0,2.0,6.082762530298219,6.0,6.082762530298219,16.0312195418814,14.035668847618199,11.5,13.0,13.0,7.0,3.0,1.0,5.0,2.0,2.0,2.0,5.0,6.0,11.045361017187261
243,260,6.0,23.0,2.0,3.0,6.0,7.0,7.0710678118654755,18.027756377319946,15.033296378372908,12.0,14.0,14.0,7.0,4.0,1.0,5.0,2.0,2.0,2.0,5.0,6.0,11.045361017187261
244,261,6.082762530298219,23.0,3.0,3.0,7.0710678118654755,7.0,6.0,18.027756377319946,15.033296378372908,12.0,14.0,14.0,8.0,4.0,1.0,6.0,2.0,2.0,2.0,6.0,6.0,11.0
245,262,6.0,21.02379604162864,2.0,3.0,6.0,7.0710678118654755,6.082762530298219,17.029386365926403,14.035668847618199,11.0,14.0,13.0,7.5,3.5,0.5,5.5,2.0,2.0,2.0,6.0,6.0,11.0
246,263,1.0,23.021728866442675,3.0,3.0,6.082762530298219,6.0,7.0710678118654755,14.035668847618199,11.045361017187261,10.5,13.0,12.0,5.5,1.5,1.5,3.5,2.0,1.0,1.5,5.0,6.0,12.0
247,264,2.0,23.021728866442675,2.0,3.0,6.0,7.0710678118654755,7.0710678118654755,14.035668847618199,11.045361017187261,10.0,13.0,12.0,5.5,1.5,1.5,3.5,1.0,1.0,1.5,5.0,6.0,11.0
248,265,4.123105625617661,23.021728866442675,2.0,2.0,6.0,6.0,7.0,15.033296378372908,13.038404810405298,11.0,13.0,12.0,5.5,2.5,0.5,3.5,1.4142135623730951,1.0,1.5,5.0,6.0,12.041594578792296
249,266,5.0,24.0,2.0,3.1622776601683795,7.0,7.0,8.0,18.027756377319946,15.0,12.5,14.0,14.0,6.0,4.0,1.0,4.0,2.23606797749979,2.0,2.0,5.0,6.0,12.041594578792296
250,267,7.0,27.0,2.0,2.0,6.0,7.0,7.0,18.0,16.0,12.5,13.0,13.0,6.0,5.0,2.0,4.0,2.0,2.0,2.0,7.0,7.0,12.0
251,268,8.0,27.0,2.0,2.0,7.0,7.0,7.0,19.0,17.0,13.0,13.0,13.0,6.0,6.0,3.0,4.0,2.0,2.0,2.0,6.0,6.0,13.0
252,269,9.0,27.0,2.0,2.0,7.0,8.0,7.0710678118654755,20.024984394500787,18.027756377319946,13.5,14.0,14.0,7.0,6.0,3.0,5.0,2.23606797749979,2.0,2.0,6.0,6.0,12.0
253,270,8.0,27.0,3.0,3.0,7.0,9.055385138137417,7.0,21.0,18.0,14.0,14.0,14.0,7.0,7.0,4.0,5.0,2.23606797749979,2.0,2.0,6.0,6.0,12.0
254,271,10.0,29.0,2.0,3.0,7.0,8.06225774829855,7.0710678118654755,22.02271554554524,19.026297590440446,14.0,14.0,14.0,7.0,8.0,4.0,5.0,2.0,2.0,2.0,6.0,5.0,12.0
255,272,9.055385138137417,29.017236257093817,2.0,3.0,7.0,8.0,7.0,21.02379604162864,18.027756377319946,13.5,14.0,13.0,6.5,7.5,4.5,4.5,2.0,2.0,2.0,6.0,5.0,12.0
256,273,9.0,29.0,2.0,3.0,7.0,9.0,8.0,22.0,19.0,14.5,14.0,14.0,6.0,8.0,5.0,4.0,2.0,2.0,2.5,7.0,6.0,12.0
257,274,10.0,29.017236257093817,2.0,3.1622776601683795,7.0,9.0,7.0,22.02271554554524,19.0,14.0,14.0,13.0,6.5,8.5,4.5,4.5,2.0,2.0,2.0,7.0,7.0,12.0
258,275,9.055385138137417,29.0,2.0,3.0,7.0,8.0,7.0,21.02379604162864,18.027756377319946,13.5,13.0,13.0,6.0,8.0,4.0,4.0,3.0,2.0,2.5,7.0,7.0,12.0
259,276,7.0,29.0,2.0,3.0,8.0,8.0,7.0,19.0,16.0,12.5,12.0,12.0,5.0,7.0,4.0,3.0,2.0,2.0,2.5,7.0,6.0,13.0
260,277,5.0990195135927845,27.0,2.23606797749979,3.1622776601683795,7.0,8.0,6.082762530298219,16.0,13.038404810405298,10.5,11.0,11.0,5.0,5.0,2.0,3.0,2.0,2.0,2.0,7.0,6.0,12.0
261,278,2.0,27.0,2.0,3.0,8.0,8.0,7.0,14.0,11.0,10.0,11.0,11.0,4.0,3.0,0.0,2.0,2.0,2.0,2.0,7.0,6.0,12.0
262,279,2.0,26.0,2.23606797749979,3.0,7.0,7.0,8.06225774829855,15.0,12.0,11.0,12.0,12.0,4.0,3.0,1.0,2.0,1.0,2.0,2.0,8.0,7.0,12.0
263,280,2.0,26.019223662515376,2.0,3.0,7.0710678118654755,8.06225774829855,8.0,15.0,12.0,11.0,11.0,12.0,3.5,3.5,0.5,1.5,2.23606797749979,1.4142135623730951,1.5,8.0,7.0,12.0
264,281,3.0,25.019992006393608,2.0,3.0,6.0,7.0,7.0,15.0,12.0,10.5,11.0,12.0,4.5,3.5,0.5,2.5,2.0,2.0,2.0,7.0,6.0,12.0
265,282,3.0,24.0,2.0,2.0,7.0710678118654755,7.0,8.0,15.0,13.0,11.5,13.0,13.0,5.0,2.0,0.0,4.0,2.23606797749979,2.0,2.0,7.0,6.0,11.0
266,283,4.0,23.021728866442675,2.0,2.0,7.0710678118654755,7.0,8.0,16.0,14.0,12.0,14.0,13.0,5.5,2.5,0.5,4.5,2.0,2.0,2.0,7.0,6.0,11.0
267,284,5.0990195135927845,22.0,2.0,2.0,7.0,7.0710678118654755,7.0,16.0312195418814,14.035668847618199,11.5,13.0,13.0,6.0,3.0,0.0,4.0,2.0,2.0,2.5,6.0,6.0,12.0
268,285,5.0,22.0,2.0,2.0,6.0,7.0710678118654755,7.0,16.0,14.0,11.5,13.0,13.0,6.0,3.0,0.0,4.0,2.0,2.0,2.0,7.0,7.0,11.0
269,286,4.0,22.02271554554524,2.0,3.0,6.0,6.082762530298219,7.0710678118654755,16.0312195418814,13.038404810405298,11.0,13.0,12.0,5.5,3.5,0.5,3.5,2.23606797749979,2.0,2.0,6.0,6.0,12.0
270,287,4.0,22.02271554554524,2.0,2.0,6.0,6.0,7.0710678118654755,15.033296378372908,13.038404810405298,11.0,13.0,12.0,5.5,2.5,0.5,3.5,2.23606797749979,1.0,1.5,6.0,6.0,11.0
271,288,4.0,23.021728866442675,3.0,2.0,7.0,7.0,7.0710678118654755,16.0312195418814,14.035668847618199,12.0,14.0,13.0,6.5,2.5,0.5,4.5,2.0,1.0,1.5,6.0,6.0,12.0
272,289,3.0,21.0,2.0,2.0,5.0,6.0,7.0,14.0,12.0,10.5,13.0,13.0,6.0,1.0,1.0,4.0,2.0,2.0,2.0,6.0,6.0,11.0
273,290,2.0,23.0,2.0,3.1622776601683795,7.0,7.0,8.0,15.033296378372908,12.0,11.0,13.0,13.0,5.0,2.0,2.0,3.0,2.23606797749979,2.0,2.0,6.0,6.0,12.0
274,291,1.0,24.0,3.0,3.0,6.082762530298219,6.0,7.0,14.0,11.0,10.5,13.0,13.0,6.0,1.0,2.0,3.0,2.23606797749979,1.0,1.5,6.0,6.0,11.045361017187261
275,292,1.0,23.0,3.0,3.0,6.0,6.0,7.0,14.0,11.0,10.5,13.0,13.0,6.0,1.0,2.0,3.0,2.0,2.0,2.0,6.0,6.0,12.0
276,293,1.0,23.021728866442675,3.0,3.0,6.0,7.0,7.0,14.0,11.0,10.5,13.0,12.0,5.5,1.5,1.5,2.5,2.0,2.0,2.0,7.0,6.0,12.0
277,294,1.0,23.0,2.0,3.0,6.0,7.0,8.0,14.0,11.0,10.5,13.0,13.0,5.0,1.0,2.0,3.0,2.0,2.0,2.0,6.0,6.0,11.0
278,295,2.0,23.0,2.0,2.0,6.0,7.0,8.06225774829855,14.035668847618199,12.041594578792296,11.0,13.0,13.0,5.0,1.0,1.0,3.0,2.0,2.0,2.0,6.0,6.0,12.0
279,296,1.0,23.0,2.0,3.0,6.0,6.0,8.0,14.0,11.0,10.5,13.0,13.0,5.0,1.0,2.0,3.0,2.23606797749979,2.0,2.0,8.0,7.0,12.0
280,297,4.0,23.0,2.0,3.0,6.0,6.0,7.0,16.0,13.0,11.0,13.0,13.0,6.0,3.0,0.0,4.0,3.0,2.0,2.0,7.0,7.0,11.045361017187261
281,298,4.123105625617661,23.0,2.23606797749979,2.0,5.0990195135927845,6.0,8.06225774829855,16.0312195418814,14.035668847618199,12.0,13.0,13.0,5.0,3.0,1.0,4.0,2.0,1.0,1.5,7.0,6.0,12.041594578792296
282,299,5.0,23.0,2.0,2.0,6.0,6.0,7.0,16.0,14.0,11.5,13.0,13.0,6.0,3.0,0.0,4.0,2.0,1.0,1.5,7.0,7.0,12.0
283,300,2.0,23.0,2.0,3.0,6.0,6.0,8.06225774829855,15.033296378372908,12.041594578792296,11.0,13.0,13.0,5.0,2.0,1.0,3.0,2.0,2.0,2.0,7.0,6.0,13.038404810405298
284,301,2.23606797749979,23.021728866442675,2.0,3.0,5.0,5.0990195135927845,7.0,14.035668847618199,11.045361017187261,10.0,13.0,12.0,5.5,1.5,1.5,3.5,2.0,1.0,1.5,7.0,6.0,12.0
285,302,2.0,23.021728866442675,2.0,2.0,6.0,6.0,7.0,13.0,11.0,10.0,12.0,11.0,4.5,1.5,1.5,2.5,2.0,1.0,1.5,7.0,6.0,11.0
286,303,2.0,23.021728866442675,2.0,2.0,6.0,6.0,8.0,14.0,12.0,11.0,13.0,12.0,4.5,1.5,0.5,2.5,2.0,2.0,2.0,7.0,7.0,11.0
287,304,2.0,23.021728866442675,2.0,2.0,6.0,6.0,8.06225774829855,14.035668847618199,12.041594578792296,11.0,13.0,12.0,4.5,1.5,0.5,2.5,2.0,2.0,2.0,7.0,7.0,12.0
288,305,2.23606797749979,23.021728866442675,2.0,2.0,6.0,6.0,8.0,14.035668847618199,12.041594578792296,11.0,13.0,12.0,4.5,1.5,0.5,2.5,2.0,2.23606797749979,2.0,6.0,6.0,12.0
289,306,1.0,22.02271554554524,2.0,2.0,6.0,6.0,8.06225774829855,13.038404810405298,11.045361017187261,10.5,13.0,12.0,4.5,0.5,1.5,2.5,2.23606797749979,2.0,2.0,6.0,6.0,12.0
290,307,1.0,24.0,2.0,2.0,6.0,6.0,8.06225774829855,13.038404810405298,11.045361017187261,10.5,12.0,12.0,4.0,1.0,2.0,2.0,2.0,2.0,2.0,6.0,6.0,12.0
291,308,0.0,24.0,2.0,3.0,6.0,6.0,8.0,13.0,10.0,10.0,12.0,12.0,4.0,1.0,2.0,2.0,2.0,2.0,2.0,6.0,6.0,12.0
292,309,0.0,23.021728866442675,2.0,3.0,6.0,7.0,8.0,13.0,10.0,10.0,12.0,11.0,3.5,1.5,1.5,2.5,2.0,2.23606797749979,2.0,6.0,6.0,11.0
293,310,1.0,24.0,2.0,2.0,7.0,7.0,8.06225774829855,13.038404810405298,11.045361017187261,10.5,12.0,12.0,4.0,1.0,2.0,3.0,2.23606797749979,2.0,2.0,6.0,6.0,12.0
294,311,1.0,22.0,3.0,2.0,6.0,6.0,8.0,14.0,12.0,11.5,13.0,13.0,5.0,1.0,1.0,3.0,2.0,2.0,2.0,6.0,6.0,12.0
295,312,5.0,22.02271554554524,2.0,2.0,6.0,7.0,8.0,17.0,15.0,12.5,14.0,13.0,5.5,3.5,0.5,3.5,2.0,2.0,2.0,6.0,6.0,11.0
296,313,5.0,22.0,2.0,3.0,6.0,7.0,8.0,18.0,15.0,12.5,14.0,14.0,6.0,4.0,1.0,4.0,2.0,2.0,2.0,6.0,6.0,12.0
297,314,5.0990195135927845,22.0,2.23606797749979,3.0,6.0,7.0,8.06225774829855,18.027756377319946,15.033296378372908,12.5,14.0,14.0,6.0,4.0,0.0,5.0,2.23606797749979,2.0,2.0,7.0,6.0,12.0
298,315,2.0,22.0,2.0,3.0,6.082762530298219,6.0,8.06225774829855,15.033296378372908,12.041594578792296,11.0,13.0,13.0,5.0,2.0,1.0,4.0,2.0,2.0,2.0,6.0,6.0,12.0
299,316,2.0,22.0,2.0,3.0,6.0,6.0,7.0710678118654755,14.035668847618199,11.045361017187261,10.0,12.0,12.0,5.0,2.0,1.0,3.0,2.0,2.0,2.0,6.0,6.0,13.0
300,317,2.23606797749979,22.0,2.23606797749979,3.0,6.0,6.0,7.0710678118654755,14.035668847618199,11.045361017187261,10.0,12.0,12.0,5.0,2.0,1.0,3.0,2.0,2.23606797749979,1.5,7.0,7.0,11.045361017187261
301,318,2.0,22.0,2.0,3.0,6.0,6.082762530298219,8.0,15.0,12.0,11.0,13.0,13.0,5.0,2.0,2.0,4.0,2.0,2.23606797749979,2.0,6.0,6.0,12.0
302,319,3.0,22.0,2.0,3.0,6.0,6.0,7.0,15.0,12.0,10.5,13.0,13.0,6.0,2.0,2.0,4.0,2.0,2.0,2.0,6.0,6.0,12.0
303,320,4.0,21.0,1.0,3.0,6.0,6.0,8.06225774829855,16.0312195418814,13.038404810405298,11.0,13.0,13.0,5.0,3.0,0.0,4.0,3.1622776601683795,2.0,2.0,7.0,6.0,12.0
304,321,3.0,22.0,2.23606797749979,3.0,6.082762530298219,7.0,8.0,16.0312195418814,13.038404810405298,11.5,13.0,13.0,5.0,3.0,0.0,4.0,2.23606797749979,3.0,2.5,6.0,6.0,12.0
305,322,5.0,21.0,2.0,2.23606797749979,6.0,7.0,7.0,16.0312195418814,14.0,11.5,13.0,13.0,6.0,3.0,0.0,4.0,3.0,2.0,2.0,7.0,6.0,12.0
306,323,5.0,21.0,2.0,3.0,6.0,7.0,7.0,17.0,14.0,11.5,13.0,13.0,6.0,4.0,0.0,4.0,3.0,3.0,2.5,7.0,6.0,11.045361017187261
307,324,6.0,21.0,2.0,2.0,6.0,7.0,8.0,18.0,16.0,13.0,14.0,14.0,6.0,4.0,1.0,4.0,2.0,2.0,2.5,6.0,5.0,12.041594578792296
308,325,6.082762530298219,22.02271554554524,2.0,3.0,6.0,7.0,8.06225774829855,19.0,16.0,13.0,14.0,15.0,6.5,4.5,0.5,4.5,2.0,2.0,2.0,6.0,5.0,12.041594578792296
309,326,7.0,23.021728866442675,2.0,3.0,6.0,6.082762530298219,7.0710678118654755,19.026297590440446,16.0312195418814,12.5,14.0,15.0,7.5,4.5,1.5,5.5,3.0,3.0,2.5,7.0,6.0,11.0
310,327,7.0,24.020824298928627,2.0,3.0,7.0,7.0,8.06225774829855,20.024984394500787,17.029386365926403,13.5,14.0,15.0,6.5,5.5,2.5,4.5,3.0,2.0,2.5,7.0,5.0,12.0
311,328,8.0,24.020824298928627,2.0,3.0,7.0,8.06225774829855,8.0,21.0,18.0,14.0,15.0,16.0,7.5,5.5,1.5,5.5,2.0,2.0,2.0,7.0,5.0,12.041594578792296
312,329,8.0,25.079872407968907,2.0,3.0,6.082762530298219,8.0,7.0,20.0,17.0,13.0,13.0,15.0,7.0,6.0,2.0,4.0,3.0,2.0,2.5,7.0,4.0,12.041594578792296
313,330,9.0,26.019223662515376,2.0,3.0,7.0710678118654755,7.0,7.0,21.0,18.0,13.5,14.0,15.0,7.5,6.5,3.5,4.5,2.0,2.0,2.0,8.0,5.0,12.0
314,331,9.055385138137417,26.076809620810597,2.0,3.0,7.0710678118654755,8.06225774829855,7.0710678118654755,21.0,18.0,13.5,13.0,15.0,7.0,7.0,3.0,4.0,2.0,2.0,2.0,7.0,5.0,12.041594578792296
315,332,9.0,26.076809620810597,2.0,3.1622776601683795,7.0710678118654755,8.0,6.082762530298219,20.0,17.029386365926403,12.5,12.0,14.0,7.0,7.0,4.0,4.0,2.0,2.23606797749979,2.0,7.0,5.0,12.0
316,333,9.055385138137417,26.076809620810597,2.0,3.0,7.0710678118654755,8.0,6.082762530298219,20.0,17.0,12.5,12.0,14.0,7.0,7.0,4.0,4.0,2.0,2.0,2.0,7.0,4.0,12.041594578792296
317,334,10.0,26.019223662515376,2.23606797749979,3.0,7.0710678118654755,8.06225774829855,6.082762530298219,21.0,18.0,13.0,13.0,14.0,7.5,7.5,3.5,4.5,2.0,2.0,2.0,7.0,4.0,11.045361017187261
318,335,9.0,26.019223662515376,2.0,3.0,7.0710678118654755,8.0,8.0,22.0,19.0,14.5,14.0,15.0,6.5,7.5,4.5,4.5,2.0,3.0,2.5,8.0,5.0,13.038404810405298
319,336,10.0,26.019223662515376,1.0,3.0,7.0710678118654755,8.06225774829855,7.0,21.0,18.0,13.0,13.0,14.0,6.5,7.5,4.5,4.5,2.0,2.0,2.0,7.0,4.0,13.038404810405298
320,337,8.06225774829855,26.019223662515376,2.0,3.0,7.0,8.06225774829855,7.0,20.024984394500787,17.029386365926403,13.0,13.0,14.0,6.5,6.5,3.5,4.5,2.23606797749979,2.0,2.0,7.0,5.0,13.038404810405298
321,338,8.0,25.019992006393608,2.0,3.0,7.0,8.06225774829855,7.0710678118654755,20.024984394500787,17.029386365926403,13.0,13.0,14.0,6.5,6.5,3.5,4.5,2.0,2.0,2.0,8.0,6.0,12.0
322,339,8.06225774829855,24.08318915758459,3.0,3.0,7.0,7.0,6.0,20.024984394500787,17.029386365926403,13.0,13.0,15.0,8.0,6.0,3.0,5.0,3.0,2.23606797749979,2.0,7.0,5.0,12.041594578792296
323,340,10.0,22.090722034374522,2.0,4.0,8.0,8.0,7.0,23.0,19.0,14.0,15.0,17.0,9.0,7.0,3.0,7.0,3.0,3.0,2.5,6.0,5.0,11.045361017187261
324,341,10.0,21.02379604162864,3.0,4.0,7.0,8.0,6.082762530298219,23.021728866442675,19.026297590440446,14.0,15.0,16.0,9.5,7.5,3.5,6.5,3.0,2.0,2.5,8.0,6.0,11.0
325,342,10.0,22.02271554554524,2.0,3.0,7.0,8.0,7.0,22.0,19.0,14.0,15.0,16.0,8.5,6.5,3.5,6.5,2.0,2.0,2.0,7.0,5.0,12.0
326,343,11.0,20.024984394500787,2.0,3.0,7.0,7.0,7.0,23.0,20.0,14.5,15.0,16.0,8.5,7.5,3.5,6.5,2.0,2.23606797749979,2.0,7.0,5.0,11.0
327,344,10.0,20.0,2.0,4.0,7.0,7.0710678118654755,7.0,23.0,19.0,14.0,16.0,16.0,9.0,7.0,3.0,7.0,2.0,2.0,2.0,7.0,5.0,12.0
328,345,11.0,21.02379604162864,2.0,3.0,7.0710678118654755,8.06225774829855,7.0,23.0,20.0,14.5,16.0,17.0,9.5,6.5,2.5,6.5,3.0,2.0,2.5,7.0,6.0,11.045361017187261
329,346,10.0,21.0,2.0,3.0,6.0,8.0,8.0,23.0,20.0,15.0,17.0,17.0,9.0,6.0,2.0,7.0,3.1622776601683795,2.0,2.0,7.0,6.0,12.0
330,347,9.0,23.021728866442675,3.0,3.0,7.0710678118654755,8.0,7.0710678118654755,22.02271554554524,19.026297590440446,14.5,15.0,16.0,8.5,6.5,2.5,5.5,2.0,2.0,2.5,8.0,7.0,12.0
331,348,10.0,24.020824298928627,2.0,3.1622776601683795,7.0,7.0,7.0,22.02271554554524,19.0,14.0,15.0,16.0,8.5,6.5,2.5,6.5,2.0,2.0,2.5,7.0,6.0,11.0
332,349,9.0,23.0,2.0,4.0,8.06225774829855,8.0,8.06225774829855,23.021728866442675,19.026297590440446,14.5,16.0,16.0,8.0,7.0,3.0,6.0,2.0,2.0,2.5,7.0,7.0,12.0
333,350,9.0,25.019992006393608,3.0,4.0,7.0,8.06225774829855,7.0710678118654755,23.021728866442675,19.026297590440446,14.5,15.0,16.0,8.5,7.5,3.5,5.5,2.0,2.0,2.0,7.0,7.0,12.0
334,351,8.0,24.020824298928627,2.0,4.0,7.0,7.0,7.0,21.0,17.0,13.0,14.0,15.0,7.5,6.5,2.5,5.5,3.1622776601683795,2.0,2.0,8.0,7.0,12.0
335,352,4.0,24.0,2.0,3.0,6.0,7.0,8.06225774829855,17.029386365926403,14.035668847618199,12.0,14.0,14.0,6.0,3.0,1.0,4.0,2.0,2.0,2.0,7.0,6.0,11.0
336,353,1.0,23.0,3.0,2.0,6.0,6.0,7.0710678118654755,13.038404810405298,11.045361017187261,10.5,13.0,13.0,6.0,0.0,2.0,3.0,2.0,2.0,1.5,7.0,6.0,11.0
337,354,1.0,23.0,3.0,3.0,6.0,6.0,7.0,14.0,11.0,10.5,12.0,12.0,5.0,2.0,1.0,3.0,2.0,1.0,1.5,7.0,6.0,11.045361017187261
338,355,2.0,22.0,2.0,2.0,6.0,6.0,7.0710678118654755,13.038404810405298,11.045361017187261,10.0,12.0,12.0,5.0,1.0,1.0,3.0,2.0,1.0,1.5,7.0,6.0,11.0
339,356,2.0,22.0,2.0,3.0,6.0,6.0,7.0710678118654755,14.035668847618199,11.045361017187261,10.0,12.0,12.0,5.0,2.0,1.0,3.0,2.0,2.0,1.5,7.0,6.0,11.045361017187261
340,357,2.0,22.0,2.0,2.0,5.0,6.0,7.0710678118654755,13.038404810405298,11.045361017187261,10.0,12.0,12.0,5.0,1.0,1.0,3.0,2.0,1.0,1.5,7.0,6.0,11.045361017187261
341,358,1.0,23.0,2.0,3.0,6.0,7.0,7.0710678118654755,13.038404810405298,10.04987562112089,9.5,12.0,12.0,5.0,1.0,2.0,3.0,2.0,2.0,2.0,6.0,5.0,11.0
342,359,2.0,23.0,2.0,2.0,6.0,6.0,7.0710678118654755,13.038404810405298,11.045361017187261,10.0,12.0,12.0,5.0,1.0,2.0,3.0,2.0,2.0,2.0,6.0,5.0,11.0
343,360,1.0,22.0,2.0,2.0,6.0,6.0,7.0710678118654755,12.041594578792296,10.04987562112089,9.5,11.0,11.0,4.0,1.0,1.0,2.0,2.0,2.0,1.5,7.0,5.0,11.045361017187261
344,361,2.0,22.0,3.0,3.0,5.0990195135927845,6.0,7.0,15.0,12.0,11.0,13.0,13.0,6.0,2.0,1.0,4.0,2.0,2.0,1.5,7.0,5.0,11.0
345,362,4.0,21.02379604162864,3.1622776601683795,3.0,5.0990195135927845,7.0710678118654755,7.0710678118654755,17.0,14.0,12.0,13.0,14.0,6.5,3.5,0.5,3.5,3.0,2.0,2.0,7.0,6.0,12.0
346,363,5.0,22.02271554554524,2.23606797749979,3.0,5.0,6.0,8.06225774829855,18.0,15.0,12.5,14.0,15.0,6.5,3.5,0.5,4.5,3.0,2.0,2.0,7.0,5.0,11.0
347,364,6.0,22.02271554554524,2.0,2.0,6.0,6.0,7.0,17.0,15.0,12.0,13.0,14.0,6.5,3.5,0.5,4.5,2.23606797749979,2.23606797749979,2.0,7.0,5.0,11.0
348,365,4.0,22.02271554554524,2.23606797749979,2.0,5.0,6.0,8.06225774829855,16.0,14.0,12.0,13.0,14.0,5.5,2.5,0.5,3.5,2.23606797749979,2.23606797749979,2.0,6.0,5.0,12.0
349,366,1.4142135623730951,22.0,3.1622776601683795,2.23606797749979,5.0,5.0,8.06225774829855,14.0,12.041594578792296,11.5,13.0,13.0,5.0,1.0,1.0,2.0,2.0,2.0,2.0,6.0,5.0,11.045361017187261
350,367,1.0,22.0,2.0,2.0,6.0,6.0,8.0,13.0,11.0,10.5,12.0,12.0,4.0,1.0,1.0,2.0,2.0,1.0,1.5,7.0,6.0,11.0
351,368,0.0,22.0,3.0,3.0,5.0,6.0,8.0,14.0,11.0,11.0,13.0,13.0,5.0,1.0,2.0,3.0,2.0,2.0,2.0,6.0,5.0,12.041594578792296
352,369,1.0,22.0,2.0,2.0,6.0,6.0,8.0,13.0,11.0,10.5,12.0,12.0,4.0,1.0,1.0,2.0,2.0,1.0,1.5,7.0,6.0,12.0
353,370,4.0,21.02379604162864,3.1622776601683795,2.0,6.0,7.0,7.0710678118654755,16.0,14.0,12.0,13.0,14.0,6.5,2.5,0.5,3.5,2.0,2.0,2.0,6.0,5.0,12.0
354,371,6.0,20.0,1.0,3.0,6.0,6.0,8.0,18.0,15.0,12.0,14.0,14.0,6.0,4.0,1.0,5.0,2.0,2.0,2.0,6.0,5.0,11.0
355,372,6.0,21.0,2.0,2.0,6.0,7.0,7.0710678118654755,17.029386365926403,15.033296378372908,12.0,14.0,14.0,7.0,3.0,1.0,5.0,2.0,2.23606797749979,2.5,7.0,6.0,11.0
356,373,4.0,21.02379604162864,2.0,3.0,6.0,6.0,7.0,16.0,13.0,11.0,13.0,14.0,6.5,2.5,0.5,4.5,3.0,2.0,2.5,7.0,5.0,11.0
357,374,2.0,22.0,1.0,3.0,6.082762530298219,6.0,8.0,14.0,11.0,10.0,13.0,13.0,5.0,1.0,2.0,3.0,3.0,2.0,2.0,7.0,6.0,11.0
358,375,2.0,21.0,2.0,3.0,6.0,6.0,7.0,14.0,11.0,10.0,13.0,13.0,6.0,1.0,2.0,4.0,3.0,2.23606797749979,2.0,7.0,6.0,11.0
359,376,1.0,22.0,2.0,2.0,6.0,6.0,8.0,13.0,11.0,10.5,13.0,13.0,5.0,0.0,2.0,3.0,3.0,2.0,2.0,7.0,6.0,11.0
360,377,1.0,23.0,2.0,2.0,5.0,5.0,8.06225774829855,13.038404810405298,11.045361017187261,10.5,13.0,13.0,5.0,0.0,2.0,3.0,2.0,2.0,2.5,7.0,6.0,11.045361017187261
361,378,0.0,23.0,2.0,3.1622776601683795,5.0,6.0,8.0,13.038404810405298,10.0,10.0,12.0,12.0,4.0,1.0,2.0,2.0,2.0,2.0,2.5,8.0,7.0,11.0
362,379,2.0,23.0,2.23606797749979,3.0,5.0,6.0,7.0710678118654755,14.0,11.0,10.0,12.0,12.0,5.0,2.0,2.0,3.0,2.0,1.4142135623730951,1.5,7.0,6.0,11.0
363,380,2.0,20.0,3.0,4.0,6.0,6.082762530298219,7.0,16.0,12.0,11.0,13.0,13.0,6.0,3.0,2.0,4.0,1.0,1.4142135623730951,1.5,8.0,7.0,11.0
364,381,2.0,20.024984394500787,3.0,5.0,6.0,7.0,7.0710678118654755,17.029386365926403,12.041594578792296,11.0,13.0,14.0,6.5,3.5,1.5,3.5,2.0,1.4142135623730951,1.5,7.0,6.0,12.0
365,382,2.0,20.0,3.0,5.0,6.082762530298219,7.0,8.0,18.0,13.0,12.0,14.0,14.0,6.0,4.0,1.0,4.0,2.0,2.23606797749979,2.0,7.0,7.0,12.041594578792296
366,383,2.0,20.0,3.0,4.0,6.0,7.0,8.0,17.0,13.0,12.0,14.0,14.0,6.0,3.0,2.0,3.0,2.0,2.0,1.5,7.0,7.0,12.0
367,384,2.0,20.0,3.0,4.0,6.0,6.0,8.0,17.0,13.0,12.0,14.0,14.0,6.0,3.0,2.0,3.0,2.0,2.0,2.0,7.0,7.0,12.0
368,385,2.0,21.02379604162864,3.0,3.0,6.082762530298219,6.082762530298219,9.055385138137417,17.029386365926403,14.035668847618199,13.0,14.0,13.0,4.5,3.5,0.5,2.5,3.0,2.0,2.5,7.0,7.0,13.0
369,386,5.0,19.0,2.0,3.0,6.0,6.0,8.06225774829855,18.027756377319946,15.033296378372908,12.5,14.0,14.0,6.0,4.0,1.0,4.0,3.0,2.0,2.0,7.0,7.0,13.0
370,387,5.0990195135927845,20.0,2.23606797749979,3.0,5.0,6.0,8.06225774829855,18.027756377319946,15.033296378372908,12.5,14.0,14.0,6.0,4.0,1.0,4.0,2.23606797749979,2.0,2.5,7.0,7.0,13.0
371,388,6.0,20.0,2.0,3.1622776601683795,6.0,7.0,8.0,19.026297590440446,16.0,13.0,14.0,14.0,6.0,5.0,1.0,4.0,2.23606797749979,2.0,2.5,7.0,7.0,13.0
372,389,5.0990195135927845,20.0,2.0,3.0,7.0,6.0,8.0,18.027756377319946,15.033296378372908,12.5,14.0,14.0,6.0,4.0,1.0,4.0,3.0,2.0,2.5,7.0,7.0,13.0
373,390,6.0,20.0,2.0,3.0,6.0,6.082762530298219,8.06225774829855,19.026297590440446,16.0312195418814,13.0,15.0,15.0,7.0,4.0,1.0,5.0,2.23606797749979,2.0,2.0,6.0,6.0,11.0
374,391,5.0,20.024984394500787,2.0,3.0,6.0,7.0,8.0,18.0,15.0,12.5,14.0,13.0,5.5,4.5,1.5,3.5,2.23606797749979,2.0,2.5,7.0,6.0,12.0
375,392,5.0,20.024984394500787,2.0,3.0,6.0,7.0,8.0,18.0,15.0,12.5,14.0,13.0,5.5,4.5,1.5,3.5,2.23606797749979,2.0,2.5,7.0,6.0,12.0
376,393,5.0,20.0,2.0,3.0,6.0,6.0,8.06225774829855,18.027756377319946,15.033296378372908,12.5,14.0,14.0,6.0,4.0,1.0,4.0,3.1622776601683795,2.0,2.5,7.0,7.0,11.0
377,394,4.0,19.026297590440446,3.0,3.0,6.082762530298219,6.0,7.0710678118654755,17.029386365926403,14.035668847618199,12.0,14.0,13.0,6.5,3.5,0.5,4.5,2.0,2.0,2.0,6.0,6.0,12.0
378,395,3.0,23.021728866442675,2.0,3.0,6.0,6.082762530298219,8.06225774829855,16.0312195418814,13.038404810405298,11.5,14.0,13.0,5.5,2.5,0.5,3.5,2.23606797749979,2.0,2.5,7.0,7.0,11.0
379,396,1.0,23.021728866442675,2.0,3.0,6.0,6.0,8.0,14.0,11.0,10.5,14.0,13.0,5.5,0.5,2.5,3.5,3.0,2.0,2.5,6.0,6.0,11.0
380,397,2.0,22.02271554554524,2.0,2.0,6.0,6.0,7.0710678118654755,13.038404810405298,11.045361017187261,10.0,13.0,12.0,5.5,0.5,1.5,3.5,2.23606797749979,2.0,2.0,6.0,6.0,11.0
381,398,2.0,23.0,3.0,3.0,6.0,6.0,7.0710678118654755,15.033296378372908,12.041594578792296,11.0,13.0,13.0,6.0,2.0,1.0,3.0,2.0,3.0,3.0,6.0,7.0,11.0
382,399,7.0,25.0,2.0,3.0,6.0,7.0,7.0,19.0,16.0,12.5,14.0,14.0,7.0,5.0,2.0,5.0,2.0,2.0,2.0,6.0,6.0,13.038404810405298
383,400,9.0,27.0,2.0,3.0,7.0,8.0,7.0,21.0,18.0,13.5,14.0,14.0,7.0,7.0,4.0,5.0,2.0,3.0,2.5,6.0,6.0,12.0
384,401,9.0,27.0,2.0,3.0,8.0,8.0,8.0,22.0,19.0,14.5,15.0,15.0,7.0,7.0,4.0,5.0,2.0,2.0,2.0,6.0,6.0,12.0
385,402,9.0,27.0,2.0,3.0,7.0,8.0,7.0,21.0,18.0,13.5,14.0,14.0,7.0,7.0,4.0,5.0,2.23606797749979,3.0,2.5,6.0,6.0,12.0
386,403,10.0,27.0,2.0,3.0,7.0,8.06225774829855,7.0710678118654755,22.02271554554524,19.026297590440446,14.0,15.0,15.0,8.0,7.0,4.0,6.0,2.0,3.0,3.0,6.0,6.0,13.0
387,404,9.0,23.0,2.0,3.1622776601683795,7.0,8.0,8.0,22.02271554554524,19.0,14.5,16.0,16.0,8.0,6.0,2.0,6.0,3.0,2.0,2.0,7.0,7.0,13.038404810405298
388,405,7.0,22.0,2.0,3.0,6.0,6.0,8.06225774829855,20.024984394500787,17.029386365926403,13.5,15.0,15.0,7.0,5.0,1.0,5.0,3.1622776601683795,2.0,2.5,7.0,7.0,12.0
389,406,2.0,21.0,3.0,5.0,6.082762530298219,6.0,8.06225774829855,18.027756377319946,13.038404810405298,12.0,14.0,14.0,6.0,4.0,1.0,4.0,3.1622776601683795,2.0,2.0,7.0,6.0,12.041594578792296
390,407,1.0,23.021728866442675,3.0,4.0,6.0,7.0,8.06225774829855,16.0312195418814,12.041594578792296,11.5,14.0,15.0,6.5,1.5,2.5,3.5,2.23606797749979,2.0,2.0,7.0,6.0,12.0
391,408,1.0,23.0,2.0,3.0,6.0,6.0,8.06225774829855,14.035668847618199,11.045361017187261,10.5,12.0,12.0,4.0,2.0,2.0,2.0,2.23606797749979,2.0,2.0,6.0,6.0,12.0
392,409,0.0,23.0,3.0,4.0,6.0,6.0,8.06225774829855,15.033296378372908,11.045361017187261,11.0,13.0,13.0,5.0,2.0,2.0,2.0,2.23606797749979,2.0,2.0,7.0,6.0,12.041594578792296
393,410,1.0,22.02271554554524,3.0,4.0,6.0,7.0,8.06225774829855,16.0312195418814,12.041594578792296,11.5,13.0,14.0,5.5,2.5,1.5,2.5,3.0,2.0,2.0,7.0,6.0,12.0
394,411,3.0,20.0,3.0,4.0,6.0,6.0,7.0710678118654755,17.029386365926403,13.038404810405298,11.5,13.0,13.0,6.0,4.0,0.0,3.0,3.1622776601683795,2.0,2.0,7.0,6.0,12.0
395,412,3.0,20.0,3.0,4.0,6.0,7.0,7.0710678118654755,17.029386365926403,13.038404810405298,11.5,14.0,14.0,7.0,3.0,1.0,4.0,3.0,2.0,2.0,7.0,6.0,11.0
396,413,3.0,20.0,3.0,5.0,6.0,6.082762530298219,7.0,18.0,13.0,11.5,14.0,14.0,7.0,4.0,1.0,4.0,3.1622776601683795,2.0,2.0,7.0,6.0,12.0
397,414,6.0,22.02271554554524,3.0,3.1622776601683795,6.0,7.0,7.0710678118654755,19.0,16.0312195418814,13.0,14.0,15.0,7.5,4.5,1.5,4.5,2.23606797749979,2.0,2.0,7.0,6.0,12.0
398,415,8.0,25.0,3.0,3.0,7.0,7.0,7.0,21.0,18.0,14.0,14.0,14.0,7.0,7.0,4.0,4.0,2.0,3.0,2.5,7.0,6.0,12.0
399,416,8.0,28.0178514522438,3.1622776601683795,3.0,7.0,7.0,7.0710678118654755,21.0,18.0,14.0,13.0,14.0,6.5,7.5,3.5,3.5,2.0,2.0,2.0,7.0,6.0,12.0
400,417,8.0,28.0178514522438,3.1622776601683795,3.0,7.0710678118654755,8.06225774829855,8.0,22.02271554554524,19.026297590440446,15.0,15.0,14.0,6.5,7.5,4.5,4.5,2.0,2.0,2.5,7.0,7.0,12.0
401,418,9.0,29.0,3.0,3.0,7.0,8.0,7.0,22.0,19.0,14.5,14.0,14.0,7.0,8.0,4.0,4.0,2.0,3.0,2.5,7.0,6.0,12.0
402,419,9.0,30.0,2.23606797749979,3.0,7.0710678118654755,8.0,8.06225774829855,22.0,19.0,14.5,13.0,13.0,5.0,9.0,5.0,4.0,2.0,2.0,2.0,6.0,6.0,14.0
403,420,9.0,30.0,2.0,3.0,8.06225774829855,8.0,8.0,22.0,19.0,14.5,13.0,13.0,5.0,9.0,6.0,4.0,2.0,2.0,2.0,7.0,7.0,13.0
404,421,8.0,30.0,1.0,3.0,8.06225774829855,8.06225774829855,8.06225774829855,20.024984394500787,17.029386365926403,13.0,13.0,13.0,5.0,7.0,4.0,4.0,2.0,2.0,2.5,7.0,7.0,12.0
405,422,5.0,31.0,3.0,3.0,8.06225774829855,8.0,8.0,19.0,16.0,13.5,13.0,13.0,5.0,6.0,3.0,3.0,2.0,2.0,2.5,8.0,7.0,12.0
406,423,5.0,30.0,2.0,3.0,8.0,8.0,8.0,18.0,15.0,12.5,12.0,12.0,4.0,6.0,3.0,2.0,2.0,2.0,2.0,7.0,7.0,13.0
407,424,4.0,30.0,3.0,3.0,8.06225774829855,8.0,7.0,17.0,14.0,12.0,11.0,11.0,4.0,6.0,3.0,2.0,2.0,2.0,2.0,7.0,6.0,13.0
408,425,3.0,30.0,3.0,3.0,8.06225774829855,8.0,7.0,16.0,13.0,11.5,11.0,11.0,4.0,5.0,2.0,2.0,2.0,2.0,2.5,7.0,6.0,14.0
409,426,3.0,30.0,3.1622776601683795,3.0,7.0710678118654755,9.0,7.0710678118654755,16.0,13.0,11.5,11.0,11.0,4.0,5.0,2.0,2.0,2.0,2.23606797749979,2.0,7.0,7.0,13.0
410,427,4.0,30.0,2.0,3.0,8.0,8.0,8.0,17.0,14.0,12.0,12.0,12.0,4.0,5.0,2.0,2.0,2.23606797749979,2.0,2.0,7.0,6.0,13.0
411,428,2.0,30.0,3.0,3.0,8.06225774829855,9.0,7.0,15.0,12.0,11.0,11.0,11.0,4.0,4.0,1.0,2.0,2.0,2.0,2.0,7.0,7.0,13.0
412,429,5.0,29.017236257093817,2.0,2.0,8.0,8.0,8.0,17.0,15.0,12.5,13.0,12.0,4.5,4.5,1.5,2.5,2.0,3.0,2.5,7.0,7.0,13.0
413,430,4.0,27.0,2.0,2.0,7.0710678118654755,7.0,9.0,17.0,15.0,13.0,13.0,13.0,4.0,4.0,1.0,3.0,2.0,3.0,3.0,6.0,7.0,12.0
414,431,4.0,26.019223662515376,2.0,3.1622776601683795,7.0,7.0710678118654755,8.06225774829855,17.11724276862369,14.035668847618199,12.0,14.0,13.0,5.5,3.5,0.5,3.5,2.0,2.0,2.5,6.0,7.0,12.0
415,432,3.0,26.019223662515376,2.0,3.0,6.0,7.0710678118654755,8.06225774829855,16.0312195418814,13.038404810405298,11.5,13.0,12.0,4.5,3.5,0.5,2.5,2.0,2.0,2.5,6.0,7.0,12.0
416,433,3.0,26.019223662515376,2.0,2.0,6.0,7.0,8.06225774829855,15.033296378372908,13.038404810405298,11.5,13.0,12.0,4.5,2.5,0.5,2.5,2.0,2.0,2.0,6.0,7.0,12.0
417,434,2.0,24.020824298928627,2.0,3.0,6.0,7.0,8.06225774829855,15.033296378372908,12.041594578792296,11.0,13.0,12.0,4.5,2.5,0.5,2.5,2.0,3.0,2.5,6.0,7.0,12.0
418,435,3.0,24.0,2.0,3.0,6.0,7.0,8.06225774829855,16.0312195418814,13.038404810405298,11.5,13.0,13.0,5.0,3.0,0.0,3.0,2.0,2.0,2.5,6.0,7.0,12.0
419,436,3.0,24.020824298928627,3.0,2.0,6.082762530298219,7.0,8.06225774829855,16.0312195418814,14.035668847618199,12.5,14.0,13.0,5.5,2.5,0.5,3.5,3.0,3.1622776601683795,3.0,6.0,7.0,12.0
420,437,5.0,25.019992006393608,2.0,2.23606797749979,6.0,7.0,8.0,17.029386365926403,15.0,12.5,14.0,13.0,5.5,3.5,0.5,3.5,3.0,3.0,3.0,6.0,7.0,12.0
421,438,4.123105625617661,25.079872407968907,2.0,3.0,7.0,6.082762530298219,8.0,17.029386365926403,14.035668847618199,12.0,14.0,12.0,5.0,4.0,1.0,3.0,3.0,2.0,2.5,7.0,8.0,13.0
422,439,2.23606797749979,25.019992006393608,2.0,3.0,7.0,7.0,8.0,15.033296378372908,12.041594578792296,11.0,13.0,12.0,4.5,2.5,0.5,2.5,3.0,2.0,2.5,7.0,8.0,13.0
423,440,3.0,25.019992006393608,2.0,3.1622776601683795,7.0,7.0,7.0,15.033296378372908,12.0,10.5,13.0,12.0,5.5,2.5,0.5,3.5,3.0,2.0,2.5,7.0,8.0,13.0
424,441,2.0,24.020824298928627,2.0,3.0,6.0,7.0,8.06225774829855,15.033296378372908,12.041594578792296,11.0,13.0,12.0,4.5,2.5,0.5,2.5,2.23606797749979,3.0,3.0,7.0,7.0,12.0
425,442,2.0,23.021728866442675,2.0,3.1622776601683795,7.0,7.0,7.0710678118654755,14.142135623730951,11.045361017187261,10.0,12.0,11.0,4.5,2.5,0.5,2.5,2.0,2.0,2.0,6.0,7.0,12.0
426,443,3.0,22.02271554554524,2.0,4.0,6.0,7.0,7.0710678118654755,16.0312195418814,12.041594578792296,10.5,13.0,12.0,5.5,3.5,0.5,3.5,2.23606797749979,1.4142135623730951,1.5,6.0,8.0,12.041594578792296
427,444,4.123105625617661,20.024984394500787,2.0,3.0,6.0,7.0,8.06225774829855,17.11724276862369,14.142135623730951,12.0,14.0,13.0,5.5,3.5,0.5,3.5,1.0,1.0,1.5,6.0,7.0,12.041594578792296
428,445,4.123105625617661,20.09975124224178,3.0,4.0,6.082762530298219,6.0,7.0710678118654755,18.110770276274835,14.142135623730951,12.0,15.0,13.0,7.0,4.0,0.0,5.0,2.23606797749979,2.23606797749979,2.0,6.0,8.0,11.045361017187261
429,446,5.0,20.09975124224178,3.0,3.1622776601683795,6.0,6.0,7.0710678118654755,18.110770276274835,15.033296378372908,12.5,15.0,13.0,7.0,4.0,1.0,4.0,2.23606797749979,1.0,1.5,5.0,8.0,11.045361017187261
430,447,4.0,20.09975124224178,3.0,4.123105625617661,6.0,6.0,7.0710678118654755,18.110770276274835,14.035668847618199,12.0,15.0,13.0,7.0,4.0,0.0,4.0,3.1622776601683795,2.0,2.0,5.0,8.0,11.045361017187261
431,448,4.123105625617661,20.024984394500787,2.0,4.0,6.0,6.0,8.06225774829855,18.110770276274835,14.142135623730951,12.0,15.0,14.0,6.5,3.5,1.5,4.5,3.1622776601683795,2.0,2.0,5.0,8.0,11.045361017187261
432,449,1.0,22.090722034374522,2.0,4.123105625617661,6.0,6.0,9.055385138137417,16.1245154965971,12.041594578792296,11.5,14.0,12.0,4.0,3.0,1.0,2.0,3.0,2.0,2.0,5.0,8.0,12.165525060596439
433,450,1.4142135623730951,23.194827009486403,3.0,4.0,7.0710678118654755,7.0710678118654755,7.0710678118654755,15.132745950421556,11.180339887498949,10.5,14.0,11.0,5.5,2.5,1.5,2.5,2.0,2.0,2.0,5.0,8.0,11.045361017187261
434,451,0.0,23.08679276123039,3.0,3.1622776601683795,6.0,7.0,8.06225774829855,14.142135623730951,11.045361017187261,11.0,14.0,12.0,5.0,1.0,2.0,2.0,2.0,3.0,3.0,6.0,9.0,12.041594578792296
435,452,1.0,23.194827009486403,2.23606797749979,4.0,7.0,6.082762530298219,8.06225774829855,15.132745950421556,11.180339887498949,10.5,14.0,11.0,4.5,2.5,1.5,2.5,2.0,3.0,3.0,5.0,8.0,12.041594578792296
436,453,2.23606797749979,23.194827009486403,2.0,3.0,7.0710678118654755,7.0710678118654755,8.06225774829855,15.132745950421556,12.165525060596439,11.0,14.0,11.0,4.5,2.5,0.5,3.5,3.0,3.1622776601683795,3.0,5.0,8.0,12.041594578792296
437,454,1.4142135623730951,23.194827009486403,3.0,3.0,6.082762530298219,6.082762530298219,7.0710678118654755,14.142135623730951,11.180339887498949,10.5,13.0,10.0,4.5,2.5,0.5,2.5,2.0,2.0,2.5,5.0,8.0,12.0
438,455,2.23606797749979,23.194827009486403,2.0,3.1622776601683795,6.0,7.0710678118654755,7.0710678118654755,14.317821063276353,11.180339887498949,10.0,13.0,10.0,4.5,2.5,0.5,2.5,2.23606797749979,2.0,2.0,5.0,8.0,12.041594578792296
439,456,3.0,23.345235059857504,2.23606797749979,3.0,6.082762530298219,7.0,7.0710678118654755,15.132745950421556,12.165525060596439,10.5,14.0,10.0,5.0,3.0,0.0,4.0,3.0,2.0,2.0,5.0,9.0,11.045361017187261
440,457,2.0,23.194827009486403,2.0,4.123105625617661,6.0,6.082762530298219,7.0710678118654755,15.132745950421556,11.045361017187261,10.0,13.0,10.0,4.5,3.5,0.5,2.5,3.1622776601683795,2.0,2.0,5.0,8.0,12.041594578792296
441,458,2.23606797749979,22.20360331117452,3.0,4.0,6.082762530298219,7.0710678118654755,7.0710678118654755,16.1245154965971,12.165525060596439,11.0,14.0,11.0,5.5,3.5,0.5,3.5,2.23606797749979,3.0,3.0,5.0,9.0,12.041594578792296
442,459,3.0,23.345235059857504,2.23606797749979,3.1622776601683795,5.0990195135927845,6.0,7.0710678118654755,15.297058540778355,12.165525060596439,10.5,14.0,10.0,5.0,3.0,0.0,3.0,2.0,3.0,3.0,5.0,9.0,12.041594578792296
443,460,3.0,22.20360331117452,2.0,3.1622776601683795,6.082762530298219,7.0,8.246211251235321,16.278820596099706,13.152946437965905,11.5,14.0,11.0,4.5,3.5,0.5,2.5,2.0,2.23606797749979,2.0,4.0,8.0,12.165525060596439
444,461,3.0,23.194827009486403,2.23606797749979,4.123105625617661,6.082762530298219,7.0710678118654755,8.06225774829855,17.26267650163207,13.152946437965905,11.5,15.0,12.0,5.5,3.5,0.5,3.5,2.23606797749979,2.0,2.0,5.0,8.0,12.165525060596439
445,462,3.1622776601683795,23.194827009486403,2.0,4.123105625617661,6.082762530298219,6.082762530298219,8.06225774829855,17.26267650163207,13.152946437965905,11.5,14.0,11.0,4.5,4.5,0.5,3.5,2.23606797749979,2.0,2.0,4.0,8.0,11.180339887498949
446,463,4.123105625617661,23.194827009486403,1.0,3.0,6.082762530298219,6.0,8.246211251235321,16.278820596099706,13.341664064126334,11.0,15.0,12.0,5.5,2.5,0.5,4.5,2.23606797749979,2.0,2.0,4.0,8.0,11.180339887498949
447,464,3.1622776601683795,23.08679276123039,2.0,3.1622776601683795,6.082762530298219,6.0,8.06225774829855,16.278820596099706,13.152946437965905,11.5,14.0,12.0,5.0,3.0,0.0,4.0,2.23606797749979,2.0,2.0,5.0,8.0,11.045361017187261
448,465,3.0,24.186773244895647,2.23606797749979,3.1622776601683795,6.082762530298219,6.082762530298219,8.06225774829855,16.278820596099706,13.152946437965905,11.5,14.0,11.0,4.5,3.5,0.5,3.5,2.23606797749979,2.23606797749979,2.0,5.0,8.0,12.165525060596439
449,466,4.0,23.194827009486403,2.0,2.23606797749979,6.082762530298219,6.0,7.280109889280518,15.297058540778355,13.152946437965905,11.0,14.0,11.0,5.5,2.5,0.5,3.5,2.0,2.23606797749979,2.0,5.0,8.0,12.041594578792296
450,467,4.123105625617661,22.360679774997898,2.0,3.0,6.082762530298219,7.0710678118654755,8.246211251235321,17.26267650163207,14.317821063276353,12.0,16.0,12.0,6.0,3.0,0.0,4.0,2.23606797749979,2.23606797749979,2.0,5.0,8.0,13.038404810405298
451,468,4.123105625617661,23.345235059857504,3.0,3.0,6.082762530298219,7.0710678118654755,7.0710678118654755,17.11724276862369,14.142135623730951,12.0,15.0,11.0,6.0,4.0,1.0,4.0,3.0,2.0,2.0,5.0,8.0,11.180339887498949
452,469,4.0,24.186773244895647,3.1622776601683795,3.1622776601683795,6.082762530298219,6.0,8.06225774829855,18.24828759089466,15.132745950421556,13.0,16.0,13.0,6.5,3.5,0.5,4.5,3.1622776601683795,2.23606797749979,2.0,5.0,9.0,12.041594578792296
453,470,5.0,25.317977802344327,2.0,3.1622776601683795,6.082762530298219,6.082762530298219,9.219544457292887,19.235384061671343,16.1245154965971,13.5,16.0,12.0,5.0,5.0,2.0,4.0,3.1622776601683795,2.0,2.0,5.0,8.0,12.041594578792296
454,471,4.123105625617661,24.331050121192877,2.0,3.0,7.0710678118654755,7.0710678118654755,9.055385138137417,18.110770276274835,15.132745950421556,13.0,16.0,12.0,5.0,4.0,1.0,4.0,3.0,2.0,2.0,5.0,9.0,12.041594578792296
455,472,5.0,25.179356624028344,2.0,3.1622776601683795,6.082762530298219,7.0710678118654755,8.246211251235321,18.24828759089466,15.132745950421556,12.5,15.0,12.0,5.5,4.5,1.5,3.5,2.0,2.23606797749979,2.5,5.0,8.0,12.041594578792296
456,473,5.0,25.317977802344327,2.0,2.23606797749979,6.082762530298219,7.0710678118654755,8.246211251235321,17.26267650163207,15.132745950421556,12.5,15.0,11.0,5.0,4.0,2.0,4.0,2.23606797749979,2.0,2.0,5.0,8.0,12.041594578792296
457,474,4.123105625617661,25.179356624028344,2.0,2.23606797749979,6.082762530298219,7.0710678118654755,9.055385138137417,17.26267650163207,15.132745950421556,13.0,15.0,12.0,4.5,3.5,1.5,2.5,3.0,3.1622776601683795,2.5,5.0,8.0,13.152946437965905
458,475,4.0,25.179356624028344,2.0,2.23606797749979,6.082762530298219,6.0,8.246211251235321,16.278820596099706,14.142135623730951,12.0,14.0,11.0,4.5,3.5,1.5,2.5,3.0,3.0,3.0,5.0,8.0,12.041594578792296
459,476,3.0,25.179356624028344,2.0,2.23606797749979,6.0,7.0710678118654755,9.219544457292887,16.278820596099706,14.142135623730951,12.5,15.0,12.0,4.5,2.5,0.5,2.5,3.1622776601683795,3.1622776601683795,3.0,5.0,7.0,12.041594578792296
460,477,3.1622776601683795,24.186773244895647,3.0,2.0,7.0710678118654755,7.0710678118654755,8.06225774829855,16.1245154965971,14.142135623730951,12.5,15.0,12.0,5.5,2.5,0.5,3.5,3.0,2.0,2.0,4.0,7.0,11.045361017187261
461,478,2.0,24.186773244895647,3.1622776601683795,2.0,6.082762530298219,7.0710678118654755,8.06225774829855,15.132745950421556,13.152946437965905,12.0,14.0,11.0,4.5,2.5,0.5,2.5,2.0,2.0,2.5,5.0,7.0,10.04987562112089
462,479,2.23606797749979,24.08318915758459,3.0,3.0,5.0990195135927845,6.082762530298219,7.0710678118654755,15.132745950421556,12.165525060596439,11.0,13.0,11.0,5.0,3.0,0.0,3.0,2.0,2.0,2.0,4.0,6.0,11.045361017187261
463,480,3.1622776601683795,24.08318915758459,2.0,2.0,5.0990195135927845,6.0,8.06225774829855,15.132745950421556,13.152946437965905,11.5,13.0,11.0,4.0,3.0,1.0,2.0,2.0,2.0,2.0,5.0,6.0,12.0
464,484,7.0,24.0,2.23606797749979,3.0,7.0,7.0,7.0,19.026297590440446,16.0312195418814,12.5,13.0,13.0,6.0,6.0,3.0,4.0,3.0,2.0,2.0,7.0,6.0,12.0
465,485,7.0,25.019992006393608,2.23606797749979,3.0,7.0710678118654755,7.0,7.0710678118654755,19.0,16.0,12.5,12.0,13.0,5.5,6.5,3.5,3.5,2.0,2.0,2.5,7.0,6.0,11.0
466,486,7.0,25.0,2.0,3.0,7.0,7.0710678118654755,7.0710678118654755,19.026297590440446,16.0312195418814,12.5,12.0,12.0,5.0,7.0,3.0,3.0,2.0,2.0,2.0,7.0,6.0,11.0
467,487,8.0,25.0,2.0,3.0,7.0,8.06225774829855,7.0710678118654755,20.024984394500787,17.029386365926403,13.0,13.0,13.0,6.0,7.0,3.0,4.0,3.0,2.23606797749979,2.0,7.0,6.0,11.0
468,488,7.0,26.0,2.0,3.0,7.0710678118654755,8.0,7.0,19.0,16.0,12.5,13.0,13.0,6.0,6.0,3.0,4.0,2.0,2.0,2.0,6.0,5.0,11.0
469,489,8.0,26.0,1.0,3.0,7.0,7.0,8.0,20.0,17.0,13.0,13.0,13.0,5.0,7.0,4.0,4.0,2.0,2.0,2.5,7.0,6.0,12.0
470,490,8.0,27.018512172212592,2.0,2.0,7.0,8.0,7.0,19.0,17.0,13.0,12.0,13.0,5.5,6.5,4.5,3.5,2.0,2.0,2.0,7.0,6.0,12.0
471,491,8.0,26.019223662515376,2.0,3.0,8.0,8.0,7.0,20.0,17.0,13.0,12.0,13.0,5.5,7.5,3.5,3.5,2.0,2.0,2.0,7.0,6.0,11.0
472,492,8.0,27.018512172212592,2.23606797749979,3.0,7.0710678118654755,7.0,7.0710678118654755,20.0,17.0,13.0,12.0,13.0,5.5,7.5,3.5,3.5,2.0,2.0,2.5,8.0,6.0,12.0
473,493,8.06225774829855,27.073972741361768,2.0,3.0,7.0,7.0710678118654755,7.0710678118654755,20.0,17.0,13.0,12.0,14.0,6.0,7.0,4.0,4.0,2.0,2.23606797749979,2.5,8.0,6.0,11.045361017187261
474,494,8.0,27.018512172212592,2.0,3.0,8.0,8.0,7.0,20.0,17.0,13.0,13.0,14.0,6.5,6.5,3.5,4.5,2.0,2.0,2.0,7.0,5.0,12.0
475,495,7.0,27.018512172212592,2.0,3.1622776601683795,8.0,7.0,8.0,20.024984394500787,17.0,13.5,13.0,14.0,5.5,6.5,3.5,3.5,2.0,2.0,2.5,8.0,6.0,12.0
476,496,7.0,27.018512172212592,3.0,3.0,8.06225774829855,8.0,6.0,19.0,16.0,12.5,12.0,13.0,6.5,6.5,2.5,3.5,2.23606797749979,2.0,2.5,8.0,6.0,11.045361017187261
477,497,7.0,27.018512172212592,2.0,3.1622776601683795,7.0,7.0,7.0710678118654755,19.0,16.0312195418814,12.5,13.0,14.0,6.5,5.5,2.5,4.5,2.0,2.0,2.0,7.0,6.0,11.0
478,498,7.0,28.0178514522438,2.0,2.0,8.0,8.0,7.0,18.0,16.0,12.5,12.0,13.0,5.5,5.5,2.5,3.5,2.0,2.0,2.0,7.0,6.0,11.0
479,499,7.0,27.0,2.0,3.0,7.0,8.0,7.0710678118654755,19.026297590440446,16.0312195418814,12.5,13.0,13.0,6.0,6.0,3.0,4.0,2.0,2.23606797749979,2.0,7.0,6.0,12.0
480,500,6.0,28.0,3.0,2.0,7.0,7.0,7.0710678118654755,18.027756377319946,16.0312195418814,13.0,13.0,13.0,6.0,5.0,2.0,4.0,3.0,2.0,2.5,7.0,5.0,11.0
481,501,6.0,28.0,3.0,2.0,7.0710678118654755,8.0,7.0710678118654755,18.027756377319946,16.0312195418814,13.0,13.0,13.0,6.0,5.0,2.0,4.0,2.0,2.0,2.0,7.0,5.0,13.0
482,502,5.0,28.0,2.0,3.0,7.0,8.0,8.06225774829855,18.027756377319946,15.033296378372908,12.5,13.0,13.0,5.0,5.0,2.0,3.0,2.0,2.0,2.0,7.0,6.0,12.0
483,503,5.0,28.0178514522438,2.0,2.0,7.0,8.0,7.0710678118654755,16.0312195418814,14.035668847618199,11.5,11.0,12.0,4.5,4.5,1.5,2.5,2.0,2.0,2.0,7.0,6.0,12.0
484,504,4.0,27.0,2.0,2.0,7.0,8.0,8.06225774829855,16.0312195418814,14.035668847618199,12.0,12.0,12.0,4.0,4.0,1.0,2.0,2.0,2.0,2.0,7.0,5.0,13.0
485,505,1.0,25.0,2.0,3.0,7.0,7.0,8.0,14.0,11.0,10.5,12.0,12.0,4.0,2.0,1.0,2.0,2.0,2.23606797749979,2.5,8.0,6.0,13.0
486,506,1.0,25.019992006393608,2.0,4.0,7.0,7.0,8.0,15.0,11.0,10.5,12.0,13.0,4.5,2.5,1.5,2.5,2.23606797749979,2.0,2.0,7.0,6.0,12.0
487,507,2.0,22.02271554554524,2.0,2.0,6.0,6.0,8.0,14.0,12.0,11.0,12.0,13.0,4.5,1.5,0.5,2.5,2.0,3.0,2.5,7.0,6.0,12.041594578792296
488,508,2.0,22.02271554554524,3.0,4.0,6.0,7.0710678118654755,7.0,16.0,12.0,11.0,13.0,14.0,6.5,2.5,1.5,3.5,2.0,2.0,2.0,7.0,6.0,13.0
489,509,2.0,18.027756377319946,4.0,5.0,6.082762530298219,7.0710678118654755,6.0,17.0,12.0,11.0,15.0,16.0,9.5,1.5,3.5,5.5,2.0,2.0,2.0,8.0,6.0,12.041594578792296
490,510,2.0,17.029386365926403,4.0,5.0,6.0,7.0,6.0,17.0,12.0,11.0,16.0,17.0,10.5,0.5,4.5,6.5,2.0,2.0,2.0,7.0,5.0,12.0
491,511,3.1622776601683795,18.110770276274835,3.0,5.0,5.0,6.082762530298219,7.0,18.027756377319946,13.038404810405298,11.5,15.0,17.0,9.0,2.0,4.0,6.0,2.0,2.23606797749979,2.0,7.0,4.0,11.045361017187261
492,512,3.0,18.110770276274835,3.1622776601683795,4.0,6.082762530298219,6.0,7.0,17.029386365926403,13.038404810405298,11.5,15.0,17.0,9.0,1.0,4.0,5.0,2.0,2.23606797749979,2.0,8.0,5.0,12.0
493,513,2.0,18.027756377319946,3.0,5.0,6.082762530298219,6.082762530298219,7.0,17.0,12.0,11.0,16.0,17.0,9.5,0.5,4.5,5.5,3.0,2.0,2.5,8.0,6.0,12.0
494,514,2.0,20.09975124224178,3.0,4.0,6.0,6.0,7.0,16.0,12.0,11.0,13.0,15.0,7.0,2.0,3.0,4.0,3.0,2.23606797749979,2.0,8.0,6.0,12.0
495,515,3.0,19.026297590440446,3.0,4.123105625617661,6.0,7.0710678118654755,7.0,17.029386365926403,13.0,11.5,14.0,15.0,7.5,2.5,2.5,4.5,2.23606797749979,2.0,2.0,8.0,6.0,12.041594578792296
496,516,3.0,20.09975124224178,3.0,4.0,6.0,6.0,7.0,17.0,13.0,11.5,13.0,15.0,7.0,3.0,2.0,4.0,2.0,2.0,2.0,8.0,6.0,13.0
497,517,3.0,19.1049731745428,4.0,5.0,6.0,7.0710678118654755,6.0,18.0,13.0,11.5,14.0,16.0,9.0,3.0,2.0,5.0,2.0,2.23606797749979,2.0,7.0,5.0,12.0
498,518,2.0,19.026297590440446,3.0,5.0,6.0,6.0,8.0,18.0,13.0,12.0,15.0,16.0,7.5,2.5,3.5,4.5,2.0,2.0,2.5,8.0,6.0,12.0
499,519,2.0,19.0,3.0,4.0,6.0,7.0,7.0,16.0,12.0,11.0,15.0,15.0,8.0,1.0,4.0,5.0,2.0,2.0,2.5,8.0,6.0,11.045361017187261
500,520,1.0,19.026297590440446,3.0,4.123105625617661,5.0,6.0,7.0,15.033296378372908,11.0,10.5,14.0,15.0,7.5,0.5,3.5,4.5,2.0,2.23606797749979,2.5,8.0,6.0,12.0
501,521,2.0,19.026297590440446,3.0,5.0,5.0,7.0710678118654755,7.0,17.0,12.0,11.0,14.0,15.0,7.5,2.5,2.5,4.5,3.0,2.0,2.0,7.0,6.0,12.0
502,522,3.0,18.027756377319946,4.0,5.0990195135927845,6.0,7.0710678118654755,6.0,18.027756377319946,13.0,11.5,15.0,16.0,9.5,2.5,3.5,5.5,2.0,3.0,2.5,7.0,6.0,12.0
503,523,2.0,18.0,4.0,5.0,6.0,6.0,7.0710678118654755,18.027756377319946,13.038404810405298,12.0,16.0,16.0,9.0,2.0,3.0,5.0,2.0,2.0,2.5,8.0,7.0,12.0
504,524,2.0,18.027756377319946,4.0,6.0,6.0,6.0,7.0,19.0,13.0,12.0,16.0,17.0,9.5,2.5,3.5,5.5,2.0,2.0,2.5,8.0,7.0,11.0
505,525,2.0,18.027756377319946,4.0,5.0,6.082762530298219,6.082762530298219,7.0,18.0,13.0,12.0,15.0,16.0,8.5,2.5,3.5,4.5,2.0,2.0,2.5,8.0,6.0,12.0
506,526,2.0,19.026297590440446,4.0,5.0990195135927845,6.082762530298219,7.0710678118654755,7.0,18.027756377319946,13.0,12.0,15.0,16.0,8.5,2.5,3.5,4.5,2.0,3.0,2.5,8.0,6.0,12.0
507,527,3.0,19.026297590440446,3.0,5.0,6.082762530298219,6.0,7.0,18.0,13.0,11.5,15.0,16.0,8.5,2.5,3.5,4.5,2.0,3.1622776601683795,2.5,7.0,5.0,12.0
508,528,2.0,19.0,4.123105625617661,5.0,5.0,6.0,7.0710678118654755,18.0,13.0,12.0,16.0,16.0,9.0,2.0,3.0,5.0,2.0,2.0,2.0,8.0,6.0,12.0
509,529,3.0,19.026297590440446,4.0,5.0990195135927845,6.0,7.0710678118654755,7.0,19.026297590440446,14.0,12.5,15.0,16.0,8.5,3.5,2.5,4.5,3.0,3.0,2.5,8.0,6.0,12.0
510,530,6.0,17.029386365926403,4.0,4.0,5.0,6.0,8.0,22.0,18.0,15.0,17.0,18.0,9.5,4.5,0.5,5.5,2.0,3.0,2.5,8.0,6.0,12.0
511,531,6.0,18.027756377319946,4.0,5.0,6.0,6.082762530298219,8.0,23.0,18.0,15.0,18.0,19.0,10.5,4.5,0.5,6.5,2.0,3.0,3.0,8.0,6.0,11.0
512,532,7.0,17.029386365926403,3.0,4.0,6.0,6.082762530298219,8.0,22.0,18.0,14.5,17.0,18.0,9.5,4.5,0.5,6.5,2.0,2.0,2.5,8.0,6.0,12.0
513,533,7.0,18.027756377319946,3.0,4.0,6.0,7.0,7.0,21.0,17.0,13.5,16.0,17.0,9.5,4.5,0.5,6.5,2.0,2.0,2.0,8.0,6.0,12.041594578792296
514,534,2.0,20.024984394500787,3.0,4.0,5.0,6.0,9.0,18.0,14.0,13.0,15.0,16.0,6.5,2.5,1.5,3.5,3.0,3.0,2.5,9.0,7.0,12.041594578792296
515,535,1.0,21.0,3.0,4.0,5.0990195135927845,5.0990195135927845,8.06225774829855,16.0312195418814,12.041594578792296,11.5,14.0,14.0,6.0,2.0,2.0,3.0,3.0,3.1622776601683795,2.5,8.0,5.0,13.038404810405298
516,536,2.0,21.02379604162864,2.0,4.0,5.0,6.082762530298219,9.0,17.0,13.0,12.0,14.0,15.0,5.5,2.5,1.5,3.5,3.0,2.0,2.5,10.0,6.0,12.041594578792296
517,537,2.0,21.095023109728988,3.1622776601683795,3.0,5.0,6.0,8.06225774829855,16.0,13.0,12.0,13.0,15.0,6.0,2.0,2.0,3.0,2.0,2.23606797749979,2.5,10.0,6.0,12.165525060596439
518,538,4.0,19.1049731745428,3.0,4.123105625617661,5.0,6.082762530298219,8.0,19.026297590440446,15.0,13.0,14.0,16.0,7.0,4.0,0.0,4.0,3.0,2.23606797749979,2.0,10.0,6.0,12.041594578792296
519,539,5.0,19.026297590440446,3.0,4.0,6.082762530298219,7.0710678118654755,9.0,21.0,17.0,14.5,16.0,17.0,7.5,4.5,0.5,4.5,3.1622776601683795,2.0,2.5,11.0,6.0,12.041594578792296
520,540,5.0,19.1049731745428,3.1622776601683795,4.0,6.082762530298219,7.0710678118654755,9.0,21.02379604162864,17.029386365926403,14.5,16.0,18.0,8.0,4.0,0.0,5.0,2.0,2.0,2.0,10.0,5.0,13.038404810405298
521,541,5.0,19.1049731745428,3.1622776601683795,3.1622776601683795,6.0,7.0710678118654755,7.0,18.110770276274835,15.033296378372908,12.5,14.0,16.0,8.0,3.0,1.0,5.0,2.0,2.23606797749979,2.0,11.0,5.0,12.165525060596439
522,542,2.0,22.20360331117452,3.1622776601683795,3.0,5.0,5.0,9.0,17.029386365926403,14.035668847618199,13.0,13.0,16.0,5.5,2.5,1.5,2.5,3.0,3.1622776601683795,3.0,11.0,5.0,12.165525060596439
523,543,2.0,22.20360331117452,3.1622776601683795,4.0,6.082762530298219,6.082762530298219,8.06225774829855,17.0,13.0,12.0,12.0,15.0,5.5,3.5,1.5,2.5,3.0,3.1622776601683795,3.0,10.0,5.0,13.152946437965905
524,544,1.0,20.223748416156685,3.1622776601683795,4.123105625617661,6.082762530298219,6.082762530298219,7.0,15.132745950421556,11.045361017187261,10.5,11.0,14.0,5.5,2.5,1.5,2.5,2.23606797749979,2.23606797749979,2.0,10.0,5.0,11.180339887498949
525,545,1.0,21.095023109728988,3.1622776601683795,4.0,5.0990195135927845,5.0990195135927845,8.0,16.0312195418814,12.041594578792296,11.5,12.0,14.0,5.0,3.0,2.0,2.0,3.0,2.0,2.0,10.0,4.0,13.152946437965905
526,546,0.0,21.213203435596427,3.1622776601683795,5.0990195135927845,6.082762530298219,6.082762530298219,7.0710678118654755,15.033296378372908,10.0,10.0,10.0,13.0,4.5,3.5,1.5,1.5,3.1622776601683795,2.23606797749979,2.5,10.0,5.0,12.165525060596439
527,547,0.0,21.213203435596427,3.0,4.123105625617661,5.0990195135927845,6.082762530298219,8.0,15.033296378372908,11.0,11.0,11.0,14.0,4.5,2.5,1.5,1.5,2.23606797749979,2.0,2.0,11.0,6.0,13.152946437965905
528,548,1.0,20.223748416156685,2.0,4.123105625617661,5.0,6.082762530298219,9.0,16.0312195418814,12.0,11.5,11.0,14.0,3.5,3.5,1.5,1.5,2.0,3.1622776601683795,3.0,10.0,5.0,12.041594578792296
529,549,2.0,20.223748416156685,3.0,4.123105625617661,5.0,6.082762530298219,8.0,17.029386365926403,13.0,12.0,12.0,15.0,5.5,3.5,0.5,2.5,2.0,2.23606797749979,2.0,10.0,5.0,12.041594578792296
530,550,5.0,21.213203435596427,2.0,3.1622776601683795,5.0,6.0,8.06225774829855,18.110770276274835,15.033296378372908,12.5,11.0,14.0,4.5,5.5,1.5,2.5,2.0,3.1622776601683795,3.0,11.0,6.0,12.165525060596439
531,551,4.0,21.213203435596427,3.0,4.123105625617661,5.0,6.082762530298219,8.06225774829855,19.1049731745428,15.033296378372908,13.0,12.0,15.0,5.5,5.5,1.5,2.5,2.23606797749979,2.0,2.5,11.0,5.0,13.152946437965905
532,552,4.123105625617661,22.20360331117452,3.0,4.0,6.0,6.082762530298219,8.06225774829855,19.1049731745428,15.132745950421556,13.0,12.0,15.0,5.5,5.5,1.5,2.5,3.0,2.0,2.0,11.0,5.0,12.165525060596439
533,553,5.0,22.360679774997898,3.1622776601683795,4.123105625617661,6.0,7.0710678118654755,7.0,19.1049731745428,15.033296378372908,12.5,11.0,15.0,6.0,6.0,1.0,3.0,3.1622776601683795,2.23606797749979,2.5,11.0,5.0,13.038404810405298
534,554,6.082762530298219,23.194827009486403,2.0,3.0,7.0710678118654755,7.0,8.06225774829855,19.1049731745428,16.1245154965971,13.0,12.0,15.0,5.5,5.5,1.5,2.5,2.0,2.0,2.5,10.0,5.0,12.165525060596439
535,555,6.0,24.186773244895647,3.0,3.1622776601683795,6.082762530298219,7.0,7.0710678118654755,19.1049731745428,16.0312195418814,13.0,12.0,15.0,6.5,5.5,1.5,3.5,3.0,2.23606797749979,2.5,10.0,5.0,12.165525060596439
536,556,6.0,24.186773244895647,2.0,4.123105625617661,6.082762530298219,7.0,7.0710678118654755,19.1049731745428,15.033296378372908,12.0,12.0,15.0,6.5,5.5,1.5,3.5,3.0,3.1622776601683795,3.0,10.0,5.0,12.165525060596439
537,557,6.0,24.186773244895647,2.0,4.123105625617661,7.0710678118654755,8.06225774829855,8.06225774829855,20.09975124224178,16.0312195418814,13.0,13.0,16.0,6.5,5.5,1.5,3.5,3.0,3.1622776601683795,2.5,9.0,4.0,12.165525060596439
538,558,6.0,24.186773244895647,2.0,4.123105625617661,6.0,7.0,8.06225774829855,20.09975124224178,16.0312195418814,13.0,13.0,16.0,6.5,5.5,1.5,4.5,3.0,3.1622776601683795,3.0,10.0,5.0,13.152946437965905
539,559,6.0,23.08679276123039,2.0,4.123105625617661,6.0,7.0,8.06225774829855,20.09975124224178,16.0312195418814,13.0,13.0,15.0,6.0,6.0,2.0,4.0,3.0,3.0,2.5,10.0,5.0,12.165525060596439
540,560,6.0,24.331050121192877,2.0,4.123105625617661,6.0,7.0710678118654755,8.06225774829855,20.09975124224178,16.0312195418814,13.0,12.0,16.0,6.0,6.0,1.0,4.0,3.0,3.0,2.5,9.0,4.0,12.165525060596439
541,561,4.123105625617661,24.186773244895647,3.0,4.0,6.082762530298219,7.0710678118654755,7.0710678118654755,18.110770276274835,14.142135623730951,12.0,11.0,14.0,5.5,5.5,1.5,2.5,3.0,3.0,2.5,9.0,4.0,12.165525060596439
542,562,1.4142135623730951,24.186773244895647,3.0,3.0,6.082762530298219,6.0,7.0710678118654755,14.142135623730951,11.180339887498949,10.5,11.0,14.0,5.5,1.5,1.5,2.5,2.0,3.1622776601683795,2.5,9.0,5.0,12.041594578792296
543,563,2.0,21.095023109728988,2.0,3.1622776601683795,6.0,7.0710678118654755,7.0710678118654755,14.142135623730951,11.045361017187261,10.0,11.0,13.0,5.0,2.0,2.0,3.0,2.0,2.23606797749979,2.0,10.0,5.0,11.180339887498949
544,564,2.0,20.09975124224178,2.0,3.1622776601683795,6.082762530298219,7.0710678118654755,7.0,14.035668847618199,11.0,10.0,11.0,13.0,5.0,2.0,2.0,2.0,2.0,2.0,2.0,9.0,5.0,12.041594578792296
545,565,1.0,20.09975124224178,3.1622776601683795,4.0,5.0,6.082762530298219,7.0,15.033296378372908,11.045361017187261,10.5,11.0,13.0,5.0,3.0,1.0,2.0,2.0,2.0,2.0,8.0,5.0,11.045361017187261
546,566,2.0,20.024984394500787,3.0,3.0,5.0,6.0,8.0,16.0,13.0,12.0,13.0,14.0,5.5,2.5,0.5,2.5,3.0,2.23606797749979,2.0,8.0,6.0,12.041594578792296
547,567,3.0,21.0,3.0,3.1622776601683795,6.082762530298219,6.0,8.06225774829855,17.0,14.035668847618199,12.5,13.0,13.0,5.0,4.0,1.0,3.0,3.0,2.0,2.0,7.0,6.0,12.0
548,568,3.1622776601683795,22.02271554554524,3.0,3.0,5.0,6.082762530298219,8.0,17.029386365926403,14.035668847618199,12.5,14.0,13.0,5.5,3.5,0.5,2.5,3.1622776601683795,3.0,2.5,6.0,7.0,12.041594578792296
549,569,2.0,24.08318915758459,3.1622776601683795,3.0,6.0,6.082762530298219,7.0,15.033296378372908,12.041594578792296,11.0,13.0,11.0,5.0,3.0,0.0,2.0,3.0,2.0,2.0,6.0,7.0,11.0
550,570,2.23606797749979,24.186773244895647,2.0,2.0,6.082762530298219,6.082762530298219,8.06225774829855,14.142135623730951,12.165525060596439,11.0,14.0,11.0,4.5,1.5,0.5,2.5,2.23606797749979,2.0,2.0,5.0,7.0,11.045361017187261
551,571,1.0,24.08318915758459,2.0,3.1622776601683795,6.0,6.082762530298219,8.06225774829855,14.142135623730951,11.045361017187261,10.5,13.0,11.0,4.0,2.0,1.0,2.0,3.0,2.0,2.0,5.0,6.0,11.045361017187261
552,572,1.4142135623730951,24.08318915758459,3.0,3.0,6.082762530298219,6.082762530298219,7.0710678118654755,14.142135623730951,11.180339887498949,10.5,13.0,11.0,5.0,2.0,1.0,3.0,3.0,3.0,3.0,5.0,6.0,11.045361017187261
553,573,1.4142135623730951,25.079872407968907,3.0,3.0,7.0,7.0710678118654755,7.0710678118654755,14.142135623730951,11.180339887498949,10.5,13.0,11.0,5.0,2.0,1.0,2.0,2.0,2.0,2.0,5.0,7.0,12.041594578792296
554,574,3.0,25.079872407968907,3.0,2.23606797749979,6.082762530298219,7.0710678118654755,7.0710678118654755,15.132745950421556,13.038404810405298,11.5,13.0,11.0,5.0,3.0,1.0,3.0,2.0,2.0,2.0,7.0,7.0,12.041594578792296
555,575,3.0,26.019223662515376,3.0,2.23606797749979,7.0710678118654755,7.0,8.06225774829855,16.1245154965971,14.035668847618199,12.5,13.0,12.0,4.5,3.5,1.5,2.5,2.0,3.0,3.0,6.0,7.0,12.041594578792296
556,576,3.1622776601683795,26.019223662515376,3.0,3.0,7.0710678118654755,7.0710678118654755,7.0710678118654755,16.1245154965971,13.152946437965905,11.5,12.0,11.0,4.5,4.5,1.5,2.5,2.0,3.0,2.5,6.0,7.0,11.0
557,577,3.0,26.076809620810597,3.0,3.0,6.082762530298219,7.0710678118654755,7.0710678118654755,16.0312195418814,13.038404810405298,11.5,13.0,11.0,5.0,4.0,1.0,3.0,2.0,3.0,2.5,7.0,7.0,13.038404810405298
558,578,3.0,25.019992006393608,2.0,3.0,6.082762530298219,6.082762530298219,8.06225774829855,16.0312195418814,13.038404810405298,11.5,13.0,12.0,4.5,3.5,0.5,2.5,3.0,3.0,3.0,7.0,7.0,12.0
559,579,1.0,26.019223662515376,3.0,3.0,6.082762530298219,7.0,8.06225774829855,15.033296378372908,12.041594578792296,11.5,13.0,12.0,4.5,2.5,0.5,2.5,3.0,3.0,2.5,7.0,7.0,13.0
560,580,1.4142135623730951,25.019992006393608,3.0,3.0,7.0710678118654755,6.082762530298219,8.0,15.033296378372908,12.041594578792296,11.5,13.0,12.0,4.5,2.5,0.5,2.5,3.0,3.0,3.0,7.0,7.0,12.041594578792296
561,581,1.0,25.019992006393608,2.0,3.0,6.082762530298219,6.0,8.06225774829855,14.035668847618199,11.045361017187261,10.5,13.0,12.0,4.5,1.5,1.5,2.5,2.0,3.0,2.5,6.0,6.0,11.0
562,582,1.0,25.079872407968907,2.23606797749979,3.0,6.082762530298219,6.0,8.0,14.035668847618199,11.045361017187261,10.5,13.0,11.0,4.0,2.0,0.0,2.0,2.0,3.0,2.5,7.0,7.0,13.0
563,583,1.4142135623730951,25.019992006393608,3.0,2.0,6.082762530298219,6.082762530298219,8.0,14.035668847618199,12.041594578792296,11.5,13.0,12.0,4.5,1.5,0.5,2.5,3.0,3.0,2.5,8.0,8.0,13.0
564,584,1.4142135623730951,25.019992006393608,3.0,3.0,7.0,6.082762530298219,8.0,15.033296378372908,12.041594578792296,11.5,13.0,12.0,4.5,2.5,0.5,1.5,2.0,3.0,2.5,7.0,7.0,13.0
565,585,4.123105625617661,25.019992006393608,3.0,3.0,7.0710678118654755,7.0710678118654755,8.0,18.027756377319946,15.033296378372908,13.0,14.0,13.0,5.5,4.5,1.5,3.5,2.23606797749979,3.0,2.5,8.0,8.0,12.0
566,586,6.0,24.0,2.0,3.0,7.0,7.0,8.0,19.0,16.0,13.0,14.0,14.0,6.0,5.0,2.0,4.0,2.0,3.0,2.5,8.0,8.0,12.0
567,587,7.0,24.0,2.0,4.0,6.0,8.0,8.06225774829855,21.02379604162864,17.029386365926403,13.5,15.0,15.0,7.0,6.0,2.0,5.0,2.0,3.0,3.0,7.0,7.0,13.0
568,588,8.0,24.0,2.0,4.0,6.0,7.0,8.06225774829855,22.02271554554524,18.027756377319946,14.0,15.0,15.0,7.0,7.0,3.0,5.0,2.0,2.23606797749979,2.5,7.0,7.0,13.0
569,589,8.06225774829855,23.0,3.0,3.1622776601683795,6.0,7.0,7.0710678118654755,21.02379604162864,18.0,14.0,15.0,15.0,8.0,6.0,3.0,5.0,2.0,3.0,3.0,7.0,7.0,12.0
570,590,8.0,23.021728866442675,3.0,3.0,7.0,7.0,7.0710678118654755,21.02379604162864,18.027756377319946,14.0,16.0,15.0,8.5,5.5,2.5,5.5,2.23606797749979,2.0,2.0,7.0,7.0,13.0
571,591,8.0,24.020824298928627,3.0,4.0,7.0,7.0,8.06225774829855,23.021728866442675,19.026297590440446,15.0,17.0,16.0,8.5,6.5,2.5,5.5,2.0,2.0,2.5,7.0,7.0,13.038404810405298
572,592,8.06225774829855,23.0,3.1622776601683795,3.1622776601683795,6.0,7.0,7.0,21.02379604162864,18.0,14.0,15.0,15.0,8.0,6.0,3.0,5.0,2.0,2.0,2.5,7.0,7.0,11.045361017187261
573,593,8.06225774829855,23.021728866442675,3.0,3.1622776601683795,6.0,7.0710678118654755,7.0710678118654755,21.02379604162864,18.0,14.0,15.0,14.0,7.5,6.5,3.5,4.5,2.0,2.0,2.0,7.0,7.0,12.0
574,594,7.0,23.021728866442675,2.0,3.0,6.0,7.0,8.06225774829855,20.024984394500787,17.029386365926403,13.5,15.0,14.0,6.5,5.5,2.5,4.5,2.23606797749979,3.0,3.0,7.0,7.0,13.0
575,595,4.0,23.0,3.0,3.0,6.0,7.0,8.06225774829855,18.027756377319946,15.033296378372908,13.0,14.0,14.0,6.0,4.0,1.0,3.0,2.0,3.0,3.0,7.0,7.0,13.0
576,596,2.0,24.020824298928627,3.0,3.0,6.0,7.0,8.06225774829855,16.0312195418814,13.038404810405298,12.0,14.0,13.0,5.5,2.5,0.5,2.5,2.0,2.0,2.5,7.0,7.0,13.0
577,597,2.0,24.020824298928627,3.0,3.0,6.0,6.082762530298219,7.0,15.0,12.0,11.0,13.0,12.0,5.5,2.5,0.5,2.5,2.0,3.0,3.0,6.0,7.0,12.0
578,598,2.0,24.020824298928627,3.0,3.0,6.082762530298219,6.082762530298219,7.0710678118654755,15.033296378372908,12.041594578792296,11.0,13.0,12.0,5.5,2.5,0.5,3.5,2.0,3.0,3.0,6.0,6.0,12.0
579,599,2.0,24.020824298928627,2.0,3.0,6.0,7.0710678118654755,8.0,15.0,12.0,11.0,13.0,12.0,4.5,2.5,0.5,2.5,3.1622776601683795,2.0,2.0,7.0,7.0,13.0
580,600,1.0,24.020824298928627,3.0,4.123105625617661,7.0,7.0710678118654755,7.0,15.033296378372908,11.0,10.5,13.0,12.0,5.5,2.5,1.5,2.5,2.23606797749979,2.23606797749979,2.5,7.0,7.0,12.0
581,601,5.0,24.020824298928627,2.0,3.0,7.0,7.0,8.0,18.0,15.0,12.5,14.0,13.0,5.5,4.5,0.5,3.5,2.23606797749979,2.0,2.5,7.0,7.0,12.0
582,602,6.0,25.019992006393608,3.0,3.0,6.082762530298219,7.0,8.06225774829855,20.024984394500787,17.029386365926403,14.0,15.0,14.0,6.5,5.5,2.5,4.5,3.0,3.0,3.0,7.0,8.0,12.0
583,603,7.0,25.0,2.0,3.0,6.0,6.0,8.0,20.0,17.0,13.5,14.0,14.0,6.0,6.0,3.0,4.0,3.0,3.0,2.5,7.0,7.0,13.0
584,604,7.0,25.0,2.0,3.0,7.0,7.0,8.0,20.0,17.0,13.5,14.0,14.0,6.0,6.0,3.0,4.0,3.1622776601683795,2.0,2.5,7.0,7.0,13.0
585,605,7.0,24.020824298928627,2.0,2.0,6.0,6.0,8.06225774829855,19.026297590440446,17.029386365926403,13.5,14.0,13.0,5.5,5.5,2.5,3.5,3.0,2.0,2.0,7.0,7.0,11.0
586,606,7.0,25.019992006393608,2.0,3.0,6.0,8.0,8.06225774829855,20.024984394500787,17.029386365926403,13.5,14.0,13.0,5.5,6.5,2.5,3.5,1.0,2.0,2.0,7.0,7.0,12.0
587,607,7.0,25.0,2.0,2.0,6.0,8.0,8.06225774829855,19.026297590440446,17.029386365926403,13.5,14.0,14.0,6.0,5.0,2.0,4.0,2.0,2.0,1.5,7.0,7.0,12.0
588,608,6.0,25.0,2.0,4.0,6.0,8.0,8.06225774829855,20.024984394500787,16.0312195418814,13.0,14.0,14.0,6.0,6.0,2.0,4.0,2.0,2.0,1.5,8.0,8.0,11.0
589,609,7.0,25.019992006393608,2.0,2.0,7.0,7.0,8.06225774829855,19.026297590440446,17.029386365926403,13.5,14.0,13.0,5.5,5.5,3.5,3.5,2.0,2.0,1.5,7.0,7.0,13.0
590,610,6.0,25.019992006393608,2.0,3.0,7.0,7.0,8.06225774829855,19.026297590440446,16.0312195418814,13.0,14.0,13.0,5.5,5.5,2.5,3.5,3.1622776601683795,2.0,2.5,7.0,7.0,12.041594578792296
591,611,4.0,23.021728866442675,2.0,3.0,6.0,6.0,8.0,17.0,14.0,12.0,13.0,12.0,4.5,4.5,1.5,2.5,2.23606797749979,2.0,2.0,7.0,7.0,12.0
592,612,3.0,22.0,2.0,3.0,6.0,6.0,8.06225774829855,16.0312195418814,13.038404810405298,11.5,13.0,13.0,5.0,3.0,0.0,3.0,2.0,2.0,2.0,8.0,7.0,13.038404810405298
593,613,2.0,22.02271554554524,2.0,3.0,6.0,6.0,8.06225774829855,15.033296378372908,12.041594578792296,11.0,14.0,13.0,5.5,1.5,1.5,3.5,2.0,2.0,2.0,8.0,7.0,12.041594578792296
594,614,4.0,21.0,2.0,3.0,6.0,6.0,8.06225774829855,17.029386365926403,14.035668847618199,12.0,13.0,13.0,5.0,4.0,0.0,3.0,2.0,2.0,2.0,8.0,7.0,12.0
595,615,4.0,19.0,2.0,3.0,5.0,6.0,9.0,18.0,15.0,13.0,15.0,15.0,6.0,3.0,0.0,4.0,3.0,2.0,2.5,7.0,7.0,12.041594578792296
596,616,4.0,17.0,2.0,4.0,5.0,6.0,9.055385138137417,19.026297590440446,15.033296378372908,13.0,16.0,16.0,7.0,3.0,1.0,5.0,2.0,2.0,2.5,7.0,7.0,12.0
597,617,2.0,17.0,3.0,4.0,5.0,6.082762530298219,9.055385138137417,18.027756377319946,14.035668847618199,13.0,16.0,16.0,7.0,2.0,3.0,4.0,2.0,2.0,2.5,7.0,7.0,12.0
598,618,2.0,17.0,3.0,5.0,6.0,5.0,8.06225774829855,18.027756377319946,13.038404810405298,12.0,15.0,15.0,7.0,3.0,2.0,4.0,3.0,2.0,2.5,7.0,7.0,12.0
599,619,2.0,17.0,3.0,4.0,4.0,5.0,8.06225774829855,17.029386365926403,13.038404810405298,12.0,15.0,15.0,7.0,2.0,2.0,4.0,2.0,2.0,2.0,7.0,7.0,12.0
600,620,2.0,18.027756377319946,3.0,4.0,5.0,5.0,8.0,17.0,13.0,12.0,16.0,15.0,7.5,1.5,2.5,4.5,3.0,2.0,2.5,7.0,7.0,12.0
601,621,2.0,16.0312195418814,3.0,3.0,5.0990195135927845,5.0,9.0,17.0,14.0,13.0,16.0,15.0,6.5,1.5,1.5,4.5,3.0,2.0,2.5,7.0,7.0,12.0
602,622,5.0,18.0,3.0,3.0,5.0,5.0,8.06225774829855,19.026297590440446,16.0312195418814,13.5,16.0,16.0,8.0,3.0,0.0,5.0,3.1622776601683795,2.0,2.5,7.0,7.0,12.0
603,623,5.0990195135927845,20.0,3.0,3.0,5.0,6.0,9.0,20.024984394500787,17.029386365926403,14.5,15.0,15.0,6.0,5.0,1.0,3.0,3.0,3.0,3.0,7.0,6.0,12.041594578792296
604,624,2.0,21.02379604162864,2.0,2.0,6.082762530298219,5.0,10.0,16.0,14.0,13.0,15.0,14.0,4.5,1.5,0.5,2.5,3.1622776601683795,3.0,3.0,7.0,7.0,11.0
605,625,0.0,21.02379604162864,3.0,2.0,6.082762530298219,5.0,9.055385138137417,14.035668847618199,12.041594578792296,12.0,14.0,13.0,4.5,0.5,1.5,2.5,3.1622776601683795,2.0,2.5,7.0,7.0,11.045361017187261
606,626,0.0,21.02379604162864,3.0,2.23606797749979,5.0990195135927845,5.0,9.0,14.035668847618199,12.0,12.0,14.0,13.0,4.5,0.5,1.5,2.5,2.23606797749979,3.0,3.0,7.0,7.0,11.0
607,627,0.0,22.02271554554524,3.0,2.0,6.082762530298219,5.0990195135927845,9.0,14.0,12.0,12.0,14.0,13.0,4.5,0.5,1.5,2.5,3.1622776601683795,3.0,3.0,6.0,6.0,11.0
608,628,1.0,23.021728866442675,2.0,2.0,6.0,6.0,9.0,14.0,12.0,11.5,14.0,13.0,4.5,0.5,1.5,2.5,2.0,3.0,3.0,7.0,7.0,12.0
609,629,5.0990195135927845,24.020824298928627,3.0,3.0,7.0710678118654755,7.0710678118654755,7.0,18.027756377319946,15.033296378372908,12.5,13.0,12.0,5.5,5.5,2.5,3.5,3.0,3.0,3.0,8.0,8.0,13.0
610,630,6.0,24.0,2.0,4.0,6.0,7.0710678118654755,8.0,20.0,16.0,13.0,14.0,14.0,6.0,6.0,2.0,4.0,2.0,3.0,3.0,8.0,8.0,12.0
611,631,6.0,23.0,2.0,4.123105625617661,6.0,7.0,8.0,20.024984394500787,16.0,13.0,14.0,14.0,6.0,6.0,2.0,4.0,3.0,3.0,3.0,8.0,7.0,12.0
612,632,6.0,25.0,2.0,4.0,7.0,7.0,8.0,20.0,16.0,13.0,14.0,14.0,6.0,6.0,2.0,4.0,3.0,3.0,3.0,8.0,7.0,13.0
613,633,6.0,23.0,2.0,3.0,6.0,7.0,8.0,19.0,16.0,13.0,14.0,14.0,6.0,5.0,2.0,4.0,3.1622776601683795,3.0,3.0,7.0,7.0,13.0
614,634,6.0,24.0,2.0,3.0,7.0,8.0,8.06225774829855,19.026297590440446,16.0312195418814,13.0,14.0,14.0,6.0,5.0,2.0,4.0,3.0,3.0,3.0,8.0,8.0,12.041594578792296
615,635,6.0,24.020824298928627,2.0,3.0,7.0,8.0,8.06225774829855,19.026297590440446,16.0312195418814,13.0,14.0,13.0,5.5,5.5,2.5,3.5,3.0,3.1622776601683795,3.0,8.0,8.0,12.041594578792296
616,636,6.0,23.021728866442675,2.0,3.0,7.0,7.0710678118654755,7.0,18.0,15.0,12.0,13.0,12.0,5.5,5.5,2.5,3.5,3.0,2.0,2.5,8.0,8.0,12.0
617,637,3.0,22.02271554554524,2.0,4.0,6.0,6.082762530298219,7.0710678118654755,16.0312195418814,12.041594578792296,10.5,12.0,11.0,4.5,4.5,0.5,2.5,3.1622776601683795,3.0,2.5,7.0,7.0,12.041594578792296
618,638,1.0,21.02379604162864,3.0,5.0,6.082762530298219,6.0,7.0710678118654755,16.0312195418814,11.045361017187261,10.5,13.0,12.0,5.5,3.5,1.5,3.5,3.1622776601683795,3.0,2.5,7.0,7.0,12.0
619,639,2.0,21.02379604162864,2.0,4.0,6.0,7.0710678118654755,7.0710678118654755,15.033296378372908,11.045361017187261,10.0,12.0,11.0,4.5,3.5,0.5,2.5,3.1622776601683795,3.0,2.5,7.0,7.0,12.0
620,640,2.0,22.02271554554524,2.0,4.0,6.0,7.0,7.0710678118654755,15.033296378372908,11.045361017187261,10.0,13.0,12.0,5.5,2.5,1.5,3.5,2.0,2.0,2.5,7.0,7.0,12.0
621,641,2.0,22.02271554554524,2.0,5.0,6.0,7.0,7.0710678118654755,16.0312195418814,11.045361017187261,10.0,13.0,12.0,5.5,3.5,1.5,3.5,3.0,3.1622776601683795,3.0,6.0,6.0,12.0
622,642,3.0,21.02379604162864,2.0,4.0,6.0,7.0,7.0710678118654755,16.0312195418814,12.041594578792296,10.5,13.0,12.0,5.5,3.5,0.5,3.5,2.0,2.0,2.5,6.0,6.0,12.041594578792296
623,643,4.0,21.02379604162864,2.0,3.0,6.0,7.0,7.0710678118654755,16.0312195418814,13.038404810405298,11.0,13.0,12.0,5.5,3.5,0.5,3.5,2.0,2.0,2.5,6.0,6.0,12.041594578792296
624,644,5.0,20.024984394500787,2.0,4.0,5.0,7.0,7.0,18.0,14.0,11.5,14.0,13.0,6.5,4.5,0.5,4.5,2.0,2.0,2.5,6.0,6.0,12.041594578792296
625,645,5.0,21.02379604162864,2.0,4.0,5.0990195135927845,7.0710678118654755,8.0,19.0,15.0,12.5,14.0,13.0,5.5,5.5,1.5,4.5,2.0,3.0,3.0,6.0,6.0,12.0
626,646,6.0,20.024984394500787,1.0,4.0,6.0,7.0,8.0,19.0,15.0,12.0,14.0,13.0,5.5,5.5,1.5,4.5,3.1622776601683795,2.0,2.5,6.0,6.0,13.0
627,647,4.0,21.02379604162864,2.0,3.1622776601683795,7.0710678118654755,7.0,8.0,17.029386365926403,14.0,12.0,14.0,13.0,5.5,3.5,0.5,4.5,2.23606797749979,2.0,2.5,6.0,6.0,11.0
628,648,2.0,22.02271554554524,2.0,4.123105625617661,6.082762530298219,7.0710678118654755,8.0,16.0312195418814,12.0,11.0,13.0,12.0,4.5,3.5,0.5,3.5,2.0,2.0,2.5,6.0,6.0,11.0
629,649,3.0,22.02271554554524,2.0,4.0,7.0,7.0710678118654755,7.0,16.0,12.0,10.5,13.0,12.0,5.5,3.5,0.5,3.5,2.23606797749979,3.0,3.0,6.0,6.0,12.0
630,650,3.0,21.0,2.0,4.0,6.0,7.0,7.0710678118654755,16.0312195418814,12.041594578792296,10.5,13.0,13.0,6.0,3.0,1.0,4.0,2.0,3.0,3.0,6.0,6.0,12.041594578792296
631,651,3.0,21.02379604162864,2.0,4.0,7.0,7.0710678118654755,7.0710678118654755,16.0312195418814,12.041594578792296,10.5,13.0,12.0,5.5,3.5,0.5,3.5,2.0,2.0,2.5,6.0,6.0,12.0
632,652,4.0,21.02379604162864,2.0,3.0,6.0,7.0,7.0710678118654755,16.0312195418814,13.038404810405298,11.0,13.0,12.0,5.5,3.5,0.5,3.5,3.1622776601683795,2.0,2.0,6.0,6.0,11.045361017187261
633,653,4.0,21.0,1.0,3.1622776601683795,6.0,6.0,8.0,16.0312195418814,13.0,11.0,13.0,13.0,5.0,3.0,1.0,4.0,2.0,2.0,2.5,6.0,6.0,12.0
634,654,4.0,21.02379604162864,2.0,3.0,6.0,6.0,7.0710678118654755,16.0312195418814,13.038404810405298,11.0,13.0,12.0,5.5,3.5,0.5,3.5,3.1622776601683795,2.0,2.5,6.0,6.0,12.0
635,655,4.0,21.02379604162864,2.0,3.0,6.0,7.0,8.06225774829855,17.029386365926403,14.035668847618199,12.0,14.0,13.0,5.5,3.5,0.5,3.5,3.0,2.0,2.5,7.0,7.0,12.041594578792296
636,656,5.0990195135927845,21.0,2.0,3.0,6.0,6.082762530298219,7.0,17.029386365926403,14.035668847618199,11.5,13.0,13.0,6.0,4.0,0.0,4.0,2.23606797749979,2.0,2.5,6.0,6.0,12.0
637,657,5.0,21.0,2.0,3.1622776601683795,6.0,7.0,8.06225774829855,18.110770276274835,15.033296378372908,12.5,14.0,14.0,6.0,4.0,0.0,4.0,2.23606797749979,2.0,2.5,6.0,7.0,12.0
638,658,5.0990195135927845,22.02271554554524,2.0,2.0,6.0,7.0,8.06225774829855,17.11724276862369,15.132745950421556,12.5,14.0,13.0,5.5,3.5,0.5,3.5,3.0,2.0,2.5,7.0,7.0,12.0
639,659,4.0,21.02379604162864,2.0,3.0,6.0,6.0,8.06225774829855,17.029386365926403,14.035668847618199,12.0,14.0,13.0,5.5,3.5,0.5,3.5,3.1622776601683795,2.0,2.0,6.0,6.0,13.0
640,660,4.0,21.0,2.0,2.0,6.0,6.0,8.06225774829855,16.0312195418814,14.035668847618199,12.0,14.0,14.0,6.0,2.0,0.0,4.0,3.1622776601683795,2.0,2.0,6.0,6.0,12.0
641,661,2.0,21.02379604162864,2.0,4.0,6.0,6.0,8.06225774829855,16.0312195418814,12.041594578792296,11.0,14.0,13.0,5.5,2.5,1.5,3.5,2.0,2.23606797749979,2.0,6.0,6.0,12.0
642,662,2.0,21.0,2.0,3.0,6.0,6.0,8.06225774829855,15.033296378372908,12.041594578792296,11.0,13.0,13.0,5.0,2.0,1.0,3.0,2.0,2.0,2.5,7.0,6.0,12.0
643,663,2.0,21.02379604162864,2.0,3.0,6.0,6.0,8.06225774829855,15.033296378372908,12.041594578792296,11.0,14.0,13.0,5.5,1.5,1.5,3.5,2.0,3.0,2.5,7.0,6.0,12.0
644,664,1.0,22.02271554554524,2.0,3.0,5.0,6.0,8.0,14.0,11.0,10.5,12.0,13.0,4.5,1.5,1.5,2.5,2.23606797749979,2.0,2.5,7.0,6.0,13.0
645,665,1.0,24.0,2.0,3.0,6.0,7.0,9.0,15.0,12.0,11.5,13.0,13.0,4.0,2.0,1.0,2.0,3.1622776601683795,2.0,2.5,7.0,6.0,13.0
646,666,1.0,24.0,3.0,3.1622776601683795,7.0,7.0,8.0,15.033296378372908,12.0,11.5,13.0,13.0,5.0,2.0,2.0,2.0,2.23606797749979,2.23606797749979,2.5,6.0,5.0,12.0
647,667,3.0,23.021728866442675,2.0,2.0,6.0,6.0,9.0,16.0,14.0,12.5,14.0,13.0,4.5,2.5,0.5,2.5,3.0,3.0,3.0,7.0,6.0,13.0
648,668,4.0,23.0,3.0,3.0,6.0,6.0,8.0,18.0,15.0,13.0,14.0,14.0,6.0,4.0,0.0,3.0,3.1622776601683795,3.0,3.0,7.0,6.0,13.0
649,669,4.0,23.0,3.0,3.0,6.0,6.0,8.0,18.0,15.0,13.0,14.0,14.0,6.0,4.0,1.0,3.0,3.0,3.0,3.0,8.0,7.0,12.0
650,670,3.0,23.0,3.0,3.0,6.0,6.0,8.0,17.0,14.0,12.5,13.0,13.0,5.0,4.0,1.0,3.0,3.0,2.0,2.5,8.0,7.0,13.0
651,671,4.0,24.0,2.0,2.0,6.0,7.0,8.0,16.0,14.0,12.0,13.0,13.0,5.0,3.0,0.0,3.0,3.0,2.0,2.5,8.0,7.0,12.0
652,672,4.0,24.0,2.0,3.0,7.0,7.0710678118654755,7.0710678118654755,16.0312195418814,13.038404810405298,11.0,12.0,12.0,5.0,4.0,1.0,3.0,2.0,2.0,2.5,8.0,7.0,13.0
653,673,5.0,23.021728866442675,1.0,3.0,6.0,7.0,9.0,18.0,15.0,12.5,13.0,14.0,4.5,4.5,1.5,3.5,2.23606797749979,2.0,2.5,7.0,6.0,12.0
654,674,6.0,24.0,2.0,3.0,7.0,7.0,7.0710678118654755,18.027756377319946,15.033296378372908,12.0,13.0,13.0,6.0,5.0,2.0,4.0,2.0,3.0,3.0,7.0,7.0,12.0
655,675,6.0,24.0,2.0,3.0,7.0,7.0,7.0,18.0,15.0,12.0,13.0,13.0,6.0,5.0,2.0,4.0,2.0,3.0,3.0,8.0,7.0,13.0
656,676,6.082762530298219,23.0,2.0,3.0,7.0,7.0,7.0,18.027756377319946,15.033296378372908,12.0,13.0,13.0,6.0,5.0,2.0,4.0,2.0,3.0,3.0,8.0,7.0,12.0
657,677,6.0,23.0,2.23606797749979,3.0,7.0,7.0,7.0710678118654755,18.0,15.0,12.0,13.0,13.0,6.0,5.0,1.0,4.0,3.0,3.0,3.0,7.0,6.0,13.0
658,678,3.0,24.020824298928627,2.0,3.0,6.0,7.0,8.0,16.0,13.0,11.5,12.0,13.0,4.5,3.5,0.5,2.5,1.0,1.4142135623730951,1.5,7.0,6.0,13.0
659,679,2.0,23.0,3.0,3.0,6.082762530298219,7.0,8.0,16.0,13.0,12.0,13.0,13.0,5.0,3.0,0.0,2.0,1.4142135623730951,2.0,1.5,7.0,6.0,12.0
660,680,2.0,23.021728866442675,2.0,3.0,6.0,7.0,8.0,15.0,12.0,11.0,12.0,13.0,4.5,2.5,0.5,2.5,2.0,1.0,1.5,8.0,6.0,11.0
661,681,3.0,22.02271554554524,2.0,3.0,6.082762530298219,7.0,8.0,16.0,13.0,11.5,12.0,13.0,4.5,3.5,0.5,2.5,1.0,2.0,1.5,8.0,6.0,12.0
662,682,3.0,21.02379604162864,2.0,3.0,6.0,6.0,8.0,16.0,13.0,11.5,13.0,14.0,5.5,2.5,0.5,3.5,2.0,1.0,1.5,8.0,6.0,12.041594578792296
663,683,3.0,22.02271554554524,2.0,3.1622776601683795,7.0,7.0710678118654755,8.06225774829855,16.0,13.038404810405298,11.5,12.0,13.0,4.5,3.5,0.5,2.5,2.0,2.0,2.0,8.0,6.0,11.045361017187261
664,684,1.0,21.02379604162864,3.0,4.0,6.0,6.0,7.0,15.0,11.0,10.5,12.0,13.0,5.5,2.5,1.5,2.5,2.0,2.0,2.0,8.0,6.0,12.041594578792296
665,685,1.0,22.02271554554524,3.0,3.0,6.0,7.0,8.06225774829855,15.033296378372908,12.041594578792296,11.5,13.0,14.0,5.5,1.5,1.5,2.5,2.0,2.23606797749979,2.0,8.0,5.0,11.045361017187261
666,686,2.0,22.02271554554524,2.0,3.0,6.0,7.0710678118654755,8.0,15.0,12.0,11.0,12.0,13.0,4.5,2.5,1.5,2.5,2.0,2.0,2.0,8.0,5.0,12.041594578792296
667,687,1.0,22.02271554554524,3.1622776601683795,3.0,6.082762530298219,6.082762530298219,8.06225774829855,15.0,12.0,11.5,12.0,13.0,4.5,2.5,1.5,1.5,2.0,1.4142135623730951,1.5,8.0,5.0,11.045361017187261
668,688,1.0,22.02271554554524,3.0,3.0,6.082762530298219,7.0710678118654755,8.0,15.0,12.0,11.5,12.0,13.0,4.5,2.5,1.5,1.5,2.0,2.0,2.0,8.0,5.0,11.045361017187261
669,689,1.0,22.02271554554524,2.0,3.0,6.0,6.0,8.0,14.0,11.0,10.5,12.0,13.0,4.5,1.5,1.5,2.5,2.0,2.0,2.0,8.0,5.0,12.041594578792296
670,690,1.0,22.090722034374522,3.0,3.0,6.082762530298219,6.082762530298219,8.0,15.0,12.0,11.5,12.0,14.0,5.0,2.0,2.0,2.0,2.0,2.0,2.5,8.0,6.0,11.045361017187261
671,691,1.0,22.02271554554524,2.0,4.0,6.0,6.082762530298219,8.0,15.0,11.0,10.5,12.0,13.0,4.5,2.5,1.5,2.5,2.0,2.0,2.0,8.0,6.0,11.0
672,692,1.0,22.0,3.0,3.0,6.082762530298219,6.0,8.0,15.0,12.0,11.5,13.0,13.0,5.0,2.0,2.0,2.0,2.0,2.0,2.0,8.0,6.0,12.0
673,693,1.0,21.0,3.0,4.123105625617661,6.0,7.0,8.06225774829855,16.0,12.041594578792296,11.5,13.0,13.0,5.0,3.0,1.0,2.0,2.0,2.0,2.5,8.0,6.0,12.0
674,694,2.0,21.02379604162864,2.0,4.0,6.0,6.082762530298219,8.06225774829855,16.0312195418814,12.041594578792296,11.0,11.0,12.0,3.5,4.5,0.5,1.5,2.0,2.0,2.0,8.0,6.0,12.041594578792296
675,695,2.0,22.0,3.0,4.0,6.0,7.0,9.0,18.0,14.0,13.0,13.0,13.0,4.0,5.0,0.0,2.0,3.0,2.0,2.5,8.0,7.0,12.0
676,696,5.0,22.0,2.0,3.0,6.0,7.0,8.0,18.0,15.0,12.5,13.0,13.0,5.0,5.0,2.0,3.0,3.0,3.0,3.0,8.0,7.0,13.038404810405298
677,697,5.0,23.021728866442675,3.0,4.123105625617661,6.0,7.0,8.0,20.024984394500787,16.0,13.5,13.0,14.0,5.5,6.5,1.5,2.5,3.1622776601683795,2.0,2.5,8.0,7.0,13.0
678,698,5.0,25.019992006393608,2.0,4.0,6.0,7.0,9.0,20.0,16.0,13.5,13.0,14.0,4.5,6.5,2.5,2.5,3.1622776601683795,2.0,2.5,8.0,7.0,12.0
679,699,4.0,25.0,3.0,4.0,6.0,7.0,8.0,19.0,15.0,13.0,13.0,13.0,5.0,6.0,2.0,2.0,3.0,3.0,3.0,8.0,7.0,13.0
680,700,5.0,24.0,2.0,4.0,7.0,8.0,9.0,20.0,16.0,13.5,14.0,14.0,5.0,6.0,2.0,3.0,3.1622776601683795,3.0,3.0,8.0,6.0,13.038404810405298
681,701,5.0,24.020824298928627,3.0,3.0,6.0,7.0,8.0,19.0,16.0,13.5,14.0,13.0,5.5,5.5,1.5,2.5,3.0,3.0,3.0,7.0,6.0,12.0
682,702,5.0990195135927845,24.0,2.23606797749979,3.0,7.0,7.0,9.055385138137417,19.026297590440446,16.0312195418814,13.5,14.0,14.0,5.0,5.0,1.0,3.0,2.0,2.0,2.5,8.0,7.0,12.0
683,703,5.0,23.0,2.0,3.0,6.0,7.0,9.055385138137417,19.026297590440446,16.0312195418814,13.5,14.0,14.0,5.0,5.0,1.0,3.0,3.0,2.0,2.5,8.0,7.0,13.038404810405298
684,704,5.0,24.020824298928627,2.0,4.0,7.0,7.0,8.0,19.0,15.0,12.5,13.0,14.0,5.5,5.5,1.5,3.5,3.0,3.0,3.0,7.0,6.0,12.0
685,705,4.0,22.0,3.0,4.0,7.0,7.0,8.06225774829855,19.026297590440446,15.033296378372908,13.0,14.0,14.0,6.0,5.0,1.0,4.0,2.0,2.0,2.5,8.0,7.0,11.0
686,706,5.0,24.0,2.0,3.0,6.0,7.0,8.0,18.0,15.0,12.5,13.0,13.0,5.0,5.0,1.0,3.0,3.0,3.0,3.0,7.0,7.0,13.0
687,707,3.1622776601683795,22.0,2.0,3.0,6.0,7.0,8.0,16.0312195418814,13.038404810405298,11.5,13.0,13.0,5.0,3.0,0.0,3.0,2.0,2.0,2.5,7.0,6.0,12.0
688,708,2.0,22.0,2.0,3.0,5.0,6.0,8.06225774829855,15.033296378372908,12.041594578792296,11.0,13.0,13.0,5.0,2.0,1.0,3.0,2.0,3.0,3.0,6.0,6.0,12.041594578792296
689,709,1.0,22.0,3.0,3.0,6.0,6.0,8.06225774829855,15.033296378372908,12.041594578792296,11.5,13.0,13.0,5.0,2.0,1.0,2.0,3.0,2.0,2.5,7.0,7.0,12.041594578792296
690,710,1.0,21.0,3.0,4.0,6.0,6.0,7.0710678118654755,15.033296378372908,11.045361017187261,10.5,12.0,12.0,5.0,3.0,1.0,2.0,2.0,2.0,2.0,6.0,6.0,12.0
691,711,2.0,20.024984394500787,2.0,3.0,6.0,6.0,8.06225774829855,15.033296378372908,12.041594578792296,11.0,13.0,12.0,4.5,2.5,0.5,2.5,3.0,2.0,2.5,6.0,6.0,13.0
692,712,1.0,21.0,3.0,3.0,6.0,6.0,8.0,15.0,12.0,11.5,13.0,13.0,5.0,2.0,1.0,2.0,2.0,2.23606797749979,2.5,6.0,6.0,12.0
693,713,1.0,22.0,3.0,4.0,6.0,7.0,9.0,17.0,13.0,12.5,14.0,14.0,5.0,3.0,1.0,3.0,2.0,2.0,2.0,6.0,6.0,13.0
694,714,3.0,23.0,3.0,3.0,6.082762530298219,6.082762530298219,8.0,17.0,14.0,12.5,13.0,13.0,5.0,4.0,0.0,2.0,2.23606797749979,2.0,2.5,8.0,6.0,13.0
695,715,3.0,24.0,2.0,2.0,6.082762530298219,6.0,9.0,16.0,14.0,12.5,13.0,13.0,4.0,3.0,1.0,2.0,2.0,2.0,2.5,7.0,6.0,13.0
696,716,3.0,25.0,2.0,3.0,6.0,6.0,8.0,16.0,13.0,11.5,13.0,13.0,5.0,3.0,0.0,3.0,2.0,2.0,2.0,7.0,5.0,12.041594578792296
697,717,2.0,25.019992006393608,2.0,3.0,6.0,7.0,8.06225774829855,15.033296378372908,12.041594578792296,11.0,12.0,13.0,4.5,2.5,0.5,2.5,2.23606797749979,2.23606797749979,2.0,8.0,6.0,12.0
698,718,4.0,25.0,2.0,2.0,7.0,7.0,8.0,16.0,14.0,12.0,13.0,13.0,5.0,3.0,1.0,3.0,3.0,2.0,2.5,7.0,6.0,13.0
699,719,4.0,25.019992006393608,2.0,3.0,6.0,7.0,8.0,17.0,14.0,12.0,12.0,13.0,4.5,4.5,1.5,2.5,3.0,2.0,2.5,7.0,5.0,12.0
700,720,3.0,26.0,2.0,3.0,7.0,7.0,8.0,16.0,13.0,11.5,12.0,12.0,4.0,4.0,1.0,3.0,2.0,2.0,2.0,7.0,5.0,12.041594578792296
701,721,4.0,25.0,2.0,2.0,6.082762530298219,7.0710678118654755,8.0,16.0,14.0,12.0,12.0,12.0,4.0,4.0,1.0,2.0,2.0,2.0,2.0,8.0,6.0,12.041594578792296
702,722,4.0,27.0,2.0,3.0,7.0,7.0710678118654755,7.0,16.0,13.0,11.0,12.0,12.0,5.0,4.0,1.0,3.0,3.0,2.0,2.0,7.0,5.0,12.041594578792296
703,723,4.0,25.019992006393608,2.0,2.0,7.0,7.0,8.06225774829855,16.0312195418814,14.035668847618199,12.0,12.0,13.0,4.5,3.5,1.5,2.5,2.0,2.23606797749979,2.5,7.0,5.0,13.0
704,724,2.0,25.019992006393608,2.0,3.0,7.0,7.0,8.06225774829855,15.033296378372908,12.041594578792296,11.0,12.0,13.0,4.5,2.5,1.5,2.5,2.0,2.23606797749979,2.0,7.0,6.0,12.041594578792296
705,725,1.0,25.019992006393608,3.0,3.0,6.0,6.0,8.0,15.0,12.0,11.5,13.0,12.0,4.5,2.5,1.5,2.5,2.0,2.23606797749979,2.0,6.0,5.0,12.0
706,726,1.0,25.0,2.0,3.0,7.0,7.0,8.06225774829855,14.035668847618199,11.045361017187261,10.5,12.0,12.0,4.0,2.0,1.0,2.0,2.0,2.23606797749979,2.0,6.0,6.0,12.0
707,727,1.0,25.019992006393608,2.0,3.0,6.0,6.0,8.0,14.0,11.0,10.5,13.0,12.0,4.5,1.5,1.5,2.5,2.0,2.0,2.0,6.0,6.0,12.0
708,728,5.0,25.019992006393608,1.0,2.0,6.0,7.0710678118654755,8.06225774829855,16.0312195418814,14.035668847618199,11.5,12.0,11.0,3.5,4.5,2.5,2.5,3.1622776601683795,2.0,2.0,6.0,6.0,13.0
709,729,5.0,25.019992006393608,2.0,2.0,7.0,7.0,8.06225774829855,17.029386365926403,15.033296378372908,12.5,13.0,12.0,4.5,4.5,1.5,2.5,2.0,2.0,2.5,6.0,6.0,12.0
710,730,5.0,25.079872407968907,1.0,2.23606797749979,7.0710678118654755,7.0710678118654755,8.06225774829855,16.1245154965971,14.035668847618199,11.5,13.0,11.0,4.0,4.0,2.0,3.0,3.1622776601683795,2.0,2.0,6.0,7.0,12.0
711,731,5.0,26.1725046566048,2.0,3.0,7.0,7.0710678118654755,7.0710678118654755,17.029386365926403,14.035668847618199,11.5,14.0,11.0,5.5,4.5,1.5,3.5,2.23606797749979,2.0,2.5,6.0,8.0,12.041594578792296
712,732,4.0,26.076809620810597,2.0,2.0,7.0710678118654755,7.0,8.246211251235321,16.1245154965971,14.142135623730951,12.0,13.0,11.0,4.0,4.0,2.0,3.0,2.0,2.0,2.0,6.0,8.0,12.041594578792296
713,733,5.0990195135927845,25.079872407968907,1.0,2.0,7.0,6.082762530298219,8.06225774829855,16.1245154965971,14.142135623730951,11.5,13.0,11.0,4.0,4.0,2.0,3.0,2.23606797749979,2.23606797749979,2.0,5.0,7.0,13.038404810405298
714,734,4.123105625617661,25.179356624028344,2.0,2.0,6.082762530298219,6.0,8.06225774829855,16.1245154965971,14.142135623730951,12.0,14.0,11.0,4.5,3.5,1.5,3.5,2.0,3.0,3.0,5.0,7.0,11.045361017187261
715,735,3.0,25.079872407968907,2.23606797749979,3.0,7.0,7.0710678118654755,7.0710678118654755,15.132745950421556,12.165525060596439,10.5,13.0,11.0,5.0,3.0,1.0,3.0,3.0,2.23606797749979,2.0,4.0,7.0,12.041594578792296
716,736,2.0,22.090722034374522,2.0,3.0,6.0,6.082762530298219,7.0710678118654755,14.035668847618199,11.045361017187261,10.0,13.0,11.0,5.0,2.0,1.0,3.0,2.23606797749979,3.1622776601683795,3.0,5.0,7.0,12.165525060596439
717,737,1.0,23.194827009486403,3.0,3.0,6.082762530298219,6.082762530298219,8.06225774829855,15.033296378372908,12.041594578792296,11.5,15.0,12.0,5.5,1.5,1.5,3.5,3.0,2.0,2.0,5.0,7.0,12.041594578792296
718,738,1.0,23.08679276123039,2.0,3.0,5.0990195135927845,6.082762530298219,9.055385138137417,14.142135623730951,11.180339887498949,11.0,14.0,12.0,4.0,1.0,1.0,3.0,2.0,2.0,2.5,4.0,6.0,12.041594578792296
719,739,1.0,24.186773244895647,2.23606797749979,2.0,6.082762530298219,6.082762530298219,8.06225774829855,13.152946437965905,11.180339887498949,10.5,14.0,11.0,4.5,0.5,1.5,2.5,3.0,2.0,2.0,5.0,7.0,12.0
720,740,1.0,22.090722034374522,3.0,2.23606797749979,5.0990195135927845,6.082762530298219,7.0710678118654755,13.152946437965905,11.045361017187261,10.5,13.0,11.0,5.0,1.0,1.0,3.0,2.0,2.0,2.0,5.0,7.0,11.045361017187261
721,741,1.0,22.20360331117452,2.0,2.23606797749979,6.0,6.0,8.06225774829855,13.152946437965905,11.045361017187261,10.5,14.0,11.0,4.5,0.5,1.5,2.5,2.0,3.0,3.0,4.0,6.0,11.045361017187261
722,742,1.0,22.20360331117452,3.0,3.0,6.082762530298219,6.082762530298219,7.0710678118654755,13.152946437965905,10.198039027185569,10.0,14.0,11.0,5.5,0.5,1.5,3.5,2.0,2.0,2.0,5.0,7.0,11.0
723,743,2.23606797749979,23.08679276123039,3.0,3.0,5.0,6.082762530298219,8.06225774829855,16.1245154965971,13.152946437965905,12.0,14.0,12.0,5.0,3.0,0.0,2.0,3.1622776601683795,3.0,2.5,5.0,7.0,11.045361017187261
724,744,3.1622776601683795,23.08679276123039,2.0,3.0,5.0,6.082762530298219,9.055385138137417,17.11724276862369,14.142135623730951,12.5,14.0,12.0,4.0,4.0,1.0,2.0,2.0,2.0,2.0,5.0,7.0,11.045361017187261
725,745,4.123105625617661,21.02379604162864,2.0,3.0,5.0,6.0,9.055385138137417,18.110770276274835,15.132745950421556,13.0,15.0,14.0,5.5,3.5,0.5,3.5,3.0,2.0,2.0,5.0,7.0,12.041594578792296
726,746,4.0,22.090722034374522,3.0,3.1622776601683795,6.082762530298219,7.0710678118654755,8.246211251235321,18.24828759089466,15.132745950421556,13.0,15.0,13.0,6.0,4.0,1.0,4.0,2.23606797749979,2.0,2.5,4.0,7.0,12.041594578792296
727,747,4.123105625617661,22.20360331117452,3.0,3.0,6.082762530298219,6.082762530298219,8.06225774829855,18.110770276274835,15.132745950421556,13.0,15.0,12.0,5.5,4.5,1.5,3.5,2.0,2.0,2.0,5.0,8.0,11.045361017187261
728,748,3.0,22.360679774997898,3.1622776601683795,3.1622776601683795,6.082762530298219,6.082762530298219,9.055385138137417,18.24828759089466,15.132745950421556,13.5,17.0,13.0,6.0,3.0,0.0,4.0,3.1622776601683795,3.1622776601683795,3.0,4.0,8.0,12.165525060596439
729,749,2.0,23.345235059857504,3.0,3.1622776601683795,6.082762530298219,6.082762530298219,9.219544457292887,17.26267650163207,14.142135623730951,13.0,16.0,12.0,5.0,3.0,0.0,3.0,2.0,2.0,2.5,4.0,8.0,12.041594578792296
730,750,2.0,23.345235059857504,2.23606797749979,3.1622776601683795,6.082762530298219,6.082762530298219,9.055385138137417,16.278820596099706,13.152946437965905,12.0,15.0,11.0,4.0,3.0,0.0,3.0,3.1622776601683795,2.0,2.0,4.0,9.0,12.165525060596439
731,751,2.0,23.345235059857504,3.1622776601683795,3.1622776601683795,6.082762530298219,6.324555320336759,8.06225774829855,16.278820596099706,13.152946437965905,12.0,15.0,11.0,5.0,3.0,1.0,3.0,2.0,2.23606797749979,2.0,4.0,8.0,11.180339887498949
732,752,2.23606797749979,22.561028345356956,2.0,2.23606797749979,6.082762530298219,6.082762530298219,9.219544457292887,15.524174696260024,13.341664064126334,12.0,16.0,11.0,4.5,1.5,0.5,3.5,2.23606797749979,2.0,2.0,4.0,9.0,11.180339887498949
733,753,2.0,22.561028345356956,2.23606797749979,2.23606797749979,6.082762530298219,6.082762530298219,9.055385138137417,15.297058540778355,13.152946437965905,12.0,16.0,11.0,4.5,1.5,0.5,2.5,2.0,2.0,2.0,3.0,9.0,12.041594578792296
