,video_id,frame_seq,time_seconds,m1,m3,m4,m5,m6,m7,m8,m9,m10,m11,m12,m13,m14,m15,m16,m17,e1,e2,e3,b1,b2,b3
0,59,217,7.240566666666676,5.0990195135927845,32.14031735997639,3.0,5.0990195135927845,8.06225774829855,9.055385138137417,8.06225774829855,21.213203435596427,16.1245154965971,13.5,14.0,11.0,4.5,8.5,3.5,2.5,3.1622776601683795,3.0,3.5,9.0,13.0,10.198039027185569
1,59,218,7.273933333333343,4.123105625617661,30.14962686336267,3.0,6.0,8.06225774829855,9.055385138137417,6.082762530298219,19.1049731745428,13.152946437965905,11.0,13.0,10.0,5.5,7.5,1.5,2.5,4.0,4.123105625617661,3.5,9.0,12.0,10.04987562112089
2,59,219,7.3073000000000095,3.0,29.068883707497267,3.0,5.0990195135927845,9.0,9.055385138137417,6.324555320336759,17.26267650163207,12.165525060596439,10.5,12.0,10.0,5.0,6.0,1.0,2.0,4.0,3.0,3.0,8.0,10.0,11.0
3,59,220,7.340666666666676,2.0,29.068883707497267,3.0,6.0,8.0,9.0,6.324555320336759,17.11724276862369,11.180339887498949,10.0,12.0,10.0,5.0,6.0,0.0,2.0,4.0,4.0,4.0,8.0,9.0,10.0
4,59,221,7.374033333333343,1.4142135623730951,28.071337695236398,3.0,5.0,8.06225774829855,8.0,6.324555320336759,15.297058540778355,10.44030650891055,9.5,11.0,9.0,4.0,5.0,0.0,2.0,3.1622776601683795,3.0,3.0,8.0,9.0,9.0
5,59,222,7.40740000000001,2.0,27.018512172212592,3.0,4.0,7.0,8.0,5.385164807134504,14.142135623730951,10.198039027185569,9.0,10.0,9.0,4.5,4.5,0.5,1.5,3.0,3.0,3.0,9.0,9.0,8.0
6,59,223,7.440766666666676,1.0,26.019223662515376,3.0,5.0,8.0,7.0,5.385164807134504,14.142135623730951,9.219544457292887,8.5,10.0,9.0,4.5,4.5,0.5,1.5,3.1622776601683795,3.0,3.0,7.0,8.0,8.0
7,59,224,7.474133333333343,2.0,26.019223662515376,3.0,4.123105625617661,8.0,7.0,5.385164807134504,14.317821063276353,10.198039027185569,9.0,10.0,9.0,4.5,4.5,0.5,1.5,3.1622776601683795,3.0,3.0,7.0,7.0,8.06225774829855
8,59,225,7.50750000000001,1.0,25.019992006393608,3.0,5.0,7.0,8.06225774829855,5.385164807134504,14.142135623730951,9.219544457292887,8.5,10.0,9.0,4.5,4.5,0.5,1.5,2.23606797749979,3.0,3.0,7.0,8.0,7.0710678118654755
9,59,226,7.540866666666677,1.0,24.020824298928627,3.0,5.0990195135927845,7.0,7.0,5.385164807134504,14.317821063276353,9.219544457292887,8.5,10.0,9.0,4.5,4.5,0.5,1.5,3.0,2.0,2.0,7.0,8.0,7.0
10,59,227,7.574233333333344,1.0,22.02271554554524,3.0,5.0990195135927845,6.0,7.0,4.47213595499958,13.341664064126334,8.246211251235321,7.5,9.0,8.0,4.5,4.5,0.5,1.5,2.0,3.0,3.0,5.0,7.0,7.0710678118654755
11,59,228,7.60760000000001,1.4142135623730951,21.02379604162864,2.23606797749979,5.0990195135927845,7.0,6.082762530298219,4.123105625617661,12.165525060596439,7.0710678118654755,6.5,8.0,7.0,3.5,4.5,0.5,1.5,3.0,2.0,2.0,6.0,7.0,7.0
12,59,229,7.640966666666677,1.0,22.0,2.0,4.0,6.0,7.0,4.123105625617661,11.045361017187261,7.0710678118654755,6.5,7.0,7.0,3.0,4.0,0.0,1.0,3.0,3.0,2.5,6.0,6.0,7.0710678118654755
13,59,230,7.674333333333344,1.4142135623730951,18.110770276274835,2.0,4.0,6.0,6.0,4.123105625617661,11.180339887498949,7.280109889280518,6.5,9.0,7.0,4.0,3.0,1.0,2.0,3.0,2.0,2.0,6.0,6.0,7.0710678118654755
14,59,231,7.707700000000011,2.0,20.0,2.0,4.0,6.0,6.0,4.47213595499958,12.165525060596439,8.246211251235321,7.0,8.0,8.0,4.0,4.0,1.0,2.0,2.23606797749979,2.0,2.0,6.0,6.0,6.0
15,59,232,7.741066666666677,2.0,17.029386365926403,2.0,3.0,5.0,5.0,7.0710678118654755,10.04987562112089,7.0710678118654755,8.0,11.0,10.0,3.5,0.5,3.5,1.5,3.1622776601683795,2.0,2.0,6.0,6.0,6.0
16,59,299,9.976633333333298,24.0,84.29116205154607,5.0,11.0,22.02271554554524,24.08318915758459,17.029386365926403,57.0087712549569,46.010868281309364,34.0,20.0,27.0,6.5,33.5,19.5,1.5,8.06225774829855,7.0,7.0,36.0,21.0,36.013886210738214
17,59,366,12.212199999999912,5.0990195135927845,40.311288741492746,4.123105625617661,8.06225774829855,10.04987562112089,11.045361017187261,11.180339887498949,28.442925306655784,20.396078054371138,17.5,14.0,9.0,0.5,16.5,7.5,2.5,2.23606797749979,2.8284271247461903,2.0,12.0,20.0,19.235384061671343
18,59,367,12.245566666666578,5.0,38.3275357934736,4.123105625617661,8.246211251235321,10.04987562112089,11.045361017187261,10.198039027185569,27.459060435491963,19.235384061671343,16.5,14.0,9.0,1.5,15.5,6.5,1.5,2.0,2.23606797749979,1.5,11.0,19.0,18.24828759089466
19,59,368,12.278933333333244,4.0,37.12142238654117,4.123105625617661,8.06225774829855,10.04987562112089,11.045361017187261,10.198039027185569,26.30589287593181,18.24828759089466,16.0,12.0,9.0,0.5,15.5,7.5,2.5,1.4142135623730951,2.23606797749979,2.0,11.0,19.0,18.110770276274835
20,59,369,12.31229999999991,4.0,35.22782990761707,4.123105625617661,8.06225774829855,9.055385138137417,10.04987562112089,10.198039027185569,26.30589287593181,18.24828759089466,16.0,13.0,9.0,1.0,15.0,6.0,2.0,2.23606797749979,2.8284271247461903,2.0,11.0,18.0,16.1245154965971
21,59,369,12.31229999999991,5.0,30.59411708155671,2.23606797749979,5.0990195135927845,7.0710678118654755,8.246211251235321,8.0,20.09975124224178,15.033296378372908,12.5,6.0,12.0,1.0,11.0,4.0,1.0,2.23606797749979,2.23606797749979,2.0,16.0,8.0,14.142135623730951
22,59,370,12.345666666666576,3.0,33.37663853655727,4.123105625617661,8.06225774829855,9.055385138137417,10.04987562112089,9.219544457292887,24.331050121192877,16.278820596099706,14.5,13.0,8.0,1.5,13.5,5.5,1.5,1.4142135623730951,2.8284271247461903,2.0,10.0,17.0,16.1245154965971
23,59,370,12.345666666666576,5.0,29.427877939124322,2.0,5.0990195135927845,7.280109889280518,8.246211251235321,8.06225774829855,20.09975124224178,15.033296378372908,12.5,6.0,11.0,0.5,11.5,4.5,1.5,2.23606797749979,2.0,2.0,15.0,7.0,14.142135623730951
24,59,371,12.379033333333242,3.1622776601683795,34.23448553724738,4.0,7.0,9.055385138137417,9.0,9.219544457292887,23.194827009486403,16.278820596099706,14.5,12.0,8.0,1.0,13.0,6.0,2.0,1.0,2.8284271247461903,1.5,9.0,16.0,16.1245154965971
25,59,371,12.379033333333242,5.0990195135927845,27.65863337187866,2.0,4.0,7.0710678118654755,8.246211251235321,7.0710678118654755,18.110770276274835,14.142135623730951,11.5,5.0,11.0,1.0,10.0,4.0,1.0,2.23606797749979,2.0,2.0,15.0,7.0,15.297058540778355
26,59,372,12.412399999999908,3.0,33.13608305156178,4.123105625617661,7.0710678118654755,9.0,9.055385138137417,9.055385138137417,23.194827009486403,16.1245154965971,14.5,11.0,8.0,0.5,13.5,6.5,2.5,2.23606797749979,2.23606797749979,1.0,10.0,16.0,16.1245154965971
27,59,372,12.412399999999908,5.0,27.65863337187866,2.23606797749979,4.123105625617661,7.0710678118654755,7.280109889280518,6.0,17.11724276862369,13.038404810405298,10.5,4.0,10.0,1.0,10.0,4.0,1.0,2.23606797749979,2.0,2.0,15.0,8.0,13.152946437965905
28,59,373,12.445766666666572,5.0,25.495097567963924,3.1622776601683795,5.0990195135927845,7.280109889280518,7.280109889280518,6.0,19.1049731745428,14.035668847618199,11.5,6.0,11.0,2.5,10.5,4.5,0.5,2.23606797749979,3.1622776601683795,2.5,14.0,7.0,13.152946437965905
29,59,373,12.445766666666572,4.0,33.24154027718932,3.1622776601683795,7.0710678118654755,9.055385138137417,9.055385138137417,8.06225774829855,22.20360331117452,15.132745950421556,13.0,10.0,6.0,0.0,14.0,7.0,2.0,2.23606797749979,1.4142135623730951,1.5,9.0,15.0,15.132745950421556
30,59,374,12.47913333333324,3.0,30.265491900843113,3.0,7.0710678118654755,8.06225774829855,9.055385138137417,9.219544457292887,22.20360331117452,15.132745950421556,13.5,12.0,8.0,1.0,12.0,5.0,1.0,1.0,2.8284271247461903,2.0,8.0,14.0,15.132745950421556
31,59,374,12.47913333333324,5.0990195135927845,28.635642126552707,3.0,7.0,10.198039027185569,10.198039027185569,4.0,19.026297590440446,12.041594578792296,9.5,4.0,10.0,3.0,12.0,3.0,0.0,1.4142135623730951,2.23606797749979,2.0,15.0,8.0,12.165525060596439
32,59,375,12.512499999999903,2.0,30.14962686336267,4.0,7.0710678118654755,8.0,8.06225774829855,8.246211251235321,21.213203435596427,14.142135623730951,13.0,10.0,7.0,0.5,12.5,5.5,2.5,2.23606797749979,1.4142135623730951,1.0,8.0,15.0,15.132745950421556
33,59,375,12.512499999999903,4.0,24.515301344262525,2.23606797749979,4.0,6.324555320336759,7.0710678118654755,6.0,16.0312195418814,12.041594578792296,10.0,4.0,9.0,0.5,9.5,4.5,1.5,1.4142135623730951,2.0,1.5,13.0,7.0,13.152946437965905
34,59,376,12.545866666666573,3.0,30.14962686336267,3.0,6.082762530298219,8.06225774829855,8.0,8.246211251235321,20.223748416156685,14.142135623730951,12.5,10.0,7.0,0.5,11.5,5.5,1.5,2.0,2.23606797749979,2.0,8.0,14.0,14.035668847618199
35,59,377,12.579233333333235,2.0,29.427877939124322,3.1622776601683795,6.082762530298219,7.0710678118654755,8.0,8.246211251235321,19.4164878389476,13.341664064126334,12.0,10.0,5.0,0.5,11.5,5.5,2.5,2.0,1.4142135623730951,1.0,8.0,14.0,13.152946437965905
36,59,378,12.612599999999905,4.0,29.274562336608895,2.0,5.0990195135927845,8.0,8.06225774829855,8.246211251235321,19.235384061671343,14.142135623730951,12.0,10.0,6.0,0.0,11.0,5.0,2.0,1.0,1.4142135623730951,1.0,7.0,14.0,14.142135623730951
37,59,379,12.645966666666569,3.0,26.1725046566048,2.0,6.082762530298219,7.0710678118654755,8.0,8.246211251235321,19.235384061671343,13.152946437965905,11.5,9.0,6.0,0.5,11.5,5.5,1.5,1.0,1.4142135623730951,1.5,8.0,13.0,13.152946437965905
38,59,380,12.679333333333236,3.0,27.16615541441225,2.23606797749979,6.0,7.0,8.06225774829855,7.0710678118654755,18.110770276274835,12.165525060596439,10.5,8.0,5.0,0.5,11.5,5.5,2.5,1.0,1.4142135623730951,1.0,8.0,13.0,13.152946437965905
39,59,381,12.7126999999999,2.0,26.1725046566048,2.0,6.082762530298219,6.0,8.0,8.246211251235321,18.24828759089466,12.165525060596439,11.0,9.0,6.0,0.5,10.5,4.5,2.5,1.4142135623730951,1.4142135623730951,1.5,8.0,13.0,12.041594578792296
40,59,382,12.746066666666566,3.0,25.079872407968907,2.23606797749979,5.0,7.0,7.0710678118654755,7.0710678118654755,17.11724276862369,12.165525060596439,10.5,8.0,6.0,0.0,10.0,5.0,2.0,1.0,1.4142135623730951,1.0,7.0,12.0,12.165525060596439
41,59,383,12.779433333333232,2.0,26.1725046566048,2.0,5.0990195135927845,6.082762530298219,8.0,8.246211251235321,17.26267650163207,12.165525060596439,11.0,9.0,6.0,0.5,9.5,4.5,1.5,1.0,1.4142135623730951,1.0,7.0,12.0,12.041594578792296
42,59,384,12.812799999999898,3.0,24.186773244895647,2.0,5.0990195135927845,6.0,6.0,7.0710678118654755,17.11724276862369,12.041594578792296,10.5,9.0,6.0,0.5,9.5,4.5,1.5,1.4142135623730951,1.4142135623730951,1.0,6.0,12.0,12.041594578792296
43,59,396,13.213199999999889,1.4142135623730951,51.24451190127583,4.123105625617661,8.06225774829855,14.035668847618199,15.033296378372908,16.278820596099706,29.614185789921695,21.587033144922902,20.5,14.0,19.0,0.5,12.5,3.5,3.5,4.0,4.0,4.0,15.0,9.0,15.132745950421556
44,59,397,13.246566666666554,1.0,50.15974481593781,4.123105625617661,8.0,14.035668847618199,15.033296378372908,16.1245154965971,28.284271247461902,20.396078054371138,20.0,14.0,18.0,0.0,12.0,3.0,4.0,3.1622776601683795,4.0,4.0,13.0,7.0,15.132745950421556
45,59,398,13.27993333333322,1.0,49.16299421312742,4.0,7.0710678118654755,14.035668847618199,15.033296378372908,15.297058540778355,26.476404589747453,19.4164878389476,19.0,13.0,17.0,0.0,11.0,3.0,3.0,3.0,3.0,3.0,13.0,8.0,15.033296378372908
46,59,399,13.313299999999886,1.4142135623730951,44.181444068749045,3.0,7.0710678118654755,12.041594578792296,13.038404810405298,14.142135623730951,25.317977802344327,18.24828759089466,17.5,13.0,17.0,1.0,10.0,2.0,2.0,3.1622776601683795,4.0,3.5,12.0,6.0,13.038404810405298
47,59,400,13.346666666666552,1.4142135623730951,43.104524124504614,3.0,6.082762530298219,12.041594578792296,12.0,13.152946437965905,23.345235059857504,17.26267650163207,16.5,12.0,15.0,0.5,9.5,2.5,2.5,2.0,3.1622776601683795,2.5,11.0,7.0,12.041594578792296
48,59,401,13.380033333333218,1.0,40.311288741492746,3.0,7.0,12.041594578792296,13.038404810405298,13.341664064126334,23.345235059857504,16.492422502470642,16.0,11.0,16.0,0.5,9.5,1.5,2.5,2.0,2.0,2.0,10.0,5.0,12.041594578792296
49,59,402,13.413399999999884,1.4142135623730951,38.118237105091836,3.0,5.0,12.041594578792296,12.041594578792296,12.165525060596439,21.213203435596427,16.278820596099706,15.5,11.0,14.0,0.5,8.5,1.5,2.5,3.0,3.0,2.5,9.0,5.0,12.041594578792296
50,59,402,13.413399999999884,1.0,22.0,2.0,2.0,7.0,7.0,6.082762530298219,11.045361017187261,9.055385138137417,8.5,8.0,8.0,2.0,3.0,0.0,0.0,3.0,3.1622776601683795,3.0,8.0,7.0,10.0
51,59,403,13.44676666666655,0.0,38.2099463490856,3.1622776601683795,6.082762530298219,11.045361017187261,12.041594578792296,12.165525060596439,21.37755832643195,15.297058540778355,15.0,11.0,15.0,1.0,8.0,1.0,2.0,2.23606797749979,3.0,2.5,10.0,5.0,11.180339887498949
52,59,403,13.44676666666655,0.0,21.02379604162864,3.0,3.0,7.0,7.0710678118654755,5.0,11.0,8.0,8.0,9.0,8.0,3.5,2.5,0.5,1.5,2.23606797749979,3.0,3.0,7.0,7.0,9.0
53,59,404,13.480133333333216,1.0,36.124783736376884,2.23606797749979,5.0990195135927845,11.045361017187261,11.045361017187261,11.180339887498949,19.4164878389476,14.317821063276353,13.5,10.0,13.0,0.5,7.5,1.5,1.5,3.0,3.0,3.0,9.0,5.0,11.180339887498949
54,59,404,13.480133333333216,1.0,20.0,2.0,3.0,5.0,6.0,5.0990195135927845,10.0,7.0,7.0,7.0,7.0,2.0,3.0,0.0,0.0,2.0,3.0,3.0,8.0,8.0,9.055385138137417
55,59,405,13.51349999999988,1.0,20.0,2.0,2.0,6.0,6.0,5.0,10.0,8.0,7.5,8.0,8.0,3.0,2.0,0.0,1.0,3.0,3.0,3.0,7.0,7.0,9.055385138137417
56,59,405,13.51349999999988,1.4142135623730951,34.132096331752024,3.1622776601683795,5.0,10.04987562112089,10.0,10.04987562112089,19.235384061671343,14.317821063276353,13.5,10.0,13.0,1.5,7.5,1.5,1.5,2.0,2.0,2.0,9.0,5.0,10.04987562112089
57,59,406,13.546866666666547,1.4142135623730951,32.14031735997639,2.0,4.0,10.04987562112089,10.0,10.198039027185569,17.26267650163207,13.341664064126334,12.5,8.0,11.0,0.5,7.5,2.5,2.5,2.0,2.0,2.0,8.0,5.0,9.0
58,59,406,13.546866666666547,1.4142135623730951,18.0,2.0,2.0,6.0,6.0,5.0,10.04987562112089,8.06225774829855,7.5,9.0,9.0,4.0,1.0,1.0,2.0,2.0,2.0,2.0,7.0,7.0,7.0710678118654755
59,59,407,13.580233333333211,1.0,33.06055050963308,3.0,5.0,9.055385138137417,9.055385138137417,9.055385138137417,17.11724276862369,12.165525060596439,12.0,9.0,11.0,1.0,7.0,2.0,2.0,2.0,2.23606797749979,2.0,8.0,4.0,9.055385138137417
60,59,407,13.580233333333211,1.0,18.027756377319946,1.0,2.0,6.0,6.0,5.0990195135927845,9.055385138137417,7.0710678118654755,6.5,8.0,7.0,2.5,1.5,0.5,1.5,2.0,2.0,2.0,6.0,6.0,8.06225774829855
61,59,408,13.61359999999988,1.4142135623730951,30.14962686336267,2.0,4.0,9.055385138137417,9.055385138137417,9.219544457292887,16.278820596099706,12.36931687685298,11.5,8.0,11.0,0.5,6.5,1.5,1.5,1.4142135623730951,2.0,2.0,7.0,4.0,9.219544457292887
62,59,408,13.61359999999988,1.0,18.0,2.23606797749979,2.0,5.0,6.0,4.123105625617661,9.0,7.0,6.5,7.0,7.0,3.0,2.0,1.0,1.0,1.0,2.0,1.5,6.0,6.0,8.06225774829855
63,59,409,13.646966666666543,1.0,29.154759474226502,2.23606797749979,4.123105625617661,9.055385138137417,9.055385138137417,9.055385138137417,16.278820596099706,12.165525060596439,11.5,8.0,11.0,0.5,6.5,1.5,1.5,1.0,2.0,2.0,8.0,4.0,9.055385138137417
64,59,410,13.68033333333321,1.0,27.16615541441225,3.0,4.0,8.0,9.055385138137417,8.06225774829855,15.132745950421556,11.180339887498949,11.0,7.0,10.0,0.5,6.5,1.5,1.5,2.0,2.0,1.5,8.0,5.0,8.0
65,59,411,13.713699999999877,1.0,27.073972741361768,2.23606797749979,3.1622776601683795,8.06225774829855,9.0,9.055385138137417,15.297058540778355,12.165525060596439,11.5,8.0,10.0,0.0,6.0,2.0,2.0,1.0,1.0,1.5,8.0,4.0,8.06225774829855
66,59,412,13.747066666666544,0.0,26.076809620810597,2.23606797749979,4.123105625617661,8.06225774829855,8.0,8.06225774829855,14.317821063276353,10.198039027185569,10.0,7.0,9.0,0.0,6.0,2.0,2.0,1.0,1.0,1.5,7.0,4.0,7.0
67,59,413,13.780433333333209,0.0,25.079872407968907,2.23606797749979,3.0,7.0710678118654755,7.0,8.06225774829855,13.152946437965905,10.198039027185569,10.0,7.0,9.0,0.0,5.0,1.0,2.0,2.23606797749979,1.4142135623730951,1.5,7.0,4.0,7.0710678118654755
68,59,414,13.813799999999874,1.0,24.186773244895647,2.0,3.1622776601683795,6.082762530298219,8.0,7.0710678118654755,13.152946437965905,10.04987562112089,9.5,6.0,9.0,0.5,5.5,1.5,1.5,1.4142135623730951,2.0,1.5,6.0,3.0,7.0710678118654755
69,59,415,13.84716666666654,1.0,24.08318915758459,2.0,3.0,7.0,8.0,8.06225774829855,13.152946437965905,10.198039027185569,10.0,7.0,9.0,0.0,5.0,1.0,1.0,1.4142135623730951,2.0,1.5,7.0,5.0,6.082762530298219
70,59,416,13.880533333333206,1.0,22.20360331117452,2.0,4.0,7.0710678118654755,8.06225774829855,7.0710678118654755,13.152946437965905,9.219544457292887,9.0,6.0,9.0,0.5,5.5,1.5,1.5,1.0,2.0,1.5,7.0,5.0,7.0710678118654755
71,59,702,23.42339999999965,9.0,99.50376877284599,7.0,13.038404810405298,24.186773244895647,26.1725046566048,17.029386365926403,46.04345773288535,33.015148038438355,28.5,20.0,30.0,8.0,21.0,5.0,1.0,9.055385138137417,9.0,9.0,27.0,23.0,28.0178514522438
72,59,703,23.456766666666315,5.0,94.19129471453293,10.0,13.038404810405298,23.08679276123039,25.079872407968907,24.331050121192877,52.23983154643591,39.20459156782532,36.5,36.0,42.0,15.0,13.0,2.0,5.0,8.06225774829855,9.055385138137417,8.5,33.0,35.0,40.049968789001575
73,59,704,23.49013333333298,4.123105625617661,91.19758768739445,8.06225774829855,12.041594578792296,23.021728866442675,25.079872407968907,30.14962686336267,54.147945482723536,42.1070065428546,40.0,40.0,46.0,13.0,11.0,2.0,5.0,8.0,9.055385138137417,9.0,30.0,33.0,49.09175083453431
74,59,705,23.523499999999647,4.0,93.34345183246653,9.055385138137417,13.038404810405298,22.090722034374522,24.08318915758459,31.016124838541646,57.07889277132134,44.04543109109048,42.0,41.0,49.0,14.0,12.0,2.0,5.0,10.04987562112089,9.219544457292887,9.0,38.0,26.0,34.23448553724738
75,59,706,23.556866666666316,5.0,93.26306878931231,8.06225774829855,12.041594578792296,23.021728866442675,24.08318915758459,31.016124838541646,56.08029957123981,44.04543109109048,41.5,40.0,47.0,12.5,12.5,0.5,4.5,8.0,8.246211251235321,7.5,36.0,25.0,31.144823004794873
76,59,707,23.59023333333298,5.0,91.26883367283708,7.0710678118654755,10.198039027185569,22.090722034374522,22.090722034374522,32.01562118716424,54.147945482723536,44.04543109109048,41.5,40.0,47.0,11.5,10.5,0.5,4.5,6.0,8.06225774829855,7.5,34.0,26.0,44.04543109109048
77,59,708,23.623599999999644,7.0,93.1933474020544,6.082762530298219,9.219544457292887,23.08679276123039,23.08679276123039,32.01562118716424,54.147945482723536,45.044422518220834,41.5,39.0,45.0,10.0,12.0,2.0,3.0,8.0,9.055385138137417,8.5,36.0,28.0,33.06055050963308
78,59,709,23.65696666666631,4.0,94.19129471453293,6.082762530298219,10.198039027185569,22.090722034374522,23.08679276123039,33.015148038438355,53.150729063673246,43.04648650006177,41.0,37.0,43.0,7.0,13.0,2.0,1.0,6.082762530298219,7.280109889280518,6.5,36.0,27.0,34.132096331752024
79,59,710,23.690333333332976,3.1622776601683795,95.25754563287887,7.0710678118654755,9.055385138137417,22.090722034374522,23.021728866442675,32.01562118716424,51.15662224971465,42.1070065428546,40.5,35.0,42.0,6.5,12.5,2.5,0.5,6.0,7.280109889280518,6.5,36.0,27.0,33.13608305156178
80,59,711,23.72369999999964,5.0990195135927845,98.12746812182611,9.055385138137417,11.180339887498949,24.08318915758459,25.079872407968907,28.0178514522438,53.23532661682466,42.1070065428546,39.5,33.0,38.0,7.5,17.5,4.5,1.5,6.082762530298219,7.0710678118654755,7.0,36.0,27.0,34.132096331752024
81,59,712,23.757066666666308,1.4142135623730951,95.08417323613851,7.0,8.06225774829855,23.08679276123039,24.020824298928627,31.016124838541646,47.095647357266465,39.05124837953327,38.5,31.0,35.0,2.0,14.0,3.0,4.0,7.0710678118654755,8.246211251235321,8.0,35.0,26.0,35.12833614050059
82,59,713,23.79043333333297,1.4142135623730951,98.02040603874276,8.06225774829855,10.04987562112089,25.019992006393608,25.019992006393608,26.0,45.0111097397076,35.0,34.5,30.0,32.0,5.0,14.0,2.0,2.0,9.055385138137417,10.04987562112089,10.0,35.0,28.0,35.12833614050059
83,59,714,23.82379999999964,0.0,96.02083107326243,10.0,12.041594578792296,25.019992006393608,26.019223662515376,23.0,45.0111097397076,33.0,33.0,30.0,32.0,8.0,14.0,0.0,1.0,9.055385138137417,10.04987562112089,10.0,34.0,28.0,37.12142238654117
84,59,715,23.857166666666306,1.0,94.02127418834527,8.06225774829855,11.0,26.0,27.018512172212592,27.018512172212592,47.0,36.0,35.5,30.0,32.0,4.0,16.0,2.0,2.0,9.055385138137417,8.06225774829855,8.0,35.0,29.0,32.0624390837628
85,59,716,23.89053333333297,4.0,90.0499861188218,5.0,13.038404810405298,25.0,26.019223662515376,31.0,53.009433122794285,40.0,38.0,30.0,33.0,0.5,21.5,5.5,2.5,8.06225774829855,9.055385138137417,9.0,35.0,29.0,34.058772731852805
86,59,717,23.92389999999964,7.0,91.0494371207203,5.0990195135927845,14.0,25.0,26.019223662515376,30.01666203960727,56.0,42.0,38.5,29.0,32.0,0.5,25.5,8.5,2.5,10.04987562112089,11.0,10.5,35.0,29.0,34.0147027033899
87,59,718,23.957266666666303,2.23606797749979,97.082439194738,7.0,12.041594578792296,26.019223662515376,27.018512172212592,28.0,49.040799340956916,37.013511046643494,36.0,24.0,28.0,2.0,23.0,8.0,7.0,8.06225774829855,9.0,9.0,35.0,29.0,35.12833614050059
88,59,719,23.99063333333297,1.4142135623730951,100.07996802557443,9.0,12.041594578792296,28.0,28.0,24.0,44.04543109109048,32.01562118716424,32.5,21.0,25.0,1.0,21.0,6.0,7.0,9.219544457292887,9.0,9.5,35.0,29.0,37.12142238654117
89,59,720,24.023999999999635,2.23606797749979,103.04368005850722,8.0,10.04987562112089,28.0,29.0,21.02379604162864,41.10960958218893,31.064449134018133,30.0,20.0,23.0,0.5,19.5,5.5,5.5,10.198039027185569,10.0,10.0,35.0,28.0,31.144823004794873
90,59,721,24.0573666666663,1.0,102.04410811016969,9.0,13.038404810405298,27.018512172212592,28.0,19.0,41.048751503547585,28.0178514522438,28.0,18.0,21.0,0.5,21.5,6.5,6.5,10.04987562112089,10.0,10.0,36.0,29.0,32.14031735997639
91,59,722,24.090733333332967,1.0,103.07764064044152,8.0,11.045361017187261,27.0,29.0,19.0,38.05259518088089,27.018512172212592,27.0,18.0,22.0,1.0,18.0,4.0,5.0,10.04987562112089,10.0,10.0,36.0,28.0,33.06055050963308
92,59,723,24.124099999999636,1.0,103.07764064044152,8.0,13.0,28.0178514522438,29.0,19.0,40.01249804748511,27.018512172212592,27.0,17.0,21.0,0.0,21.0,5.0,6.0,10.04987562112089,10.0,10.0,36.0,28.0,33.13608305156178
93,59,724,24.1574666666663,1.0,104.12012293500234,8.06225774829855,13.038404810405298,28.0178514522438,30.01666203960727,20.0,40.049968789001575,27.018512172212592,27.5,16.0,21.0,1.5,21.5,5.5,7.5,10.04987562112089,10.0,9.5,37.0,28.0,33.13608305156178
94,59,725,24.190833333332964,1.0,102.17631819555841,6.0,12.165525060596439,27.073972741361768,28.0178514522438,24.0,42.1070065428546,30.01666203960727,30.0,16.0,22.0,5.0,23.0,8.0,9.0,9.219544457292887,10.0,10.0,37.0,27.0,34.132096331752024
95,59,726,24.22419999999963,2.23606797749979,100.24470060806208,5.0990195135927845,11.045361017187261,27.073972741361768,28.071337695236398,26.019223662515376,44.181444068749045,33.13608305156178,32.0,17.0,24.0,5.5,23.5,8.5,8.5,9.219544457292887,10.04987562112089,10.0,36.0,27.0,34.23448553724738
96,59,727,24.257566666666296,3.605551275463989,100.24470060806208,4.0,11.045361017187261,28.0178514522438,29.017236257093817,27.073972741361768,45.27692569068709,34.23448553724738,32.5,18.0,25.0,5.5,23.5,8.5,7.5,7.0710678118654755,8.0,8.0,36.0,25.0,33.24154027718932
97,59,728,24.29093333333296,3.1622776601683795,98.18350166906862,5.0,12.165525060596439,29.017236257093817,30.01666203960727,26.076809620810597,46.2709412050371,34.132096331752024,32.5,20.0,26.0,3.0,23.0,8.0,6.0,6.082762530298219,7.0710678118654755,7.0,35.0,25.0,38.118237105091836
98,59,729,24.324299999999628,7.0710678118654755,98.2496819333274,3.0,12.041594578792296,28.0178514522438,30.01666203960727,27.073972741361768,49.16299421312742,37.12142238654117,33.5,20.0,27.0,3.5,25.5,9.5,4.5,6.082762530298219,7.0,7.0,33.0,24.0,33.13608305156178
99,59,730,24.357666666666294,8.06225774829855,98.32598842625484,4.123105625617661,12.041594578792296,26.019223662515376,28.071337695236398,28.160255680657446,52.3450093132096,40.311288741492746,36.0,21.0,29.0,3.0,27.0,11.0,5.0,9.055385138137417,9.055385138137417,9.0,38.0,27.0,31.25699921617557
100,59,731,24.39103333333296,7.0710678118654755,96.33275663033837,4.0,12.041594578792296,25.019992006393608,26.076809620810597,29.274562336608895,52.3450093132096,40.311288741492746,36.5,22.0,30.0,3.0,26.0,10.0,5.0,8.06225774829855,10.04987562112089,10.0,36.0,25.0,30.14962686336267
101,59,732,24.424399999999626,6.082762530298219,93.34345183246653,3.1622776601683795,12.041594578792296,25.079872407968907,26.076809620810597,30.14962686336267,51.35172830587107,39.319206502675,36.0,23.0,31.0,3.0,24.0,9.0,5.0,9.219544457292887,10.04987562112089,10.0,37.0,25.0,35.12833614050059
102,59,733,24.45776666666629,6.082762530298219,90.55385138137417,5.0990195135927845,12.041594578792296,23.08679276123039,24.186773244895647,29.274562336608895,52.46903848937962,40.44749683231337,37.0,23.0,33.0,1.0,24.0,9.0,5.0,10.198039027185569,10.04987562112089,10.5,38.0,25.0,34.23448553724738
103,59,734,24.49113333333296,6.082762530298219,91.54780172128658,5.0990195135927845,11.180339887498949,23.08679276123039,24.186773244895647,30.4138126514911,52.773099207835045,41.593268686170845,38.0,25.0,35.0,0.0,22.0,8.0,4.0,11.180339887498949,11.045361017187261,12.0,38.0,24.0,34.23448553724738
104,59,735,24.524499999999623,8.06225774829855,92.77930803794561,4.123105625617661,12.165525060596439,23.194827009486403,25.179356624028344,30.59411708155671,54.91812087098393,42.7551166528639,38.0,24.0,36.0,0.0,24.0,9.0,4.0,11.180339887498949,11.180339887498949,12.0,41.0,24.0,31.400636936215164
105,59,736,24.55786666666629,7.0710678118654755,94.04786015641186,4.123105625617661,12.36931687685298,23.194827009486403,24.515301344262525,31.04834939252005,54.57105459856901,42.20189569201838,37.5,23.0,37.0,0.0,23.0,8.0,4.0,11.180339887498949,11.180339887498949,11.5,39.0,22.0,33.54101966249684
106,59,737,24.591233333332955,7.0710678118654755,94.2019108086455,5.385164807134504,12.36931687685298,22.20360331117452,24.331050121192877,29.832867780352597,54.57105459856901,42.20189569201838,37.5,23.0,38.0,1.5,22.5,7.5,3.5,10.198039027185569,11.180339887498949,11.0,39.0,21.0,31.575306807693888
107,59,738,24.62459999999962,7.0710678118654755,95.1892851112981,6.324555320336759,11.40175425099138,24.331050121192877,25.495097567963924,28.861739379323623,53.600373133029585,42.20189569201838,37.5,23.0,38.0,2.5,21.5,7.5,4.5,12.165525060596439,11.40175425099138,11.5,42.0,21.0,36.6742416417845
108,59,739,24.657966666666287,5.0990195135927845,96.0260381354974,6.082762530298219,11.40175425099138,24.331050121192877,24.331050121192877,30.083217912982647,52.630789467763066,41.23105625617661,37.5,24.0,38.0,2.0,20.0,6.0,5.0,10.198039027185569,11.40175425099138,11.0,39.0,19.0,34.713109915419565
109,59,740,24.691333333332956,9.219544457292887,98.3107318658548,5.0990195135927845,10.198039027185569,25.317977802344327,26.30589287593181,30.083217912982647,54.57105459856901,44.384682042344295,38.5,22.0,38.0,1.0,23.0,9.0,4.0,9.219544457292887,9.486832980505138,9.5,39.0,17.0,34.52535300326414
110,59,741,24.72469999999962,6.324555320336759,99.46356116689167,6.082762530298219,11.40175425099138,24.515301344262525,24.73863375370596,28.861739379323623,52.630789467763066,41.23105625617661,37.0,20.0,37.0,0.5,22.5,8.5,6.5,10.198039027185569,11.40175425099138,11.5,40.0,19.0,35.6931365951495
111,59,742,24.758066666666284,6.324555320336759,96.33794683301072,6.324555320336759,11.40175425099138,23.345235059857504,24.515301344262525,30.59411708155671,54.57105459856901,43.174066289845804,39.0,22.0,38.0,0.0,23.0,9.0,6.0,10.198039027185569,11.180339887498949,11.5,41.0,19.0,33.54101966249684
112,59,743,24.79143333333295,5.0990195135927845,97.32420048477151,5.385164807134504,10.44030650891055,21.37755832643195,22.561028345356956,31.400636936215164,52.172789842982326,41.773197148410844,38.5,21.0,37.0,2.0,22.0,9.0,7.0,10.44030650891055,10.198039027185569,10.5,41.0,19.0,36.87817782917155
113,59,744,24.824799999999616,4.0,95.35197952848173,5.385164807134504,9.486832980505138,21.37755832643195,22.561028345356956,33.54101966249684,52.172789842982326,42.7551166528639,40.0,22.0,38.0,3.0,21.0,8.0,8.0,9.486832980505138,9.219544457292887,9.5,41.0,18.0,32.984845004941285
114,59,745,24.85816666666628,2.0,96.33794683301072,4.47213595499958,10.44030650891055,21.37755832643195,22.561028345356956,34.36568055487916,50.99019513592785,40.607881008493905,39.0,22.0,38.0,4.0,20.0,6.0,9.0,8.54400374531753,8.54400374531753,8.5,41.0,18.0,32.984845004941285
115,59,746,24.891533333332948,2.23606797749979,98.65596788841515,6.082762530298219,10.44030650891055,24.331050121192877,25.709920264364882,31.400636936215164,50.00999900019995,39.6232255123179,38.0,19.0,37.0,3.0,21.0,7.0,9.0,9.219544457292887,9.219544457292887,9.5,42.0,18.0,32.984845004941285
116,59,747,24.924899999999614,2.0,96.6902270139025,5.385164807134504,10.44030650891055,23.53720459187964,24.73863375370596,31.400636936215164,49.03060268852505,38.63935817272331,37.0,19.0,37.0,3.0,20.0,6.0,9.0,10.198039027185569,10.198039027185569,10.5,41.0,18.0,36.87817782917155
117,59,748,24.95826666666628,3.1622776601683795,97.49358953285082,5.0990195135927845,11.180339887498949,20.396078054371138,22.561028345356956,32.2490309931942,51.62363799656123,40.44749683231337,38.5,20.0,37.0,3.5,22.5,8.5,8.5,8.246211251235321,8.246211251235321,8.5,39.0,17.0,34.92849839314596
118,59,749,24.991633333332945,6.0,96.5090669315583,5.385164807134504,11.40175425099138,21.37755832643195,23.769728648009426,30.14962686336267,52.61178575186362,41.30375285612676,38.0,20.0,37.0,1.5,23.5,9.5,7.5,12.36931687685298,12.165525060596439,12.5,41.0,19.0,36.6742416417845
119,59,750,25.02499999999961,7.0,97.32420048477151,6.324555320336759,11.180339887498949,21.37755832643195,22.80350850198276,30.14962686336267,54.45181356024793,43.289721643826724,39.5,23.0,39.0,1.0,23.0,9.0,6.0,10.198039027185569,9.219544457292887,10.0,40.0,20.0,35.6931365951495
120,59,751,25.05836666666628,9.0,95.1892851112981,6.324555320336759,11.180339887498949,19.235384061671343,21.840329667841555,31.144823004794873,57.42821606144492,46.2709412050371,41.5,25.0,40.0,1.5,24.5,10.5,5.5,10.198039027185569,9.219544457292887,9.0,42.0,22.0,34.36568055487916
121,59,752,25.091733333332943,9.055385138137417,95.1892851112981,6.082762530298219,11.180339887498949,20.396078054371138,21.840329667841555,31.25699921617557,57.55866572463264,46.389654018972806,41.5,25.0,40.0,1.5,24.5,10.5,5.5,8.246211251235321,8.54400374531753,8.5,39.0,19.0,35.35533905932738
122,59,753,25.12509999999961,7.0710678118654755,90.4267659490264,6.324555320336759,10.198039027185569,19.4164878389476,21.587033144922902,32.14031735997639,55.57877292636101,45.39823785126467,41.5,25.0,41.0,1.0,22.0,9.0,6.0,4.47213595499958,5.830951894845301,5.0,40.0,20.0,34.36568055487916
123,59,754,25.158466666666275,4.123105625617661,93.55746896961247,7.0710678118654755,10.44030650891055,22.561028345356956,23.769728648009426,31.400636936215164,52.952809179494906,42.579337712087536,40.0,23.0,40.0,0.5,20.5,6.5,7.5,3.605551275463989,6.708203932499369,6.0,40.0,19.0,36.6742416417845
124,59,755,25.19183333333294,7.0710678118654755,90.60905032059435,6.082762530298219,10.44030650891055,22.360679774997898,23.769728648009426,31.25699921617557,54.74486277268398,44.40720662234904,40.5,24.0,41.0,1.5,21.5,7.5,4.5,4.47213595499958,5.656854249492381,4.0,40.0,19.0,31.78049716414141
125,59,756,25.225199999999607,11.180339887498949,91.78235124467012,5.385164807134504,11.40175425099138,22.360679774997898,24.73863375370596,31.144823004794873,58.855755878248644,47.51841748206689,41.5,25.0,43.0,3.0,24.0,9.0,3.0,5.385164807134504,6.4031242374328485,5.5,40.0,19.0,33.734255586866
126,59,757,25.258566666666272,11.180339887498949,92.57429448826494,7.280109889280518,12.165525060596439,22.561028345356956,23.769728648009426,30.4138126514911,61.0,48.83646178829912,42.5,28.0,45.0,6.5,23.5,8.5,2.5,6.324555320336759,8.246211251235321,7.5,42.0,22.0,33.734255586866
127,59,758,25.29193333333294,14.142135623730951,96.5090669315583,6.324555320336759,11.40175425099138,25.495097567963924,26.68332812825267,28.635642126552707,60.41522986797286,49.03060268852505,41.0,27.0,44.0,7.5,23.5,8.5,0.5,7.280109889280518,8.246211251235321,8.5,41.0,18.0,36.87817782917155
128,59,759,25.325299999999604,13.152946437965905,97.49358953285082,6.324555320336759,11.40175425099138,24.515301344262525,26.68332812825267,28.635642126552707,59.43904440685432,48.05205510693585,40.5,26.0,43.0,6.5,23.5,8.5,0.5,8.246211251235321,8.54400374531753,8.5,40.0,19.0,35.510561809129406
129,59,760,25.35866666666627,12.041594578792296,96.88137075826292,7.280109889280518,13.601470508735444,25.495097567963924,27.65863337187866,27.65863337187866,60.41522986797286,46.87216658103186,40.0,25.0,44.0,7.5,24.5,7.5,0.5,8.246211251235321,9.219544457292887,9.0,40.0,20.0,38.63935817272331
130,59,761,25.392033333332936,11.045361017187261,96.5090669315583,7.280109889280518,12.36931687685298,25.495097567963924,26.68332812825267,28.442925306655784,59.033888572581766,46.69047011971501,40.5,26.0,43.0,6.5,23.5,7.5,1.5,8.246211251235321,8.54400374531753,8.5,39.0,18.0,37.656340767525464
131,59,762,25.4253999999996,7.0710678118654755,94.36630754670864,5.385164807134504,12.36931687685298,22.360679774997898,23.53720459187964,30.265491900843113,54.91812087098393,42.579337712087536,38.5,25.0,41.0,3.0,21.0,5.0,3.0,8.54400374531753,9.219544457292887,9.5,40.0,20.0,34.92849839314596
132,59,763,25.458766666666268,4.123105625617661,93.2148056909416,5.385164807134504,10.198039027185569,22.20360331117452,23.345235059857504,31.400636936215164,50.99019513592785,40.792156108742276,38.0,24.0,39.0,0.5,18.5,5.5,4.5,9.219544457292887,9.486832980505138,9.0,40.0,19.0,33.734255586866
133,59,764,25.492133333332934,3.1622776601683795,93.2148056909416,6.324555320336759,11.180339887498949,23.345235059857504,24.331050121192877,30.4138126514911,50.99019513592785,39.81205847478876,37.5,24.0,39.0,1.5,18.5,4.5,5.5,13.152946437965905,12.165525060596439,12.5,40.0,18.0,37.48332962798263
134,59,765,25.5254999999996,1.0,89.26925562588724,6.324555320336759,12.36931687685298,22.20360331117452,23.345235059857504,31.25699921617557,50.80354318352215,38.47076812334269,37.5,25.0,40.0,1.5,17.5,2.5,4.5,13.152946437965905,13.152946437965905,13.5,40.0,19.0,35.6931365951495
135,59,766,25.558866666666265,5.0990195135927845,87.96590248499699,6.324555320336759,12.165525060596439,21.213203435596427,22.20360331117452,30.14962686336267,53.600373133029585,41.43669871020132,38.5,26.0,39.0,2.5,20.5,5.5,3.5,9.219544457292887,8.54400374531753,8.5,37.0,16.0,37.656340767525464
136,59,767,25.59223333333293,5.385164807134504,84.01190391843289,7.280109889280518,14.142135623730951,20.223748416156685,21.213203435596427,31.144823004794873,57.706152185014034,43.56604182158393,40.5,29.0,42.0,4.5,21.5,4.5,2.5,10.198039027185569,10.198039027185569,10.5,40.0,20.0,37.48332962798263
137,59,768,25.6255999999996,5.0990195135927845,85.0,6.324555320336759,12.165525060596439,20.09975124224178,21.213203435596427,33.37663853655727,56.88585061331157,44.721359549995796,41.5,29.0,42.0,2.5,20.5,4.5,2.5,9.219544457292887,9.486832980505138,9.0,39.0,20.0,33.54101966249684
138,59,769,25.658966666666263,1.4142135623730951,85.84287972802403,6.082762530298219,13.152946437965905,20.223748416156685,21.213203435596427,34.23448553724738,54.589376255824725,41.43669871020132,40.5,28.0,40.0,0.0,20.0,4.0,5.0,10.04987562112089,9.219544457292887,9.5,38.0,19.0,35.35533905932738
139,59,770,25.69233333333293,2.23606797749979,87.82368700982668,5.0990195135927845,12.165525060596439,20.223748416156685,21.213203435596427,34.23448553724738,53.600373133029585,41.43669871020132,40.0,28.0,40.0,0.0,19.0,4.0,5.0,9.219544457292887,8.246211251235321,8.5,40.0,21.0,33.734255586866
140,59,771,25.725699999999595,3.1622776601683795,85.0,6.082762530298219,12.165525060596439,18.110770276274835,20.223748416156685,33.24154027718932,54.589376255824725,42.42640687119285,40.5,29.0,42.0,2.5,18.5,3.5,2.5,10.198039027185569,12.36931687685298,11.5,39.0,20.0,34.52535300326414
141,59,772,25.75906666666626,4.0,87.82368700982668,5.385164807134504,14.142135623730951,20.223748416156685,22.20360331117452,32.38826948140329,55.731499172371095,41.593268686170845,39.0,28.0,40.0,2.0,21.0,5.0,3.0,8.06225774829855,8.246211251235321,9.0,39.0,22.0,32.55764119219941
142,59,773,25.792433333332927,4.0,85.84287972802403,6.082762530298219,13.152946437965905,19.1049731745428,20.223748416156685,32.38826948140329,55.57877292636101,42.42640687119285,40.0,29.0,41.0,3.0,20.0,4.0,2.0,9.055385138137417,9.219544457292887,9.5,37.0,19.0,36.345563690772494
143,59,774,25.825799999999592,3.0,85.84287972802403,5.0990195135927845,12.165525060596439,19.1049731745428,20.09975124224178,32.55764119219941,52.773099207835045,40.607881008493905,38.5,28.0,40.0,2.0,18.0,3.0,2.0,9.055385138137417,8.246211251235321,8.5,37.0,20.0,35.35533905932738
144,59,775,25.85916666666626,3.1622776601683795,84.8528137423857,6.082762530298219,13.038404810405298,20.09975124224178,20.09975124224178,31.400636936215164,53.600373133029585,40.607881008493905,38.5,28.0,40.0,3.0,19.0,4.0,3.0,11.180339887498949,11.180339887498949,11.0,38.0,21.0,34.36568055487916
145,59,776,25.892533333332924,5.0,82.60750571225353,6.082762530298219,13.038404810405298,19.1049731745428,20.09975124224178,32.38826948140329,56.43580423808985,43.41658669218482,40.5,30.0,40.0,3.0,21.0,5.0,2.0,8.06225774829855,8.246211251235321,8.5,37.0,22.0,34.36568055487916
146,59,777,25.92589999999959,7.0710678118654755,83.86298349093002,6.082762530298219,13.152946437965905,18.24828759089466,19.235384061671343,32.38826948140329,58.69412236331676,45.5411901469428,41.5,29.0,41.0,3.0,23.0,7.0,3.0,7.0710678118654755,7.0710678118654755,8.0,36.0,21.0,38.3275357934736
147,59,778,25.959266666666256,7.0710678118654755,81.74350127074322,5.0990195135927845,13.152946437965905,18.027756377319946,19.1049731745428,32.2490309931942,57.55866572463264,44.40720662234904,40.5,30.0,41.0,3.5,21.5,6.5,0.5,9.055385138137417,10.198039027185569,11.0,37.0,21.0,39.319206502675
148,59,779,25.99263333333292,5.0990195135927845,83.72574275573791,5.0990195135927845,12.165525060596439,19.026297590440446,20.09975124224178,33.24154027718932,55.57877292636101,43.41658669218482,40.5,29.0,40.0,1.5,20.5,5.5,2.5,9.055385138137417,9.219544457292887,9.5,37.0,23.0,35.35533905932738
149,59,780,26.025999999999588,2.23606797749979,87.82368700982668,6.082762530298219,13.152946437965905,21.095023109728988,21.213203435596427,31.25699921617557,52.61178575186362,39.45883931389772,38.0,27.0,39.0,2.0,19.0,4.0,3.0,10.04987562112089,10.198039027185569,10.5,37.0,22.0,32.38826948140329
150,59,781,26.059366666666254,4.123105625617661,86.83317338436964,6.082762530298219,13.152946437965905,20.223748416156685,21.213203435596427,30.265491900843113,53.600373133029585,40.44749683231337,38.0,28.0,40.0,4.0,19.0,3.0,2.0,8.06225774829855,8.246211251235321,8.5,36.0,22.0,36.345563690772494
151,59,782,26.09273333333292,5.0990195135927845,89.80534505250787,7.0710678118654755,13.152946437965905,22.090722034374522,22.20360331117452,30.4138126514911,55.731499172371095,42.579337712087536,39.5,28.0,40.0,4.0,21.0,5.0,2.0,10.198039027185569,9.219544457292887,10.0,38.0,24.0,36.345563690772494
152,59,783,26.126099999999585,9.055385138137417,89.67719888578144,6.082762530298219,12.165525060596439,22.090722034374522,22.20360331117452,30.4138126514911,57.706152185014034,45.5411901469428,40.5,29.0,40.0,4.5,22.5,7.5,1.5,8.246211251235321,9.219544457292887,9.5,36.0,24.0,36.22154055254967
153,59,784,26.15946666666625,7.0710678118654755,91.7877987534291,5.0990195135927845,10.198039027185569,21.095023109728988,22.20360331117452,31.25699921617557,53.600373133029585,43.41658669218482,39.5,26.0,38.0,1.0,21.0,9.0,3.0,9.055385138137417,9.219544457292887,10.0,37.0,23.0,34.52535300326414
154,59,785,26.19283333333292,5.0990195135927845,87.46427842267951,5.0990195135927845,11.045361017187261,20.09975124224178,21.095023109728988,33.24154027718932,54.45181356024793,43.41658669218482,40.5,28.0,37.0,0.5,21.5,8.5,4.5,10.04987562112089,10.198039027185569,10.0,35.0,23.0,35.12833614050059
155,59,786,26.226199999999583,3.1622776601683795,86.57944328765345,6.082762530298219,10.198039027185569,20.024984394500787,21.213203435596427,32.14031735997639,51.478150704935004,41.30375285612676,39.5,26.0,36.0,1.0,20.0,7.0,6.0,9.055385138137417,9.219544457292887,9.0,37.0,23.0,32.2490309931942
156,59,787,26.25956666666625,2.23606797749979,85.37564055396598,6.0,11.045361017187261,20.024984394500787,21.02379604162864,33.13608305156178,52.23983154643591,41.19465984809196,40.0,28.0,36.0,1.0,20.0,7.0,5.0,11.045361017187261,10.198039027185569,10.5,36.0,24.0,35.22782990761707
157,59,788,26.292933333332915,3.1622776601683795,85.28774824088158,5.0990195135927845,11.045361017187261,19.026297590440446,21.213203435596427,33.015148038438355,52.15361924162119,41.10960958218893,39.5,28.0,35.0,1.5,20.5,7.5,5.5,11.045361017187261,11.180339887498949,11.0,35.0,22.0,34.36568055487916
158,59,789,26.32629999999958,2.0,86.28441342444185,6.082762530298219,11.180339887498949,22.090722034374522,23.08679276123039,33.015148038438355,52.15361924162119,41.048751503547585,40.0,29.0,36.0,0.5,19.5,6.5,5.5,11.180339887498949,11.045361017187261,11.0,35.0,23.0,32.14031735997639
159,59,790,26.359666666666246,3.0,88.2779700718135,5.0990195135927845,13.038404810405298,22.02271554554524,23.08679276123039,33.06055050963308,54.147945482723536,41.10960958218893,39.5,28.0,35.0,1.5,22.5,7.5,5.5,12.041594578792296,12.041594578792296,12.0,35.0,23.0,34.132096331752024
160,59,791,26.393033333332912,3.1622776601683795,88.2779700718135,6.082762530298219,12.041594578792296,23.08679276123039,25.079872407968907,32.01562118716424,53.150729063673246,41.10960958218893,39.5,29.0,36.0,0.5,20.5,5.5,4.5,9.055385138137417,9.055385138137417,9.0,34.0,23.0,32.2490309931942
161,59,792,26.42639999999958,3.0,90.19977827023745,6.082762530298219,12.041594578792296,22.0,23.08679276123039,32.01562118716424,53.08483775994799,41.048751503547585,39.5,28.0,34.0,1.0,22.0,8.0,5.0,12.041594578792296,11.045361017187261,11.0,36.0,24.0,34.23448553724738
162,59,793,26.459766666666244,3.1622776601683795,90.19977827023745,6.082762530298219,12.041594578792296,22.090722034374522,23.08679276123039,31.0,52.08646657242167,40.049968789001575,38.5,27.0,33.0,1.0,22.0,7.0,6.0,11.045361017187261,10.198039027185569,10.0,34.0,23.0,36.22154055254967
163,59,794,26.49313333333291,3.1622776601683795,94.26027795418386,7.0710678118654755,13.152946437965905,23.021728866442675,24.08318915758459,30.01666203960727,53.23532661682466,40.11234224026316,38.5,26.0,33.0,0.5,23.5,7.5,5.5,11.180339887498949,11.045361017187261,11.0,36.0,24.0,35.35533905932738
164,59,795,26.526499999999576,3.1622776601683795,94.19129471453293,6.082762530298219,13.152946437965905,24.020824298928627,24.186773244895647,30.01666203960727,52.23983154643591,39.11521443121589,37.5,26.0,32.0,1.0,23.0,8.0,5.0,10.04987562112089,9.055385138137417,9.5,36.0,25.0,34.36568055487916
165,59,796,26.55986666666624,3.0,95.1892851112981,7.0710678118654755,13.038404810405298,23.08679276123039,24.08318915758459,29.0,52.03844732503075,39.01281840626232,37.5,25.0,31.0,1.0,24.0,8.0,7.0,6.0,7.0710678118654755,7.0,36.0,25.0,32.14031735997639
166,59,797,26.593233333332908,3.0,94.13288479590966,6.082762530298219,13.038404810405298,23.021728866442675,25.019992006393608,30.0,52.03844732503075,39.01281840626232,37.5,24.0,29.0,3.5,25.5,9.5,7.5,5.0990195135927845,5.385164807134504,5.5,37.0,27.0,36.124783736376884
167,59,798,26.626599999999573,2.23606797749979,97.082439194738,6.0,13.038404810405298,26.019223662515376,27.018512172212592,30.0,51.03920062069938,38.01315561749642,37.0,25.0,29.0,3.0,24.0,8.0,7.0,6.082762530298219,7.0710678118654755,6.5,35.0,28.0,34.132096331752024
168,59,799,26.65996666666624,3.1622776601683795,99.02019995940222,6.082762530298219,13.0,26.0,26.0,29.017236257093817,51.0098029794274,38.01315561749642,36.5,24.0,26.0,4.0,26.0,10.0,8.0,6.082762530298219,6.082762530298219,5.5,33.0,29.0,38.05259518088089
169,59,800,26.693333333332905,3.0,101.01980003939822,5.0990195135927845,11.0,26.019223662515376,27.018512172212592,29.068883707497267,48.010415536631214,37.013511046643494,35.5,25.0,23.0,5.0,24.0,11.0,7.0,5.0,6.082762530298219,5.5,31.0,29.0,38.0
170,59,801,26.72669999999957,3.0,101.01980003939822,4.0,12.0,26.0,26.0,28.0,47.0,35.0,33.5,23.0,21.0,6.0,25.0,11.0,8.0,7.0,8.06225774829855,7.5,31.0,29.0,35.0
171,59,802,26.76006666666624,3.0,105.04284840006957,5.0,12.0,28.071337695236398,29.017236257093817,27.0,47.0,35.0,33.5,22.0,19.0,6.5,26.5,13.5,8.5,8.0,9.0,8.5,31.0,31.0,35.0
172,59,803,26.793433333332903,3.0,104.12012293500234,5.0990195135927845,11.045361017187261,28.0178514522438,29.068883707497267,27.018512172212592,46.09772228646444,35.05709628591621,33.5,23.0,18.0,6.5,25.5,12.5,8.5,7.0,8.0,8.0,30.0,32.0,35.014282800023196
173,59,804,26.82679999999957,2.0,105.11898020814318,5.0990195135927845,13.038404810405298,28.071337695236398,29.068883707497267,27.073972741361768,47.16990566028302,34.132096331752024,33.0,22.0,17.0,7.5,27.5,13.5,8.5,8.0,9.055385138137417,8.5,30.0,33.0,34.0
174,59,805,26.860166666666235,2.0,105.30432089900205,5.0990195135927845,12.041594578792296,28.071337695236398,30.066592756745816,25.179356624028344,44.28317965096906,32.2490309931942,31.0,21.0,13.0,8.0,27.0,13.0,9.0,7.0,8.06225774829855,8.0,26.0,32.0,35.0
175,59,806,26.8935333333329,3.0,104.30723848324239,4.0,11.045361017187261,28.160255680657446,29.154759474226502,25.317977802344327,43.289721643826724,32.2490309931942,30.5,20.0,12.0,9.0,27.0,15.0,9.0,8.06225774829855,7.0710678118654755,7.5,26.0,34.0,38.01315561749642
176,59,807,26.926899999999566,3.0,105.47511554864494,4.123105625617661,12.165525060596439,30.14962686336267,31.25699921617557,24.515301344262525,43.73785545725808,31.575306807693888,29.5,20.0,10.0,9.0,28.0,15.0,9.0,6.324555320336759,8.06225774829855,8.0,23.0,33.0,35.12833614050059
177,59,808,26.960266666666232,3.0,107.37783756436893,5.0,13.038404810405298,29.154759474226502,30.265491900843113,24.331050121192877,45.27692569068709,32.2490309931942,30.5,18.0,9.0,10.5,31.5,17.5,10.5,7.0710678118654755,8.246211251235321,8.0,26.0,37.0,36.05551275463989
178,59,809,26.993633333332895,4.47213595499958,107.46627377926528,5.0,14.035668847618199,29.154759474226502,31.25699921617557,23.345235059857504,46.52956049652737,32.55764119219941,30.0,17.0,7.0,11.0,34.0,18.0,11.0,10.198039027185569,9.055385138137417,9.5,30.0,37.0,36.05551275463989
179,59,810,27.026999999999564,1.0,111.11255554616679,6.0,14.035668847618199,27.073972741361768,29.154759474226502,22.80350850198276,43.56604182158393,29.614185789921695,28.5,13.0,8.0,11.5,32.5,15.5,14.5,9.055385138137417,9.055385138137417,9.5,33.0,35.0,39.01281840626232
180,59,811,27.06036666666623,3.1622776601683795,109.32977636490436,7.280109889280518,15.033296378372908,27.294688127912362,29.427877939124322,22.561028345356956,46.32493928760188,31.622776601683793,29.5,24.0,7.0,6.5,29.5,14.5,7.5,8.06225774829855,7.280109889280518,7.5,26.0,40.0,30.265491900843113
181,59,826,27.560866666666215,8.06225774829855,97.67292357659824,6.082762530298219,13.341664064126334,23.769728648009426,25.96150997149434,37.21558813185679,64.00781202322104,51.15662224971465,47.0,40.0,58.0,12.0,15.0,3.0,4.0,13.601470508735444,16.1245154965971,15.0,37.0,14.0,29.120439557122072
182,59,828,27.62759999999955,3.0,111.04053313993049,6.0,14.035668847618199,27.018512172212592,28.0,29.068883707497267,52.08646657242167,38.05259518088089,36.5,26.0,23.0,4.5,27.5,12.5,8.5,6.082762530298219,9.055385138137417,8.5,33.0,35.0,26.019223662515376
183,59,829,27.660966666666216,5.0,82.49242389456137,5.0990195135927845,14.035668847618199,24.08318915758459,25.079872407968907,23.769728648009426,47.29693436154187,33.52610922848042,30.0,26.0,17.0,1.5,24.5,9.5,3.5,9.055385138137417,9.055385138137417,9.5,30.0,43.0,20.615528128088304
184,59,830,27.69433333333288,5.830951894845301,80.4114419718985,4.123105625617661,14.142135623730951,21.213203435596427,23.345235059857504,26.68332812825267,50.44799302251776,36.40054944640259,32.5,36.0,21.0,2.5,20.5,5.5,2.5,10.04987562112089,9.055385138137417,9.0,27.0,36.0,27.16615541441225
185,59,831,27.727699999999547,4.123105625617661,101.1236866416568,4.123105625617661,12.041594578792296,26.019223662515376,27.018512172212592,27.294688127912362,47.51841748206689,35.510561809129406,33.0,25.0,20.0,4.5,24.5,10.5,5.5,9.0,10.04987562112089,10.0,27.0,33.0,36.013886210738214
186,59,832,27.761066666666213,4.0,100.07996802557443,5.0,13.038404810405298,26.019223662515376,28.0178514522438,27.294688127912362,49.25444142409901,36.22154055254967,34.0,26.0,22.0,3.0,25.0,11.0,5.0,10.0,9.0,9.0,27.0,32.0,33.0
187,59,833,27.79443333333288,5.0,100.0199980003999,5.0990195135927845,13.0,25.079872407968907,26.019223662515376,27.16615541441225,50.15974481593781,37.21558813185679,34.5,26.0,24.0,2.0,25.0,10.0,4.0,10.0,10.04987562112089,10.0,29.0,33.0,35.0
188,59,834,27.827799999999545,4.0,98.00510190801293,5.0,12.0,26.0,26.019223662515376,29.274562336608895,50.15974481593781,38.2099463490856,36.0,27.0,26.0,2.5,23.5,10.5,5.5,12.0,11.045361017187261,11.5,28.0,32.0,35.0
189,59,835,27.86116666666621,3.0,95.0,6.0,11.0,24.0,25.0,29.068883707497267,49.040799340956916,38.05259518088089,36.5,27.0,27.0,2.0,22.0,8.0,5.0,12.0,12.041594578792296,12.0,32.0,32.0,35.014282800023196
190,59,836,27.89453333333288,2.0,93.0,5.0,12.0,24.0,26.0,32.2490309931942,51.15662224971465,39.20459156782532,38.0,29.0,29.0,3.0,22.0,8.0,6.0,12.0,12.0,12.5,30.0,31.0,32.0624390837628
191,59,837,27.927899999999543,1.0,92.02173656261873,6.0,13.0,24.0,25.0,32.14031735997639,52.08646657242167,39.11521443121589,38.5,29.0,31.0,2.0,22.0,7.0,5.0,13.0,13.0,13.0,31.0,31.0,30.01666203960727
192,59,838,27.96126666666621,2.0,89.0,6.0,14.0,24.0,25.0,31.144823004794873,53.08483775994799,39.11521443121589,38.0,31.0,31.0,0.0,22.0,6.0,3.0,12.0,12.0,12.5,32.0,31.0,31.016124838541646
193,59,839,27.994633333332875,3.1622776601683795,88.02272433866155,5.0990195135927845,14.035668847618199,24.0,25.019992006393608,33.13608305156178,55.14526271584895,41.10960958218893,39.5,32.0,34.0,0.0,22.0,6.0,3.0,12.041594578792296,13.0,13.0,32.0,31.0,31.064449134018133
194,59,840,28.02799999999954,5.0,87.05170877128145,5.0,13.0,23.0,25.019992006393608,32.14031735997639,55.08175741568164,42.1070065428546,39.5,32.0,35.0,1.5,21.5,5.5,1.5,12.041594578792296,12.0,12.5,32.0,30.0,31.016124838541646
195,59,841,28.061366666666206,8.0,90.08884503644167,5.0,14.0,24.0,25.019992006393608,31.064449134018133,58.034472514187634,44.04543109109048,40.0,31.0,35.0,2.0,25.0,7.0,1.0,13.038404810405298,12.0,12.0,33.0,31.0,34.058772731852805
196,59,842,28.094733333332872,8.06225774829855,94.02127418834527,5.0,13.0,26.0,27.0,30.066592756745816,56.00892785976178,43.01162633521314,39.0,34.0,36.0,5.0,21.0,5.0,2.0,12.0,12.0,12.0,31.0,29.0,33.015148038438355
197,59,843,28.128099999999534,10.0,97.082439194738,4.0,13.038404810405298,27.018512172212592,27.018512172212592,29.154759474226502,56.0357029044876,43.104524124504614,38.0,32.0,36.0,5.0,22.0,6.0,2.0,12.0,13.0,13.0,29.0,28.0,35.05709628591621
198,59,844,28.161466666666204,8.0,95.04735661763561,6.0,15.0,27.0,26.019223662515376,28.0178514522438,57.0087712549569,42.01190307520001,38.0,35.0,38.0,8.5,20.5,3.5,4.5,11.045361017187261,12.0,12.5,30.0,27.0,35.05709628591621
199,59,845,28.19483333333287,12.0,99.08077512817509,7.0,15.033296378372908,28.0178514522438,29.017236257093817,27.0,61.00819617067857,46.0,40.0,34.0,38.0,9.0,25.0,7.0,3.0,12.041594578792296,14.0,14.0,32.0,29.0,35.05709628591621
200,59,846,28.228199999999536,12.041594578792296,97.12878049270464,6.082762530298219,15.033296378372908,27.018512172212592,28.0178514522438,27.0,60.00833275470999,45.0,39.0,34.0,39.0,9.5,23.5,6.5,4.5,10.04987562112089,11.045361017187261,10.5,33.0,27.0,33.13608305156178
201,59,847,28.2615666666662,14.0,96.13012014972206,6.0,15.033296378372908,28.071337695236398,29.017236257093817,27.018512172212592,62.03224967708329,47.01063709417264,40.0,34.0,39.0,9.5,25.5,7.5,3.5,6.082762530298219,8.06225774829855,7.5,35.0,28.0,35.12833614050059
202,59,848,28.294933333332867,12.0,93.26306878931231,8.06225774829855,16.1245154965971,27.073972741361768,28.071337695236398,26.076809620810597,62.20128616033595,46.09772228646444,40.0,33.0,40.0,10.5,25.5,7.5,2.5,6.082762530298219,6.082762530298219,6.5,36.0,26.0,36.124783736376884
203,59,849,28.328299999999533,10.0,92.26592003551474,8.06225774829855,15.033296378372908,24.020824298928627,26.076809620810597,27.294688127912362,60.29925372672534,45.27692569068709,40.0,31.0,38.0,7.5,25.5,7.5,0.5,7.0710678118654755,8.246211251235321,7.5,36.0,25.0,35.22782990761707
204,59,850,28.3616666666662,6.0,91.44397191723465,6.082762530298219,16.1245154965971,23.08679276123039,25.179356624028344,26.1725046566048,54.3323108288245,38.2099463490856,35.0,27.0,36.0,5.5,22.5,4.5,0.5,7.0710678118654755,7.280109889280518,7.5,37.0,23.0,31.400636936215164
205,59,851,28.395033333332865,7.0,89.45389874119518,5.0,15.033296378372908,22.090722034374522,23.194827009486403,27.294688127912362,54.230987451824994,39.20459156782532,35.5,27.0,36.0,4.5,22.5,5.5,0.5,8.246211251235321,8.246211251235321,8.5,37.0,22.0,37.48332962798263
206,59,852,28.42839999999953,5.0,87.69264507357501,6.082762530298219,15.132745950421556,22.090722034374522,24.08318915758459,26.1725046566048,52.3450093132096,37.21558813185679,34.5,24.0,35.0,3.5,22.5,5.5,1.5,9.055385138137417,10.198039027185569,10.0,40.0,22.0,36.49657518178932
207,59,853,28.4617666666662,5.0,87.69264507357501,6.082762530298219,14.035668847618199,22.02271554554524,23.08679276123039,27.073972741361768,52.15361924162119,38.118237105091836,35.5,25.0,36.0,3.5,21.5,5.5,1.5,10.198039027185569,10.44030650891055,11.0,41.0,22.0,36.6742416417845
208,59,854,28.495133333332863,6.0,86.83317338436964,5.0990195135927845,14.142135623730951,21.095023109728988,22.090722034374522,28.160255680657446,53.33854141237835,39.20459156782532,36.0,25.0,37.0,3.0,22.0,5.0,1.0,11.180339887498949,10.198039027185569,11.0,40.0,21.0,35.510561809129406
209,59,855,28.52849999999953,5.0990195135927845,82.73451516749222,5.385164807134504,15.132745950421556,20.024984394500787,21.095023109728988,28.160255680657446,53.33854141237835,38.2099463490856,35.5,26.0,37.0,3.5,21.5,4.5,0.5,10.198039027185569,11.40175425099138,10.5,40.0,20.0,31.78049716414141
210,59,856,28.561866666666194,6.0,82.73451516749222,5.385164807134504,15.132745950421556,19.026297590440446,20.09975124224178,28.160255680657446,54.45181356024793,39.319206502675,36.0,27.0,38.0,4.5,21.5,3.5,0.5,10.198039027185569,11.40175425099138,11.5,39.0,20.0,33.734255586866
211,59,857,28.59523333333286,5.0,81.88406438373708,5.385164807134504,14.142135623730951,20.024984394500787,21.095023109728988,28.160255680657446,52.46903848937962,38.3275357934736,35.5,26.0,38.0,4.0,20.0,3.0,0.0,10.198039027185569,10.198039027185569,10.5,40.0,20.0,32.7566787083184
212,59,858,28.62859999999953,4.123105625617661,85.98837130682264,4.123105625617661,13.152946437965905,20.09975124224178,21.213203435596427,30.265491900843113,51.62363799656123,38.47076812334269,36.0,25.0,38.0,1.5,19.5,4.5,2.5,10.198039027185569,10.44030650891055,11.0,41.0,21.0,33.95585369269929
213,59,859,28.661966666666192,2.0,86.83317338436964,5.0990195135927845,12.36931687685298,21.213203435596427,21.37755832643195,30.59411708155671,50.00999900019995,37.656340767525464,36.0,24.0,36.0,0.0,19.0,3.0,5.0,11.180339887498949,11.180339887498949,12.0,39.0,19.0,38.47076812334269
214,59,860,28.695333333332854,1.0,87.69264507357501,6.082762530298219,13.152946437965905,19.235384061671343,20.223748416156685,30.59411708155671,50.80354318352215,37.656340767525464,36.5,25.0,36.0,0.5,19.5,3.5,4.5,10.198039027185569,11.180339887498949,11.5,40.0,21.0,34.52535300326414
215,59,861,28.728699999999524,1.4142135623730951,89.67719888578144,6.082762530298219,12.165525060596439,19.1049731745428,21.213203435596427,32.38826948140329,51.78802950489621,39.6232255123179,38.5,26.0,37.0,0.5,19.5,4.5,5.5,10.198039027185569,10.04987562112089,11.0,39.0,21.0,34.52535300326414
216,59,862,28.76206666666619,4.123105625617661,88.68483523128404,6.082762530298219,10.198039027185569,20.024984394500787,21.213203435596427,31.400636936215164,51.78802950489621,41.593268686170845,39.0,27.0,38.0,1.5,18.5,5.5,3.5,10.198039027185569,11.045361017187261,11.5,39.0,22.0,36.49657518178932
217,59,863,28.795433333332856,4.0,87.46427842267951,6.324555320336759,10.198039027185569,21.213203435596427,21.37755832643195,31.400636936215164,51.78802950489621,41.593268686170845,39.0,31.0,40.0,4.5,15.5,3.5,1.5,10.198039027185569,11.180339887498949,11.5,40.0,23.0,33.54101966249684
218,59,864,28.82879999999952,3.1622776601683795,88.68483523128404,6.324555320336759,12.041594578792296,20.09975124224178,22.20360331117452,30.59411708155671,51.97114584074513,40.024992192379,37.5,30.0,41.0,5.5,15.5,1.5,0.5,10.04987562112089,10.198039027185569,10.5,40.0,24.0,29.427877939124322
219,59,865,28.862166666666187,4.123105625617661,90.6697303403953,7.0710678118654755,11.180339887498949,22.20360331117452,22.20360331117452,30.59411708155671,52.952809179494906,41.773197148410844,39.0,31.0,42.0,6.5,15.5,1.5,0.5,9.055385138137417,9.219544457292887,9.5,40.0,22.0,33.734255586866
220,59,866,28.895533333332853,5.0990195135927845,89.67719888578144,7.0710678118654755,12.165525060596439,22.20360331117452,23.345235059857504,29.427877939124322,53.75872022286245,41.593268686170845,38.5,31.0,42.0,7.5,16.5,2.5,0.5,10.198039027185569,11.180339887498949,11.0,38.0,22.0,38.3275357934736
221,59,867,28.92889999999952,5.0990195135927845,89.67719888578144,8.06225774829855,13.152946437965905,23.194827009486403,24.186773244895647,29.427877939124322,55.731499172371095,42.579337712087536,39.5,31.0,42.0,7.5,18.5,2.5,0.5,11.180339887498949,11.045361017187261,12.0,39.0,24.0,37.33630940518894
222,59,868,28.962266666666185,6.324555320336759,88.68483523128404,8.06225774829855,14.142135623730951,23.194827009486403,24.186773244895647,29.427877939124322,57.87054518492115,43.73785545725808,40.0,32.0,43.0,8.5,19.5,3.5,0.5,10.198039027185569,10.198039027185569,11.0,39.0,22.0,38.47076812334269
223,59,869,28.99563333333285,7.0710678118654755,89.67719888578144,6.324555320336759,13.152946437965905,21.095023109728988,22.20360331117452,31.400636936215164,57.87054518492115,44.721359549995796,40.5,32.0,43.0,6.5,19.5,4.5,0.5,10.198039027185569,10.198039027185569,10.5,40.0,23.0,35.510561809129406
224,59,870,29.02899999999952,7.0710678118654755,87.69264507357501,5.0990195135927845,11.180339887498949,22.090722034374522,23.194827009486403,33.37663853655727,56.71860364994893,45.5411901469428,41.5,32.0,43.0,4.5,18.5,4.5,0.5,6.082762530298219,7.280109889280518,7.0,39.0,23.0,39.11521443121589
225,59,871,29.062366666666183,3.1622776601683795,86.57944328765345,5.0990195135927845,9.055385138137417,22.20360331117452,23.08679276123039,33.37663853655727,50.635955604688654,41.593268686170845,39.5,30.0,40.0,2.0,15.0,4.0,3.0,5.0990195135927845,5.385164807134504,5.0,40.0,24.0,33.24154027718932
226,59,872,29.09573333333285,3.1622776601683795,91.44397191723465,7.0710678118654755,9.219544457292887,24.08318915758459,24.08318915758459,32.2490309931942,51.62363799656123,42.42640687119285,40.5,31.0,40.0,3.5,15.5,4.5,3.5,7.0710678118654755,7.280109889280518,7.0,39.0,24.0,33.24154027718932
227,59,873,29.129099999999514,2.23606797749979,88.36288813749809,7.0710678118654755,8.06225774829855,22.02271554554524,23.08679276123039,33.24154027718932,50.48762224545735,42.42640687119285,41.0,33.0,41.0,4.0,13.0,3.0,2.0,7.0710678118654755,7.280109889280518,7.0,39.0,25.0,32.2490309931942
228,59,874,29.16246666666618,1.4142135623730951,90.35485598461214,9.055385138137417,8.246211251235321,23.08679276123039,23.08679276123039,29.274562336608895,47.67598976424087,39.45883931389772,38.5,32.0,40.0,7.0,11.0,1.0,2.0,8.06225774829855,9.055385138137417,8.5,38.0,24.0,32.2490309931942
229,59,875,29.19583333333285,0.0,92.26592003551474,8.06225774829855,8.246211251235321,21.02379604162864,22.090722034374522,28.160255680657446,44.40720662234904,36.22154055254967,36.0,32.0,39.0,7.5,8.5,1.5,0.5,8.06225774829855,9.055385138137417,9.0,37.0,24.0,32.2490309931942
230,59,876,29.229199999999512,1.0,95.13148795220224,8.0,7.0710678118654755,22.090722034374522,22.090722034374522,25.179356624028344,40.311288741492746,33.24154027718932,33.0,33.0,38.0,10.5,4.5,4.5,2.5,10.04987562112089,10.04987562112089,10.0,39.0,24.0,29.427877939124322
231,59,877,29.262566666666174,1.0,92.0869154657707,8.06225774829855,9.219544457292887,23.021728866442675,22.20360331117452,22.090722034374522,38.3275357934736,29.154759474226502,29.5,33.0,37.0,13.0,3.0,7.0,5.0,11.180339887498949,10.04987562112089,10.0,38.0,24.0,33.37663853655727
232,59,878,29.295933333332844,1.0,91.13725912051558,8.06225774829855,10.04987562112089,23.021728866442675,23.194827009486403,21.095023109728988,38.2099463490856,28.160255680657446,28.5,33.0,38.0,14.5,2.5,8.5,6.5,10.04987562112089,10.04987562112089,9.5,37.0,23.0,30.265491900843113
233,59,879,29.32929999999951,1.0,90.0499861188218,7.0710678118654755,9.219544457292887,21.095023109728988,22.090722034374522,22.02271554554524,37.21558813185679,28.071337695236398,28.5,34.0,37.0,13.5,1.5,8.5,5.5,10.04987562112089,9.219544457292887,9.5,38.0,23.0,29.427877939124322
234,59,880,29.362666666666176,1.0,87.09190547921202,8.06225774829855,8.06225774829855,20.024984394500787,20.09975124224178,23.021728866442675,38.118237105091836,30.066592756745816,30.5,35.0,39.0,14.0,1.0,8.0,6.0,10.198039027185569,11.180339887498949,10.5,38.0,24.0,27.459060435491963
235,59,881,29.39603333333284,1.0,87.14355971613737,6.082762530298219,7.0710678118654755,23.08679276123039,22.20360331117452,26.019223662515376,39.20459156782532,32.14031735997639,32.0,35.0,40.0,11.5,1.5,6.5,5.5,10.04987562112089,9.219544457292887,9.0,38.0,23.0,29.274562336608895
236,59,882,29.429399999999507,1.0,84.2140130857092,9.055385138137417,9.219544457292887,22.20360331117452,23.08679276123039,24.020824298928627,42.2965719651132,33.13608305156178,33.0,35.0,41.0,14.0,4.0,7.0,4.0,7.0710678118654755,8.246211251235321,8.0,38.0,25.0,31.25699921617557
237,59,883,29.462766666666173,1.4142135623730951,84.38009243891595,9.055385138137417,10.04987562112089,23.194827009486403,23.194827009486403,25.019992006393608,45.17742799230607,35.12833614050059,34.5,36.0,44.0,15.0,5.0,7.0,5.0,8.06225774829855,10.44030650891055,10.0,39.0,25.0,31.400636936215164
238,59,884,29.49613333333284,1.0,84.38009243891595,10.04987562112089,10.198039027185569,24.186773244895647,24.186773244895647,25.079872407968907,46.2709412050371,36.124783736376884,35.5,37.0,45.0,16.0,5.0,7.0,5.0,9.055385138137417,10.198039027185569,9.5,39.0,25.0,32.2490309931942
239,59,885,29.529499999999505,1.4142135623730951,83.38465086573187,12.041594578792296,14.142135623730951,22.20360331117452,24.331050121192877,24.08318915758459,51.35172830587107,37.21558813185679,36.5,38.0,46.0,18.0,9.0,7.0,5.0,6.082762530298219,8.54400374531753,7.5,39.0,25.0,32.2490309931942
240,59,886,29.56286666666617,3.0,86.46964785403026,11.045361017187261,15.132745950421556,25.079872407968907,26.1725046566048,25.179356624028344,54.3323108288245,39.20459156782532,37.5,37.0,46.0,16.5,12.5,5.5,5.5,8.06225774829855,9.486832980505138,8.5,40.0,25.0,32.2490309931942
241,59,887,29.59623333333284,3.605551275463989,92.43916918709297,10.04987562112089,15.132745950421556,25.179356624028344,27.16615541441225,29.068883707497267,57.42821606144492,42.2965719651132,40.5,35.0,44.0,10.5,17.5,0.5,0.5,10.198039027185569,10.198039027185569,9.5,39.0,24.0,31.400636936215164
242,59,888,29.629599999999503,1.4142135623730951,95.42536350467836,12.165525060596439,16.1245154965971,27.073972741361768,29.154759474226502,29.068883707497267,58.42088667591412,42.2965719651132,41.5,36.0,45.0,11.5,17.5,1.5,0.5,11.180339887498949,11.045361017187261,11.0,38.0,24.0,32.38826948140329
243,59,889,29.66296666666617,6.082762530298219,96.51942809610924,12.165525060596439,14.142135623730951,27.16615541441225,29.154759474226502,28.071337695236398,60.40695324215582,46.2709412050371,43.0,34.0,44.0,11.0,21.0,4.0,1.0,12.165525060596439,11.180339887498949,11.5,40.0,26.0,33.24154027718932
244,59,890,29.696333333332834,11.045361017187261,98.73196037757987,11.045361017187261,14.142135623730951,26.076809620810597,27.294688127912362,27.073972741361768,63.28506932918696,49.16299421312742,43.5,34.0,46.0,13.0,23.0,6.0,2.0,14.142135623730951,13.038404810405298,13.0,44.0,28.0,36.22154055254967
245,59,891,29.7296999999995,18.027756377319946,100.71742649611338,9.055385138137417,11.180339887498949,26.1725046566048,28.284271247461902,27.16615541441225,65.37583651472461,54.230987451824994,45.0,35.0,47.0,14.0,24.0,10.0,5.0,13.152946437965905,13.152946437965905,13.0,46.0,31.0,38.3275357934736
246,59,892,29.76306666666617,19.026297590440446,96.87620966986684,6.082762530298219,9.486832980505138,25.179356624028344,26.1725046566048,31.144823004794873,65.49045732013177,56.22277118748239,46.5,33.0,46.0,8.5,25.5,12.5,2.5,15.132745950421556,14.142135623730951,14.0,51.0,34.0,43.41658669218482
247,59,893,29.796433333332832,2.23606797749979,87.82368700982668,5.0990195135927845,10.198039027185569,23.08679276123039,23.194827009486403,34.132096331752024,51.478150704935004,41.30375285612676,40.0,36.0,48.0,8.0,9.0,3.0,3.0,14.317821063276353,14.142135623730951,14.0,50.0,35.0,41.30375285612676
248,59,894,29.829799999999494,8.06225774829855,91.92388155425118,5.0990195135927845,10.198039027185569,22.20360331117452,23.194827009486403,33.13608305156178,56.43580423808985,46.2709412050371,42.0,33.0,46.0,6.5,16.5,3.5,1.5,14.142135623730951,14.035668847618199,14.0,52.0,35.0,47.265209192385896
249,59,895,29.863166666666164,1.0,89.67719888578144,5.0990195135927845,9.219544457292887,22.20360331117452,22.090722034374522,34.23448553724738,48.662100242385755,39.45883931389772,39.0,33.0,44.0,4.5,9.5,1.5,0.5,15.297058540778355,15.033296378372908,15.0,53.0,36.0,46.2709412050371
250,59,896,29.89653333333283,1.4142135623730951,90.6697303403953,5.0990195135927845,9.219544457292887,23.08679276123039,23.194827009486403,31.25699921617557,46.69047011971501,37.48332962798263,36.5,32.0,43.0,6.5,8.5,2.5,1.5,14.142135623730951,14.035668847618199,14.5,54.0,36.0,44.40720662234904
251,59,897,29.929899999999492,1.0,91.6624241442479,5.0990195135927845,10.198039027185569,23.08679276123039,24.186773244895647,31.25699921617557,46.69047011971501,36.49657518178932,36.0,30.0,41.0,4.5,10.5,1.5,0.5,15.297058540778355,14.142135623730951,15.0,55.0,35.0,42.579337712087536
252,59,898,29.96326666666616,3.0,89.56003573022959,4.123105625617661,10.198039027185569,23.08679276123039,24.186773244895647,31.400636936215164,48.662100242385755,38.47076812334269,36.5,31.0,41.0,5.0,12.0,1.0,1.0,16.1245154965971,15.033296378372908,15.5,54.0,35.0,45.39823785126467
253,59,899,29.996633333332827,10.0,88.81441324469807,5.0990195135927845,13.341664064126334,25.079872407968907,26.1725046566048,29.274562336608895,57.55866572463264,44.28317965096906,39.0,30.0,42.0,7.0,21.0,4.0,2.0,13.152946437965905,13.038404810405298,13.5,56.0,37.0,46.389654018972806
254,59,900,30.029999999999493,8.0,85.70880934886448,5.0990195135927845,15.297058540778355,24.08318915758459,26.076809620810597,30.14962686336267,58.42088667591412,43.18564576337837,39.0,30.0,41.0,5.5,22.5,5.5,1.5,13.152946437965905,13.152946437965905,13.5,54.0,36.0,45.39823785126467
255,59,901,30.06336666666616,5.0,86.83317338436964,5.0990195135927845,13.152946437965905,23.08679276123039,24.08318915758459,29.274562336608895,52.46903848937962,39.319206502675,36.5,27.0,39.0,4.0,19.0,3.0,0.0,13.152946437965905,12.165525060596439,12.5,52.0,34.0,43.289721643826724
256,59,902,30.096733333332825,2.0,87.69264507357501,4.123105625617661,12.165525060596439,23.021728866442675,24.08318915758459,31.25699921617557,49.49747468305833,37.33630940518894,36.0,27.0,38.0,1.5,16.5,1.5,1.5,12.165525060596439,12.165525060596439,12.5,49.0,32.0,40.44749683231337
257,59,903,30.13009999999949,1.0,87.69264507357501,5.0990195135927845,12.165525060596439,22.090722034374522,24.08318915758459,31.25699921617557,48.662100242385755,36.49657518178932,36.0,25.0,36.0,0.5,17.5,2.5,4.5,11.40175425099138,11.180339887498949,11.5,47.0,30.0,37.48332962798263
258,59,904,30.16346666666616,1.0,88.56635930193812,4.123105625617661,11.180339887498949,24.08318915758459,24.186773244895647,32.2490309931942,48.507731342539614,37.33630940518894,36.5,26.0,36.0,1.0,17.0,3.0,4.0,8.54400374531753,8.246211251235321,8.0,45.0,28.0,36.49657518178932
259,59,905,30.196833333332822,2.0,91.54780172128658,5.385164807134504,12.165525060596439,24.08318915758459,26.1725046566048,31.400636936215164,50.80354318352215,38.63935817272331,37.0,25.0,35.0,1.0,20.0,5.0,4.0,8.246211251235321,8.246211251235321,8.5,44.0,27.0,35.510561809129406
260,59,906,30.23019999999949,8.06225774829855,90.55385138137417,4.123105625617661,11.180339887498949,23.08679276123039,24.08318915758459,30.265491900843113,53.600373133029585,42.42640687119285,38.0,26.0,36.0,1.0,22.0,9.0,2.0,8.06225774829855,9.219544457292887,9.0,43.0,26.0,34.52535300326414
261,59,907,30.263566666666154,7.0,91.54780172128658,4.123105625617661,12.165525060596439,23.08679276123039,24.08318915758459,29.427877939124322,52.61178575186362,40.44749683231337,36.5,24.0,34.0,0.0,23.0,9.0,3.0,8.246211251235321,9.486832980505138,9.0,43.0,26.0,31.400636936215164
262,59,908,30.29693333333282,16.0312195418814,93.64827814754524,4.123105625617661,13.152946437965905,23.194827009486403,26.1725046566048,28.442925306655784,61.66036003787198,48.507731342539614,40.0,25.0,36.0,2.5,30.5,14.5,1.5,10.198039027185569,11.180339887498949,11.0,43.0,26.0,33.37663853655727
263,59,909,30.33029999999949,12.041594578792296,94.53041838477179,4.123105625617661,12.165525060596439,25.179356624028344,26.1725046566048,27.459060435491963,55.731499172371095,43.56604182158393,37.0,22.0,32.0,0.0,28.0,13.0,3.0,9.219544457292887,9.219544457292887,9.5,43.0,24.0,33.54101966249684
264,59,910,30.363666666666152,8.0,93.43446901438462,4.123105625617661,12.041594578792296,24.020824298928627,27.16615541441225,25.495097567963924,49.49747468305833,37.48332962798263,33.0,20.0,29.0,0.5,24.5,9.5,3.5,10.198039027185569,9.219544457292887,9.0,43.0,26.0,33.54101966249684
265,59,911,30.397033333332818,7.0,94.53041838477179,4.123105625617661,13.152946437965905,23.021728866442675,24.186773244895647,25.317977802344327,49.49747468305833,36.345563690772494,32.5,19.0,29.0,1.0,25.0,9.0,4.0,8.246211251235321,8.54400374531753,8.0,43.0,26.0,32.2490309931942
266,59,912,30.430399999999484,7.0710678118654755,94.53041838477179,5.0990195135927845,14.142135623730951,24.020824298928627,26.1725046566048,25.495097567963924,51.478150704935004,37.33630940518894,33.5,19.0,29.0,1.0,27.0,10.0,4.0,9.055385138137417,8.246211251235321,8.5,42.0,25.0,31.25699921617557
267,59,913,30.46376666666615,10.0,89.45389874119518,4.123105625617661,14.142135623730951,22.02271554554524,24.08318915758459,25.495097567963924,53.600373133029585,39.45883931389772,34.0,21.0,30.0,0.5,27.5,10.5,2.5,9.055385138137417,9.486832980505138,9.0,42.0,25.0,30.4138126514911
268,59,914,30.497133333332812,10.04987562112089,90.44888059008801,3.1622776601683795,14.142135623730951,24.020824298928627,25.079872407968907,26.68332812825267,53.9351462406472,39.81205847478876,34.0,22.0,31.0,0.5,26.5,10.5,1.5,7.280109889280518,7.615773105863909,7.0,41.0,24.0,30.4138126514911
269,59,915,30.53049999999948,11.0,87.5728268357257,3.1622776601683795,14.142135623730951,22.02271554554524,24.08318915758459,26.476404589747453,54.589376255824725,40.44749683231337,34.5,21.0,31.0,0.0,28.0,11.0,2.0,8.246211251235321,8.54400374531753,8.0,42.0,24.0,30.4138126514911
270,59,916,30.563866666666147,7.0710678118654755,88.56635930193812,5.0990195135927845,14.142135623730951,22.090722034374522,25.079872407968907,26.476404589747453,52.773099207835045,38.63935817272331,34.5,22.0,32.0,1.0,25.0,8.0,3.0,9.055385138137417,9.486832980505138,8.5,43.0,23.0,34.36568055487916
271,59,917,30.597233333332813,6.082762530298219,85.70880934886448,5.0990195135927845,13.152946437965905,22.090722034374522,23.194827009486403,27.294688127912362,51.62363799656123,38.47076812334269,35.0,23.0,34.0,1.5,22.5,6.5,2.5,11.180339887498949,11.180339887498949,11.0,40.0,23.0,34.52535300326414
272,59,918,30.63059999999948,3.1622776601683795,88.81441324469807,5.0990195135927845,11.180339887498949,24.08318915758459,24.186773244895647,28.635642126552707,48.05205510693585,36.87817782917155,34.5,22.0,34.0,0.0,19.0,4.0,4.0,8.246211251235321,9.486832980505138,8.5,42.0,24.0,30.4138126514911
273,59,919,30.663966666666145,1.4142135623730951,89.80534505250787,4.123105625617661,12.165525060596439,24.08318915758459,25.179356624028344,30.59411708155671,48.05205510693585,35.90264614203248,34.5,22.0,34.0,2.0,19.0,4.0,5.0,9.055385138137417,9.055385138137417,9.0,41.0,24.0,29.427877939124322
274,59,920,30.69733333333281,3.1622776601683795,89.94442728707543,4.123105625617661,12.165525060596439,24.08318915758459,25.179356624028344,29.614185789921695,49.03060268852505,36.87817782917155,34.5,22.0,35.0,0.5,19.5,3.5,3.5,10.198039027185569,10.198039027185569,10.0,41.0,23.0,25.317977802344327
275,59,921,30.73069999999948,4.123105625617661,88.68483523128404,4.123105625617661,13.152946437965905,23.08679276123039,24.186773244895647,29.614185789921695,50.99019513592785,37.8549864614954,35.0,23.0,34.0,0.5,21.5,5.5,3.5,10.198039027185569,10.198039027185569,10.0,41.0,23.0,26.476404589747453
276,59,922,30.764066666666142,6.082762530298219,88.68483523128404,5.0990195135927845,13.152946437965905,22.090722034374522,23.194827009486403,28.442925306655784,52.773099207835045,39.6232255123179,36.0,24.0,35.0,1.5,22.5,6.5,2.5,10.04987562112089,10.198039027185569,10.5,41.0,23.0,32.38826948140329
277,59,923,30.79743333333281,6.082762530298219,86.70063436907483,5.385164807134504,14.142135623730951,21.02379604162864,23.194827009486403,28.442925306655784,53.600373133029585,39.45883931389772,36.0,25.0,36.0,2.5,22.5,5.5,1.5,12.165525060596439,11.180339887498949,11.5,41.0,24.0,36.345563690772494
278,59,924,30.830799999999478,4.0,86.70063436907483,4.123105625617661,14.142135623730951,21.02379604162864,23.08679276123039,28.442925306655784,50.635955604688654,36.49657518178932,34.0,24.0,35.0,1.5,20.5,4.5,1.5,11.045361017187261,11.045361017187261,11.5,39.0,22.0,37.48332962798263
279,59,925,30.86416666666614,3.0,85.70880934886448,5.0990195135927845,14.142135623730951,24.020824298928627,25.079872407968907,29.427877939124322,51.62363799656123,37.48332962798263,35.5,25.0,36.0,1.5,20.5,3.5,1.5,11.045361017187261,10.198039027185569,11.0,41.0,23.0,34.36568055487916
280,59,926,30.89753333333281,4.0,85.84287972802403,5.0990195135927845,14.142135623730951,24.020824298928627,24.08318915758459,28.442925306655784,51.62363799656123,37.48332962798263,35.0,24.0,36.0,2.0,21.0,4.0,2.0,11.180339887498949,11.180339887498949,11.0,42.0,23.0,30.4138126514911
281,59,927,30.930899999999472,3.1622776601683795,85.98837130682264,5.0990195135927845,15.132745950421556,23.08679276123039,24.186773244895647,29.427877939124322,52.773099207835045,37.656340767525464,35.5,23.0,36.0,0.5,22.5,4.5,3.5,11.180339887498949,11.180339887498949,11.0,40.0,21.0,34.36568055487916
282,59,928,30.964266666666138,4.123105625617661,83.86298349093002,5.0990195135927845,14.142135623730951,21.02379604162864,23.194827009486403,30.4138126514911,53.75872022286245,39.6232255123179,37.0,26.0,38.0,2.0,21.0,5.0,2.0,12.165525060596439,12.165525060596439,12.0,41.0,23.0,33.37663853655727
283,59,929,30.997633333332804,4.0,84.01190391843289,5.0990195135927845,14.317821063276353,22.090722034374522,24.186773244895647,30.59411708155671,53.9351462406472,39.6232255123179,37.0,25.0,38.0,1.5,21.5,3.5,2.5,10.04987562112089,10.198039027185569,10.5,42.0,22.0,34.36568055487916
284,59,930,31.03099999999947,4.123105625617661,86.97700845625813,5.0990195135927845,14.142135623730951,22.090722034374522,24.331050121192877,30.4138126514911,53.75872022286245,39.6232255123179,37.0,25.0,38.0,1.5,21.5,4.5,2.5,7.0710678118654755,7.615773105863909,7.0,42.0,22.0,33.54101966249684
285,59,931,31.064366666666132,1.4142135623730951,85.0,5.0990195135927845,13.152946437965905,22.090722034374522,23.194827009486403,31.400636936215164,50.80354318352215,37.656340767525464,36.5,25.0,38.0,0.5,18.5,2.5,3.5,8.246211251235321,10.44030650891055,9.5,41.0,21.0,28.635642126552707
286,59,932,31.0977333333328,2.0,85.98837130682264,4.123105625617661,12.165525060596439,22.090722034374522,23.194827009486403,32.55764119219941,50.80354318352215,38.63935817272331,37.0,25.0,38.0,0.5,18.5,3.5,3.5,8.06225774829855,8.54400374531753,8.0,41.0,21.0,31.400636936215164
287,59,933,31.131099999999467,3.0,85.84287972802403,4.47213595499958,14.142135623730951,21.095023109728988,22.20360331117452,31.25699921617557,52.61178575186362,38.47076812334269,36.5,25.0,37.0,0.0,21.0,4.0,4.0,8.06225774829855,8.246211251235321,8.0,41.0,20.0,34.52535300326414
288,59,934,31.164466666666133,4.0,85.84287972802403,5.385164807134504,15.132745950421556,21.02379604162864,23.08679276123039,29.427877939124322,53.75872022286245,38.63935817272331,36.0,24.0,36.0,1.0,23.0,5.0,3.0,8.246211251235321,8.246211251235321,8.0,40.0,21.0,33.37663853655727
289,59,935,31.1978333333328,6.0,86.83317338436964,5.0990195135927845,15.132745950421556,21.02379604162864,23.08679276123039,28.442925306655784,54.589376255824725,39.45883931389772,36.0,25.0,37.0,3.0,23.0,5.0,1.0,9.055385138137417,9.219544457292887,8.5,42.0,22.0,27.65863337187866
290,59,936,31.231199999999465,4.0,87.82368700982668,5.0990195135927845,15.132745950421556,23.08679276123039,24.186773244895647,29.832867780352597,53.9351462406472,38.8329756778952,36.0,24.0,36.0,1.0,23.0,5.0,3.0,9.219544457292887,9.486832980505138,9.5,40.0,20.0,32.38826948140329
291,59,937,31.26456666666613,2.0,87.96590248499699,5.385164807134504,14.142135623730951,23.021728866442675,24.331050121192877,29.427877939124322,50.80354318352215,36.6742416417845,35.0,23.0,36.0,0.5,20.5,3.5,2.5,9.219544457292887,10.44030650891055,10.5,42.0,22.0,34.52535300326414
292,59,938,31.2979333333328,3.0,87.96590248499699,4.47213595499958,14.142135623730951,23.08679276123039,23.194827009486403,30.4138126514911,51.78802950489621,37.656340767525464,35.5,24.0,37.0,0.5,20.5,3.5,2.5,10.04987562112089,10.198039027185569,10.5,41.0,21.0,34.36568055487916
293,59,939,31.331299999999462,3.0,89.10667763978185,4.123105625617661,13.152946437965905,22.090722034374522,23.194827009486403,30.59411708155671,50.80354318352215,37.656340767525464,35.5,23.0,37.0,0.0,20.0,4.0,3.0,10.198039027185569,11.180339887498949,11.5,41.0,20.0,33.734255586866
294,59,940,31.36466666666613,3.1622776601683795,87.96590248499699,5.0990195135927845,14.142135623730951,22.090722034374522,23.194827009486403,28.442925306655784,50.80354318352215,36.6742416417845,34.5,23.0,36.0,1.5,20.5,3.5,2.5,11.180339887498949,11.40175425099138,11.0,41.0,20.0,33.54101966249684
295,59,941,31.398033333332798,3.1622776601683795,88.28363381737297,6.324555320336759,13.152946437965905,22.20360331117452,24.186773244895647,29.274562336608895,51.78802950489621,38.63935817272331,36.5,23.0,38.0,1.5,20.5,3.5,3.5,10.44030650891055,10.198039027185569,10.5,42.0,20.0,34.713109915419565
296,59,942,31.43139999999946,4.123105625617661,89.26925562588724,5.0990195135927845,14.142135623730951,22.20360331117452,23.345235059857504,29.427877939124322,52.773099207835045,38.63935817272331,36.0,23.0,38.0,1.5,21.5,4.5,3.5,11.180339887498949,10.44030650891055,10.5,42.0,20.0,31.575306807693888
297,59,943,31.46476666666613,4.0,88.11923740024082,6.324555320336759,13.341664064126334,22.090722034374522,24.331050121192877,29.274562336608895,52.773099207835045,39.45883931389772,37.0,24.0,38.0,2.0,21.0,5.0,3.0,12.36931687685298,11.180339887498949,11.5,42.0,20.0,34.713109915419565
298,59,944,31.49813333333279,4.123105625617661,89.10667763978185,6.324555320336759,12.165525060596439,21.213203435596427,22.360679774997898,30.4138126514911,52.952809179494906,40.792156108742276,38.0,26.0,40.0,3.0,19.0,3.0,2.0,11.180339887498949,11.40175425099138,11.0,41.0,18.0,32.55764119219941
299,59,945,31.531499999999458,5.0990195135927845,90.2551937563706,5.0990195135927845,12.165525060596439,21.095023109728988,23.345235059857504,30.59411708155671,52.952809179494906,40.792156108742276,37.5,25.0,40.0,2.5,19.5,3.5,1.5,11.40175425099138,11.40175425099138,11.5,42.0,19.0,32.01562118716424
300,59,946,31.564866666666124,6.0,88.28363381737297,5.385164807134504,11.40175425099138,22.090722034374522,22.360679774997898,31.400636936215164,53.9351462406472,42.579337712087536,39.0,26.0,41.0,2.5,19.5,4.5,1.5,11.180339887498949,11.40175425099138,11.5,43.0,18.0,33.734255586866
301,59,947,31.59823333333279,5.0990195135927845,89.10667763978185,6.082762530298219,11.40175425099138,21.095023109728988,22.360679774997898,30.4138126514911,52.952809179494906,41.593268686170845,38.5,27.0,41.0,4.0,18.0,4.0,1.0,11.180339887498949,11.40175425099138,11.0,42.0,19.0,32.7566787083184
302,59,948,31.63159999999945,6.082762530298219,89.26925562588724,6.324555320336759,10.44030650891055,22.20360331117452,22.360679774997898,31.25699921617557,53.9351462406472,43.56604182158393,40.0,28.0,43.0,4.5,17.5,4.5,1.5,10.198039027185569,11.40175425099138,11.0,42.0,18.0,32.55764119219941
303,59,949,31.66496666666612,4.123105625617661,88.45903006477066,7.280109889280518,11.40175425099138,21.213203435596427,22.360679774997898,31.400636936215164,54.12947441089743,42.7551166528639,40.0,28.0,44.0,5.0,17.0,3.0,2.0,10.198039027185569,10.44030650891055,10.5,43.0,18.0,33.734255586866
304,59,950,31.698333333332787,7.0710678118654755,88.64536084872124,6.324555320336759,11.704699910719626,21.37755832643195,22.80350850198276,31.400636936215164,56.293871780150276,44.721359549995796,40.5,28.0,45.0,5.5,18.5,3.5,1.5,10.198039027185569,11.180339887498949,11.5,43.0,19.0,34.20526275297414
305,59,951,31.731699999999453,8.246211251235321,89.62700485902673,6.324555320336759,11.40175425099138,22.360679774997898,23.769728648009426,31.400636936215164,57.271284253105414,45.89117562233506,41.0,28.0,45.0,5.5,19.5,5.5,0.5,7.615773105863909,8.06225774829855,7.5,43.0,17.0,38.07886552931954
306,59,952,31.76506666666612,5.0990195135927845,88.64536084872124,6.324555320336759,11.40175425099138,20.396078054371138,21.587033144922902,30.4138126514911,53.150729063673246,41.773197148410844,38.5,28.0,45.0,6.5,15.5,1.5,0.5,5.385164807134504,7.211102550927978,6.5,44.0,20.0,31.04834939252005
307,59,953,31.798433333332785,8.246211251235321,87.66413177577246,6.082762530298219,12.36931687685298,22.20360331117452,23.53720459187964,31.78049716414141,58.463663928973865,46.09772228646444,41.0,29.0,46.0,6.5,19.5,4.5,0.5,7.615773105863909,8.06225774829855,7.5,43.0,18.0,32.28002478313795
308,59,954,31.83179999999945,9.055385138137417,90.60905032059435,6.324555320336759,11.40175425099138,22.561028345356956,23.769728648009426,31.575306807693888,58.249463516842795,46.87216658103186,41.5,29.0,46.0,6.5,19.5,4.5,0.5,6.324555320336759,8.94427190999916,8.0,43.0,18.0,32.984845004941285
309,59,955,31.86516666666612,5.0990195135927845,87.66413177577246,6.082762530298219,11.40175425099138,20.396078054371138,21.37755832643195,31.575306807693888,54.12947441089743,42.7551166528639,39.5,30.0,47.0,7.5,14.5,1.5,0.5,4.47213595499958,5.830951894845301,5.5,44.0,18.0,31.04834939252005
310,59,956,31.898533333332782,5.0990195135927845,88.64536084872124,6.324555320336759,10.770329614269007,20.615528128088304,21.587033144922902,31.400636936215164,53.36665625650534,42.7551166528639,39.5,29.0,46.0,6.5,14.5,1.5,1.5,7.280109889280518,6.708203932499369,6.5,44.0,18.0,32.01562118716424
311,59,957,31.931899999999448,5.0990195135927845,87.66413177577246,6.324555320336759,11.704699910719626,20.396078054371138,21.587033144922902,31.400636936215164,54.3415126767741,42.7551166528639,39.5,29.0,46.0,6.5,15.5,2.5,0.5,6.324555320336759,7.615773105863909,7.0,43.0,16.0,34.92849839314596
312,59,958,31.965266666666118,7.280109889280518,89.62700485902673,5.385164807134504,11.40175425099138,21.213203435596427,22.561028345356956,31.400636936215164,55.31726674375732,43.93176527297759,39.5,29.0,46.0,6.5,16.5,2.5,0.5,7.615773105863909,8.06225774829855,7.0,40.0,13.0,34.92849839314596
313,59,959,31.99863333333278,10.0,89.62700485902673,5.385164807134504,11.40175425099138,21.213203435596427,22.561028345356956,30.4138126514911,56.88585061331157,45.5411901469428,40.0,27.0,44.0,5.5,20.5,6.5,0.5,9.486832980505138,8.54400374531753,8.5,42.0,16.0,33.734255586866
314,59,960,32.03199999999945,10.0,88.45903006477066,5.385164807134504,12.165525060596439,21.37755832643195,22.561028345356956,30.265491900843113,57.55866572463264,45.39823785126467,40.0,27.0,43.0,5.0,22.0,7.0,1.0,10.44030650891055,10.198039027185569,10.5,43.0,17.0,35.17101079013795
315,59,961,32.065366666666115,9.0,90.60905032059435,5.385164807134504,13.341664064126334,21.213203435596427,23.53720459187964,30.265491900843113,57.706152185014034,44.40720662234904,39.5,25.0,42.0,3.5,23.5,6.5,1.5,9.219544457292887,10.44030650891055,10.0,41.0,17.0,31.78049716414141
316,59,962,32.09873333333278,7.0,87.47571091451616,5.0990195135927845,14.142135623730951,20.223748416156685,22.360679774997898,31.25699921617557,57.42821606144492,43.289721643826724,39.5,26.0,42.0,3.0,23.0,6.0,2.0,10.44030650891055,10.198039027185569,10.0,40.0,16.0,33.54101966249684
317,59,963,32.13209999999945,2.23606797749979,87.66413177577246,5.0990195135927845,12.36931687685298,20.223748416156685,21.587033144922902,32.55764119219941,52.172789842982326,39.81205847478876,38.0,23.0,40.0,0.5,19.5,3.5,4.5,8.246211251235321,8.54400374531753,8.0,39.0,15.0,31.78049716414141
318,59,964,32.16546666666611,1.4142135623730951,87.0976463516667,4.123105625617661,13.152946437965905,21.213203435596427,21.587033144922902,34.52535300326414,52.952809179494906,39.81205847478876,38.5,23.0,42.0,1.5,19.5,3.5,4.5,10.44030650891055,9.486832980505138,9.5,41.0,16.0,35.6931365951495
319,59,965,32.19883333333278,1.0,82.76472678623425,6.324555320336759,14.317821063276353,18.439088914585774,19.4164878389476,32.55764119219941,54.12947441089743,39.81205847478876,38.5,24.0,41.0,0.5,20.5,3.5,5.5,9.219544457292887,10.44030650891055,10.5,42.0,18.0,33.734255586866
320,59,966,32.232199999999445,6.082762530298219,83.74365647617735,6.082762530298219,15.132745950421556,18.439088914585774,20.396078054371138,32.55764119219941,59.841457201508724,44.721359549995796,41.0,27.0,44.0,3.5,23.5,4.5,2.5,9.219544457292887,9.486832980505138,9.5,40.0,17.0,32.01562118716424
321,59,967,32.26556666666611,8.06225774829855,83.54639429682169,6.324555320336759,16.278820596099706,19.4164878389476,21.587033144922902,31.575306807693888,62.16912416947821,45.89117562233506,41.0,28.0,44.0,5.0,25.0,6.0,1.0,10.44030650891055,10.198039027185569,10.5,43.0,20.0,31.78049716414141
322,59,968,32.298933333332776,8.06225774829855,83.54639429682169,6.082762530298219,11.40175425099138,18.24828759089466,20.396078054371138,29.614185789921695,55.10898293381942,43.73785545725808,39.0,28.0,44.0,7.0,18.0,4.0,1.0,10.198039027185569,11.40175425099138,11.5,40.0,19.0,29.614185789921695
323,59,969,32.33229999999944,5.0,82.20097323024831,5.385164807134504,11.180339887498949,18.439088914585774,19.4164878389476,31.78049716414141,53.150729063673246,41.97618372363071,38.5,29.0,43.0,5.0,16.0,2.0,1.0,10.198039027185569,10.44030650891055,10.5,38.0,19.0,32.55764119219941
324,59,970,32.36566666666611,4.123105625617661,85.0,6.082762530298219,11.180339887498949,19.1049731745428,20.396078054371138,33.24154027718932,54.57105459856901,43.41658669218482,40.0,27.0,40.0,1.5,19.5,6.5,3.5,10.04987562112089,10.44030650891055,10.5,39.0,18.0,30.59411708155671
325,59,971,32.399033333332774,3.0,83.86298349093002,4.123105625617661,11.180339887498949,20.024984394500787,20.223748416156685,33.24154027718932,51.419840528729765,40.26164427839479,37.5,25.0,37.0,1.0,19.0,6.0,4.0,10.04987562112089,10.198039027185569,11.0,39.0,20.0,28.442925306655784
326,59,972,32.43239999999944,2.0,85.70880934886448,4.123105625617661,12.165525060596439,20.09975124224178,21.213203435596427,32.984845004941285,51.19570294468082,39.05124837953327,37.0,25.0,36.0,1.5,19.5,4.5,4.5,11.180339887498949,11.180339887498949,11.5,38.0,21.0,29.427877939124322
327,59,973,32.465766666666106,2.23606797749979,84.8528137423857,5.0990195135927845,14.142135623730951,20.09975124224178,21.213203435596427,32.7566787083184,54.12947441089743,40.024992192379,38.0,26.0,38.0,0.0,21.0,4.0,4.0,10.198039027185569,9.219544457292887,9.5,38.0,20.0,29.427877939124322
328,59,974,32.49913333333277,5.0,82.60750571225353,5.385164807134504,15.132745950421556,20.024984394500787,21.213203435596427,30.59411708155671,55.90169943749474,40.792156108742276,37.5,27.0,37.0,2.0,23.0,6.0,2.0,10.04987562112089,11.180339887498949,11.0,37.0,21.0,32.38826948140329
329,59,975,32.53249999999944,7.0,82.87339742040264,4.123105625617661,15.132745950421556,19.1049731745428,22.090722034374522,30.805843601498726,56.88585061331157,41.773197148410844,37.5,26.0,38.0,2.0,24.0,7.0,2.0,10.04987562112089,11.180339887498949,12.0,37.0,22.0,33.37663853655727
330,59,976,32.5658666666661,6.0,84.71717653463199,5.0990195135927845,15.132745950421556,19.026297590440446,22.090722034374522,29.614185789921695,55.731499172371095,40.607881008493905,37.0,25.0,36.0,1.5,24.5,7.5,2.5,10.04987562112089,11.180339887498949,11.5,36.0,22.0,31.25699921617557
331,59,977,32.59923333333277,6.0,83.72574275573791,5.385164807134504,17.029386365926403,19.026297590440446,22.090722034374522,29.427877939124322,57.55866572463264,40.607881008493905,37.0,25.0,36.0,1.5,26.5,7.5,2.5,9.055385138137417,9.219544457292887,10.0,37.0,22.0,31.400636936215164
332,59,978,32.632599999999435,7.0,84.71717653463199,6.082762530298219,16.1245154965971,19.026297590440446,21.095023109728988,27.459060435491963,56.568542494923804,40.44749683231337,36.5,23.0,34.0,1.5,27.5,8.5,3.5,11.045361017187261,11.180339887498949,11.5,38.0,23.0,29.427877939124322
333,59,979,32.6659666666661,10.04987562112089,82.03657720797473,5.0990195135927845,17.029386365926403,19.1049731745428,21.095023109728988,27.459060435491963,59.53990258641679,42.579337712087536,37.0,25.0,38.0,4.5,27.5,8.5,0.5,10.04987562112089,11.180339887498949,11.5,38.0,23.0,30.4138126514911
334,59,980,32.69933333333277,12.041594578792296,85.98837130682264,5.0990195135927845,16.1245154965971,20.09975124224178,22.090722034374522,27.65863337187866,60.8276253029822,44.721359549995796,38.0,23.0,36.0,2.5,30.5,11.5,2.5,11.045361017187261,11.180339887498949,11.5,37.0,22.0,31.575306807693888
335,59,981,32.73269999999943,9.055385138137417,84.71717653463199,5.0990195135927845,14.142135623730951,18.110770276274835,21.213203435596427,28.635642126552707,56.88585061331157,42.7551166528639,37.5,25.0,36.0,2.5,25.5,8.5,2.5,10.04987562112089,11.180339887498949,12.0,37.0,22.0,30.4138126514911
336,59,982,32.7660666666661,6.082762530298219,86.70063436907483,5.0990195135927845,12.041594578792296,19.1049731745428,20.09975124224178,28.635642126552707,51.78802950489621,39.81205847478876,36.0,25.0,36.0,2.5,20.5,6.5,2.5,10.04987562112089,10.198039027185569,10.5,35.0,22.0,32.38826948140329
337,59,983,32.799433333332765,5.0,86.57944328765345,6.082762530298219,11.180339887498949,20.024984394500787,21.095023109728988,27.892651361962706,50.00999900019995,38.8329756778952,35.5,24.0,34.0,2.0,20.0,6.0,3.0,9.219544457292887,9.055385138137417,10.0,38.0,22.0,31.400636936215164
338,59,984,32.83279999999943,5.0,86.70063436907483,5.0990195135927845,11.180339887498949,21.095023109728988,21.095023109728988,28.635642126552707,49.8196748283246,38.63935817272331,35.5,25.0,36.0,2.5,18.5,5.5,2.5,10.198039027185569,11.180339887498949,12.0,39.0,23.0,32.38826948140329
339,59,985,32.866166666666096,5.0,84.5931439302264,6.082762530298219,10.198039027185569,20.024984394500787,21.213203435596427,28.861739379323623,50.00999900019995,39.81205847478876,36.5,27.0,37.0,4.0,17.0,4.0,1.0,9.055385138137417,10.198039027185569,10.5,39.0,23.0,32.38826948140329
340,59,986,32.89953333333276,6.082762530298219,83.72574275573791,6.082762530298219,12.165525060596439,20.09975124224178,22.20360331117452,28.635642126552707,52.952809179494906,40.792156108742276,37.0,28.0,39.0,5.5,18.5,4.5,0.5,10.198039027185569,11.180339887498949,11.5,39.0,23.0,30.59411708155671
341,59,987,32.93289999999943,7.0710678118654755,83.72574275573791,6.082762530298219,11.180339887498949,20.223748416156685,21.213203435596427,28.861739379323623,53.150729063673246,41.97618372363071,37.5,29.0,40.0,6.5,17.5,3.5,0.5,10.04987562112089,12.165525060596439,12.5,39.0,22.0,30.59411708155671
342,59,988,32.966266666666094,9.055385138137417,82.73451516749222,6.082762530298219,12.36931687685298,20.09975124224178,21.213203435596427,27.65863337187866,55.10898293381942,42.7551166528639,37.5,28.0,39.0,6.5,20.5,6.5,0.5,11.180339887498949,12.165525060596439,12.5,40.0,25.0,31.575306807693888
343,59,989,32.99963333333276,7.0710678118654755,81.74350127074322,5.0990195135927845,11.180339887498949,20.09975124224178,21.095023109728988,29.614185789921695,52.952809179494906,41.773197148410844,37.5,29.0,40.0,5.5,17.5,4.5,0.5,11.045361017187261,11.180339887498949,12.0,39.0,23.0,32.38826948140329
344,59,990,33.032999999999426,6.082762530298219,80.50465825031493,6.082762530298219,13.152946437965905,19.1049731745428,20.09975124224178,29.614185789921695,54.91812087098393,41.773197148410844,38.0,29.0,38.0,4.5,20.5,5.5,0.5,10.198039027185569,10.198039027185569,10.5,41.0,25.0,29.614185789921695
345,59,991,33.06636666666609,4.0,81.49846624323675,5.0990195135927845,13.152946437965905,18.027756377319946,20.09975124224178,31.575306807693888,53.75872022286245,40.607881008493905,38.0,30.0,39.0,3.5,18.5,3.5,0.5,10.04987562112089,11.180339887498949,11.5,39.0,23.0,29.427877939124322
346,59,992,33.09973333333276,1.4142135623730951,82.49242389456137,5.0990195135927845,13.152946437965905,19.026297590440446,19.1049731745428,32.55764119219941,51.62363799656123,38.47076812334269,37.5,29.0,38.0,1.5,17.5,2.5,2.5,11.045361017187261,12.165525060596439,12.5,38.0,22.0,29.427877939124322
347,59,993,33.13309999999942,2.0,81.49846624323675,5.0990195135927845,13.152946437965905,19.026297590440446,20.09975124224178,31.400636936215164,51.62363799656123,38.47076812334269,37.0,28.0,37.0,1.5,18.5,2.5,2.5,11.045361017187261,12.165525060596439,12.0,37.0,22.0,32.38826948140329
348,59,994,33.16646666666609,2.0,77.64663547121665,4.47213595499958,13.038404810405298,18.027756377319946,20.09975124224178,32.38826948140329,51.62363799656123,38.63935817272331,37.0,28.0,38.0,1.0,18.0,3.0,2.0,10.04987562112089,10.198039027185569,10.5,37.0,22.0,31.400636936215164
349,59,995,33.199833333332755,4.0,78.63841300535,5.0990195135927845,15.297058540778355,18.027756377319946,20.09975124224178,31.575306807693888,55.90169943749474,40.607881008493905,38.0,29.0,39.0,3.0,21.0,4.0,1.0,10.04987562112089,11.40175425099138,11.5,36.0,22.0,31.25699921617557
350,59,996,33.23319999999942,8.06225774829855,77.41446893184762,5.0990195135927845,16.1245154965971,19.026297590440446,22.090722034374522,30.265491900843113,59.53990258641679,43.41658669218482,39.0,31.0,39.0,5.0,24.0,5.0,1.0,10.04987562112089,12.165525060596439,12.5,36.0,22.0,29.614185789921695
351,59,997,33.26656666666609,8.06225774829855,78.40918313565064,6.324555320336759,18.110770276274835,20.024984394500787,22.090722034374522,29.427877939124322,61.814237842102365,43.73785545725808,39.0,31.0,39.0,6.0,26.0,7.0,1.0,10.04987562112089,11.045361017187261,11.5,37.0,23.0,32.38826948140329
352,59,998,33.29993333333275,8.0,80.39900496896712,5.385164807134504,16.278820596099706,19.026297590440446,21.02379604162864,29.614185789921695,59.033888572581766,42.7551166528639,38.0,31.0,39.0,6.0,23.0,5.0,2.0,12.041594578792296,12.041594578792296,12.5,38.0,24.0,33.54101966249684
353,59,999,33.33329999999942,6.082762530298219,81.30190649671138,4.123105625617661,13.152946437965905,20.024984394500787,22.090722034374522,30.59411708155671,53.9351462406472,40.792156108742276,37.0,31.0,38.0,4.5,18.5,3.5,1.5,10.04987562112089,11.180339887498949,11.5,36.0,23.0,31.25699921617557
354,59,1000,33.366666666666084,4.0,82.38931969618392,4.123105625617661,13.152946437965905,19.0,20.024984394500787,30.805843601498726,51.97114584074513,38.8329756778952,36.0,29.0,37.0,3.0,18.0,3.0,0.0,11.045361017187261,13.038404810405298,13.5,36.0,22.0,33.24154027718932
355,59,1001,33.40003333333275,3.0,81.30190649671138,4.123105625617661,13.152946437965905,20.024984394500787,21.02379604162864,30.59411708155671,50.80354318352215,37.656340767525464,35.5,29.0,36.0,2.5,17.5,2.5,0.5,12.041594578792296,13.038404810405298,14.0,36.0,23.0,31.25699921617557
356,59,1002,33.433399999999416,4.123105625617661,82.38931969618392,4.123105625617661,14.142135623730951,21.02379604162864,22.090722034374522,30.4138126514911,52.773099207835045,38.63935817272331,36.0,29.0,37.0,3.0,19.0,2.0,0.0,12.165525060596439,12.041594578792296,12.5,36.0,22.0,33.37663853655727
357,59,1003,33.46676666666608,4.123105625617661,82.49242389456137,5.0990195135927845,15.132745950421556,20.024984394500787,21.095023109728988,29.614185789921695,53.9351462406472,38.8329756778952,36.0,28.0,37.0,3.5,20.5,3.5,0.5,11.180339887498949,11.180339887498949,11.5,35.0,22.0,36.22154055254967
358,59,1004,33.50013333333275,6.082762530298219,81.49846624323675,4.123105625617661,15.132745950421556,20.024984394500787,21.02379604162864,30.4138126514911,55.731499172371095,40.607881008493905,37.0,29.0,38.0,3.5,21.5,4.5,0.5,10.04987562112089,10.198039027185569,10.5,35.0,22.0,30.265491900843113
359,59,1005,33.533499999999414,7.0710678118654755,80.50465825031493,5.0990195135927845,15.132745950421556,19.0,20.024984394500787,29.427877939124322,56.71860364994893,41.593268686170845,37.5,29.0,38.0,4.5,22.5,5.5,0.5,10.04987562112089,10.04987562112089,10.5,36.0,23.0,33.13608305156178
360,59,1006,33.56686666666608,8.06225774829855,81.49846624323675,5.0990195135927845,16.1245154965971,19.026297590440446,21.095023109728988,30.4138126514911,59.682493245507096,43.56604182158393,39.0,30.0,39.0,4.5,24.5,6.5,0.5,11.0,11.045361017187261,11.0,36.0,22.0,33.24154027718932
361,59,1007,33.600233333332746,8.0,84.38009243891595,5.0990195135927845,14.317821063276353,20.024984394500787,22.090722034374522,29.832867780352597,57.0701322935211,42.7551166528639,38.0,29.0,37.0,4.0,23.0,7.0,0.0,9.055385138137417,10.04987562112089,10.5,37.0,23.0,35.35533905932738
362,59,1008,33.63359999999941,5.0,83.48652585896721,5.0990195135927845,12.165525060596439,20.024984394500787,21.095023109728988,28.635642126552707,50.80354318352215,38.63935817272331,35.5,28.0,37.0,4.5,17.5,3.5,0.5,5.0990195135927845,6.324555320336759,6.0,39.0,24.0,31.25699921617557
363,59,1009,33.66696666666608,9.0,83.60023923410746,5.0990195135927845,14.142135623730951,20.024984394500787,22.20360331117452,28.861739379323623,56.88585061331157,42.7551166528639,37.5,29.0,39.0,6.0,22.0,6.0,1.0,7.0710678118654755,8.246211251235321,8.0,38.0,23.0,29.274562336608895
364,59,1010,33.70033333333274,7.0,85.47514258543241,4.123105625617661,12.041594578792296,21.02379604162864,22.090722034374522,29.614185789921695,52.61178575186362,40.607881008493905,36.5,28.0,37.0,3.5,19.5,4.5,0.5,8.06225774829855,9.219544457292887,8.5,38.0,23.0,29.154759474226502
365,59,1011,33.73369999999941,4.0,87.46427842267951,6.082762530298219,11.180339887498949,22.02271554554524,24.186773244895647,30.59411708155671,51.78802950489621,40.607881008493905,38.0,27.0,36.0,1.5,19.5,6.5,3.5,6.082762530298219,7.280109889280518,7.5,37.0,21.0,32.2490309931942
366,59,1012,33.767066666666075,2.0,88.45903006477066,6.082762530298219,10.198039027185569,21.02379604162864,22.090722034374522,31.575306807693888,49.8196748283246,39.6232255123179,38.0,28.0,37.0,1.5,16.5,4.5,3.5,7.0710678118654755,8.246211251235321,8.0,37.0,21.0,33.24154027718932
367,59,1013,33.80043333333274,2.0,89.45389874119518,5.0990195135927845,10.198039027185569,20.024984394500787,21.095023109728988,32.7566787083184,50.00999900019995,39.81205847478876,38.0,28.0,37.0,0.5,16.5,4.5,3.5,8.06225774829855,8.246211251235321,8.0,37.0,22.0,33.24154027718932
368,59,1014,33.83379999999941,3.0,88.45903006477066,5.0990195135927845,9.219544457292887,20.024984394500787,22.090722034374522,32.7566787083184,50.00999900019995,40.792156108742276,38.5,28.0,37.0,0.5,16.5,4.5,3.5,9.0,9.219544457292887,9.5,36.0,22.0,29.274562336608895
369,59,1015,33.86716666666607,5.0990195135927845,88.68483523128404,5.0990195135927845,10.04987562112089,19.1049731745428,21.213203435596427,31.575306807693888,51.78802950489621,41.773197148410844,38.5,28.0,39.0,2.5,17.5,5.5,2.5,9.055385138137417,10.198039027185569,10.0,37.0,22.0,30.4138126514911
370,59,1016,33.90053333333274,6.082762530298219,89.67719888578144,6.082762530298219,10.44030650891055,20.223748416156685,22.20360331117452,29.614185789921695,52.172789842982326,41.773197148410844,38.0,29.0,40.0,5.5,16.5,4.5,1.5,9.219544457292887,10.198039027185569,10.5,38.0,21.0,32.38826948140329
371,59,1017,33.933899999999404,4.123105625617661,90.93404203047393,6.082762530298219,12.165525060596439,21.213203435596427,22.360679774997898,30.805843601498726,53.150729063673246,41.0,38.0,28.0,41.0,4.5,17.5,3.5,1.5,8.0,8.246211251235321,9.0,37.0,21.0,30.4138126514911
372,59,1018,33.96726666666607,6.082762530298219,90.79647570252934,6.082762530298219,9.219544457292887,21.095023109728988,22.20360331117452,30.805843601498726,52.172789842982326,42.95346318982906,39.0,29.0,41.0,5.0,16.0,4.0,1.0,9.055385138137417,10.198039027185569,10.0,37.0,20.0,34.36568055487916
373,59,1019,34.000633333332736,3.1622776601683795,90.79647570252934,7.0710678118654755,10.198039027185569,21.213203435596427,22.360679774997898,30.59411708155671,50.99019513592785,40.792156108742276,38.5,29.0,41.0,5.0,15.0,2.0,2.0,9.055385138137417,10.198039027185569,10.5,38.0,22.0,31.400636936215164
374,59,1020,34.0339999999994,5.0990195135927845,90.79647570252934,7.0710678118654755,11.180339887498949,22.20360331117452,23.345235059857504,29.832867780352597,53.150729063673246,41.97618372363071,38.5,29.0,41.0,6.0,17.0,3.0,1.0,9.219544457292887,10.198039027185569,10.5,39.0,22.0,38.2099463490856
375,59,1021,34.06736666666607,7.0,90.79647570252934,6.324555320336759,10.198039027185569,22.20360331117452,23.345235059857504,29.832867780352597,53.150729063673246,42.95346318982906,38.5,29.0,41.0,6.0,17.0,4.0,1.0,9.219544457292887,9.219544457292887,10.0,36.0,20.0,35.22782990761707
376,59,1022,34.100733333332734,8.06225774829855,91.92388155425118,6.082762530298219,11.180339887498949,22.20360331117452,22.360679774997898,29.832867780352597,55.10898293381942,43.93176527297759,39.0,29.0,42.0,6.5,18.5,4.5,0.5,10.04987562112089,10.198039027185569,10.5,38.0,21.0,31.25699921617557
377,59,1023,34.1340999999994,4.123105625617661,91.54780172128658,7.0710678118654755,10.04987562112089,23.194827009486403,23.194827009486403,28.635642126552707,49.8196748283246,39.81205847478876,37.0,28.0,38.0,5.0,16.0,4.0,2.0,8.06225774829855,9.219544457292887,10.0,36.0,21.0,34.36568055487916
378,59,1024,34.167466666666066,2.23606797749979,91.44397191723465,6.082762530298219,9.055385138137417,21.095023109728988,21.213203435596427,28.635642126552707,45.89117562233506,36.87817782917155,35.0,28.0,37.0,4.5,12.5,1.5,1.5,8.246211251235321,8.246211251235321,9.0,36.0,20.0,34.52535300326414
379,59,1025,34.20083333333273,2.0,90.44888059008801,5.0990195135927845,10.198039027185569,22.090722034374522,22.090722034374522,29.832867780352597,47.07440918375928,36.87817782917155,35.0,28.0,37.0,3.5,13.5,1.5,1.5,9.055385138137417,8.246211251235321,9.0,37.0,21.0,35.35533905932738
380,59,1026,34.2341999999994,2.23606797749979,92.43916918709297,7.0710678118654755,11.180339887498949,22.02271554554524,22.090722034374522,29.427877939124322,49.8196748283246,38.63935817272331,37.0,28.0,37.0,3.5,16.5,3.5,2.5,9.055385138137417,9.055385138137417,9.0,38.0,24.0,33.37663853655727
381,59,1027,34.26756666666606,8.0,92.43916918709297,6.082762530298219,11.180339887498949,22.090722034374522,23.194827009486403,30.59411708155671,55.731499172371095,44.553338819890925,40.0,29.0,38.0,3.5,21.5,8.5,2.5,7.0710678118654755,9.219544457292887,9.0,38.0,22.0,34.36568055487916
382,59,1028,34.30093333333273,8.06225774829855,93.34345183246653,6.082762530298219,12.165525060596439,21.095023109728988,22.20360331117452,30.59411708155671,56.88585061331157,44.721359549995796,40.0,29.0,37.0,3.0,23.0,9.0,3.0,10.198039027185569,10.198039027185569,11.0,37.0,24.0,39.319206502675
383,59,1029,34.334299999999395,5.0,92.34717104492157,6.082762530298219,12.165525060596439,21.095023109728988,22.20360331117452,31.575306807693888,54.74486277268398,42.579337712087536,39.5,28.0,36.0,1.0,22.0,8.0,5.0,10.04987562112089,10.04987562112089,10.5,36.0,23.0,37.21558813185679
384,59,1030,34.36766666666606,1.0,91.19758768739445,5.0990195135927845,8.06225774829855,22.02271554554524,22.090722034374522,32.55764119219941,46.69047011971501,38.63935817272331,37.5,28.0,34.0,1.0,15.0,5.0,5.0,10.04987562112089,10.04987562112089,11.0,36.0,24.0,34.36568055487916
385,59,1031,34.40103333333273,0.0,92.13576938409967,6.082762530298219,9.055385138137417,22.0,22.02271554554524,32.38826948140329,47.51841748206689,38.47076812334269,38.0,28.0,33.0,1.5,16.5,5.5,5.5,11.045361017187261,11.045361017187261,11.5,36.0,26.0,32.0624390837628
386,59,1032,34.43439999999939,1.0,91.13725912051558,5.0990195135927845,8.06225774829855,23.021728866442675,22.02271554554524,33.37663853655727,46.69047011971501,38.63935817272331,38.0,29.0,34.0,1.5,14.5,4.5,5.5,11.045361017187261,11.045361017187261,11.5,37.0,26.0,34.23448553724738
387,59,1033,34.46776666666606,3.0,90.08884503644167,5.0990195135927845,9.055385138137417,22.02271554554524,23.021728866442675,32.55764119219941,49.64876634922564,40.607881008493905,38.5,30.0,34.0,0.0,17.0,6.0,4.0,10.0,10.04987562112089,10.0,35.0,27.0,33.24154027718932
388,59,1034,34.501133333332724,6.082762530298219,92.19544457292888,6.082762530298219,11.180339887498949,22.02271554554524,23.021728866442675,29.614185789921695,52.952809179494906,41.773197148410844,38.0,29.0,35.0,3.0,20.0,7.0,2.0,11.0,11.045361017187261,11.5,36.0,28.0,34.132096331752024
389,59,1035,34.53449999999939,5.0990195135927845,95.08417323613851,7.0710678118654755,12.041594578792296,23.021728866442675,24.020824298928627,28.635642126552707,52.773099207835045,40.792156108742276,37.5,29.0,33.0,3.0,21.0,7.0,3.0,10.04987562112089,11.045361017187261,11.0,35.0,29.0,33.06055050963308
390,59,1036,34.567866666666056,8.06225774829855,94.26027795418386,6.082762530298219,12.041594578792296,23.021728866442675,25.019992006393608,27.65863337187866,53.75872022286245,41.773197148410844,37.0,28.0,35.0,4.5,21.5,7.5,1.5,13.038404810405298,13.038404810405298,13.5,38.0,33.0,38.05259518088089
391,59,1037,34.60123333333272,10.198039027185569,94.19129471453293,6.0,12.041594578792296,24.08318915758459,26.076809620810597,28.635642126552707,56.71860364994893,44.721359549995796,39.0,30.0,36.0,5.0,23.0,9.0,1.0,11.0,12.041594578792296,12.5,43.0,38.0,41.048751503547585
392,59,1038,34.63459999999939,10.04987562112089,93.13431161500041,7.0710678118654755,14.035668847618199,23.08679276123039,25.079872407968907,27.892651361962706,58.855755878248644,44.91102314577124,39.0,31.0,36.0,6.5,24.5,8.5,0.5,12.041594578792296,14.035668847618199,14.5,46.0,39.0,52.03844732503075
393,59,1039,34.667966666666054,11.045361017187261,93.08598175880189,8.0,13.038404810405298,23.08679276123039,24.08318915758459,29.832867780352597,61.66036003787198,48.662100242385755,42.5,35.0,39.0,8.0,24.0,9.0,0.0,12.041594578792296,13.038404810405298,13.5,47.0,40.0,45.0111097397076
394,59,1040,34.70133333333272,12.041594578792296,93.1933474020544,8.06225774829855,14.142135623730951,23.08679276123039,25.179356624028344,28.442925306655784,62.64982043070834,48.507731342539614,42.0,35.0,41.0,10.0,24.0,8.0,2.0,12.0,13.152946437965905,13.5,45.0,38.0,43.104524124504614
395,59,1041,34.734699999999386,14.0,93.13431161500041,8.06225774829855,14.035668847618199,23.021728866442675,25.079872407968907,28.442925306655784,64.38167441127949,50.35871324805669,43.0,37.0,42.0,11.5,24.5,9.5,3.5,12.0,13.038404810405298,13.5,44.0,36.0,42.190046219457976
396,59,1042,34.76806666666605,17.029386365926403,94.13288479590966,8.06225774829855,13.152946437965905,24.020824298928627,25.079872407968907,27.459060435491963,65.62011886609167,52.46903848937962,43.5,37.0,42.0,12.5,25.5,10.5,4.5,11.045361017187261,12.041594578792296,12.5,41.0,33.0,40.19950248448356
397,59,1043,34.80143333333272,18.027756377319946,94.19129471453293,7.0710678118654755,13.038404810405298,23.021728866442675,25.079872407968907,27.459060435491963,65.49045732013177,52.46903848937962,43.0,36.0,42.0,12.0,26.0,11.0,5.0,12.041594578792296,12.041594578792296,12.5,38.0,29.0,34.36568055487916
398,59,1044,34.83479999999938,16.0312195418814,93.1933474020544,7.0710678118654755,12.041594578792296,24.020824298928627,25.079872407968907,27.294688127912362,62.39390995922599,50.35871324805669,42.0,35.0,41.0,11.0,24.0,10.0,4.0,11.045361017187261,11.180339887498949,11.5,38.0,28.0,37.21558813185679
399,59,1045,34.86816666666605,13.038404810405298,92.26592003551474,7.0710678118654755,12.041594578792296,25.079872407968907,26.1725046566048,27.294688127912362,59.413803110051795,47.38143096192854,40.5,34.0,41.0,10.5,21.5,7.5,3.5,10.0,11.045361017187261,11.0,38.0,28.0,39.11521443121589
400,59,1046,34.901533333332715,12.041594578792296,93.1933474020544,6.082762530298219,11.045361017187261,23.08679276123039,24.08318915758459,28.284271247461902,57.42821606144492,46.389654018972806,40.0,33.0,39.0,8.0,21.0,8.0,2.0,11.045361017187261,11.045361017187261,11.5,36.0,27.0,38.2099463490856
401,59,1047,34.93489999999938,9.055385138137417,93.1933474020544,7.0710678118654755,12.041594578792296,23.08679276123039,24.08318915758459,27.294688127912362,55.44366510251645,43.41658669218482,38.5,31.0,37.0,7.0,21.0,7.0,0.0,11.045361017187261,12.041594578792296,12.5,37.0,27.0,38.2099463490856
402,59,1048,34.96826666666605,6.0,92.13576938409967,6.082762530298219,12.165525060596439,23.021728866442675,24.020824298928627,28.442925306655784,52.61178575186362,40.44749683231337,37.0,31.0,36.0,5.5,18.5,5.5,0.5,10.04987562112089,10.04987562112089,10.5,37.0,26.0,36.124783736376884
403,59,1049,35.00163333333271,8.06225774829855,93.08598175880189,5.0,12.041594578792296,23.021728866442675,24.020824298928627,27.459060435491963,52.46903848937962,40.44749683231337,36.0,30.0,34.0,5.0,20.0,6.0,0.0,10.04987562112089,12.041594578792296,12.0,36.0,27.0,37.12142238654117
404,59,1050,35.03499999999938,6.0,95.08417323613851,7.0710678118654755,12.041594578792296,25.019992006393608,25.079872407968907,27.294688127912362,52.3450093132096,40.311288741492746,37.0,30.0,34.0,5.0,20.0,6.0,1.0,10.04987562112089,11.045361017187261,11.0,36.0,28.0,34.23448553724738
405,59,1051,35.068366666666044,7.0710678118654755,95.08417323613851,6.0,10.0,23.0,25.0,26.476404589747453,49.36598018878993,39.45883931389772,35.5,29.0,33.0,5.0,18.0,6.0,1.0,12.0,12.041594578792296,12.5,35.0,28.0,33.13608305156178
406,59,1052,35.10173333333271,7.0,95.04735661763561,6.082762530298219,13.038404810405298,25.019992006393608,27.0,26.30589287593181,52.3450093132096,39.319206502675,35.5,29.0,32.0,4.5,21.5,6.5,0.5,10.0,10.04987562112089,10.5,34.0,28.0,32.14031735997639
407,59,1053,35.135099999999376,7.0710678118654755,95.02105029939419,5.0,11.0,25.0,26.0,27.459060435491963,50.35871324805669,39.45883931389772,35.5,30.0,32.0,4.0,19.0,6.0,0.0,11.0,11.045361017187261,11.5,35.0,28.0,33.06055050963308
408,59,1054,35.16846666666604,4.123105625617661,95.02105029939419,6.0,12.0,25.0,25.0,27.294688127912362,49.25444142409901,37.33630940518894,35.0,29.0,31.0,3.0,19.0,6.0,1.0,10.0,10.04987562112089,10.5,35.0,29.0,33.13608305156178
409,59,1055,35.20183333333271,8.06225774829855,92.0869154657707,5.0990195135927845,11.045361017187261,23.0,25.019992006393608,29.154759474226502,53.33854141237835,42.2965719651132,38.0,29.0,33.0,2.0,22.0,9.0,1.0,7.0,6.082762530298219,6.5,35.0,28.0,35.12833614050059
410,59,1056,35.235199999999374,5.0,93.08598175880189,5.0990195135927845,9.055385138137417,23.0,23.0,30.066592756745816,49.16299421312742,40.11234224026316,37.5,29.0,33.0,1.0,18.0,7.0,2.0,6.0,6.324555320336759,6.0,37.0,28.0,36.05551275463989
411,59,1057,35.26856666666604,2.0,90.08884503644167,5.0,10.04987562112089,21.0,22.02271554554524,31.144823004794873,48.16637831516918,38.118237105091836,37.0,29.0,33.0,0.0,17.0,5.0,3.0,7.0,9.055385138137417,8.5,35.0,27.0,33.06055050963308
412,59,1058,35.301933333332705,2.0,90.13878188659973,4.0,11.045361017187261,21.0,23.021728866442675,32.14031735997639,49.16299421312742,38.118237105091836,37.0,29.0,34.0,0.5,17.5,4.5,3.5,8.0,8.246211251235321,8.0,35.0,27.0,33.06055050963308
413,59,1059,35.33529999999937,2.0,89.1403387922662,5.0,10.0,22.02271554554524,23.021728866442675,32.14031735997639,49.09175083453431,39.11521443121589,38.0,30.0,35.0,0.5,16.5,4.5,3.5,8.0,9.055385138137417,9.0,35.0,26.0,33.06055050963308
414,59,1060,35.36866666666604,1.0,90.19977827023745,6.082762530298219,9.0,21.02379604162864,22.02271554554524,32.14031735997639,48.16637831516918,39.20459156782532,38.5,30.0,36.0,1.0,15.0,4.0,4.0,7.0,8.06225774829855,8.0,36.0,27.0,32.14031735997639
415,59,1061,35.4020333333327,1.0,91.08786966440702,6.082762530298219,9.055385138137417,22.02271554554524,22.02271554554524,33.06055050963308,48.093658625644196,39.05124837953327,39.0,33.0,37.0,2.0,13.0,2.0,3.0,7.0710678118654755,8.06225774829855,7.5,35.0,25.0,33.13608305156178
416,59,1062,35.43539999999937,1.0,93.13431161500041,10.04987562112089,11.045361017187261,24.020824298928627,25.019992006393608,27.018512172212592,48.16637831516918,37.12142238654117,37.0,32.0,37.0,7.5,13.5,1.5,1.5,7.0710678118654755,8.06225774829855,7.5,36.0,26.0,35.12833614050059
417,59,1063,35.468766666666035,0.0,92.0869154657707,10.04987562112089,10.04987562112089,24.020824298928627,24.020824298928627,27.16615541441225,47.265209192385896,37.21558813185679,37.0,33.0,37.0,8.0,12.0,0.0,1.0,8.06225774829855,8.06225774829855,8.0,35.0,24.0,29.154759474226502
418,59,1064,35.5021333333327,1.0,95.1892851112981,10.0,11.045361017187261,24.020824298928627,25.079872407968907,26.1725046566048,47.265209192385896,36.22154055254967,36.0,32.0,38.0,9.0,12.0,1.0,0.0,8.06225774829855,9.219544457292887,8.5,38.0,25.0,28.284271247461902
419,59,1065,35.53549999999937,0.0,95.1892851112981,9.0,10.198039027185569,24.020824298928627,25.079872407968907,26.1725046566048,45.27692569068709,35.12833614050059,35.0,31.0,37.0,8.0,11.0,1.0,0.0,9.055385138137417,10.04987562112089,9.5,39.0,26.0,27.294688127912362
420,59,1066,35.56886666666603,0.0,94.42986815621421,5.0990195135927845,9.219544457292887,22.090722034374522,22.20360331117452,29.154759474226502,43.41658669218482,34.23448553724738,34.0,29.0,38.0,4.5,9.5,1.5,0.5,9.055385138137417,10.04987562112089,10.0,38.0,23.0,30.265491900843113
421,59,1067,35.6022333333327,1.0,94.42986815621421,5.385164807134504,9.219544457292887,22.20360331117452,22.20360331117452,29.068883707497267,43.56604182158393,34.36568055487916,34.0,29.0,38.0,4.5,9.5,1.5,0.5,10.198039027185569,10.198039027185569,10.0,39.0,23.0,30.265491900843113
422,59,1068,35.635599999999364,1.0,96.74709297958259,5.0990195135927845,11.180339887498949,23.194827009486403,23.345235059857504,30.14962686336267,46.52956049652737,35.35533905932738,35.0,28.0,40.0,4.0,12.0,1.0,1.0,12.041594578792296,12.165525060596439,12.0,40.0,25.0,29.274562336608895
423,59,1069,35.66896666666603,2.23606797749979,95.63472172804185,5.0990195135927845,10.198039027185569,22.20360331117452,23.194827009486403,32.14031735997639,48.662100242385755,38.47076812334269,37.5,30.0,41.0,3.5,12.5,0.5,1.5,10.198039027185569,10.198039027185569,10.0,38.0,22.0,32.2490309931942
424,59,1070,35.702333333332696,3.1622776601683795,92.65527507918802,6.082762530298219,10.198039027185569,24.186773244895647,25.179356624028344,31.144823004794873,50.48762224545735,40.311288741492746,38.5,31.0,42.0,5.5,13.5,0.5,0.5,9.219544457292887,10.198039027185569,10.0,39.0,22.0,32.55764119219941
425,59,1071,35.73569999999936,6.082762530298219,91.6624241442479,6.082762530298219,11.180339887498949,23.08679276123039,24.331050121192877,31.144823004794873,54.45181356024793,43.289721643826724,40.0,33.0,44.0,7.5,15.5,1.5,1.5,10.198039027185569,10.04987562112089,10.0,38.0,20.0,34.36568055487916
426,59,1072,35.76906666666603,5.0990195135927845,91.7877987534291,7.280109889280518,12.165525060596439,24.186773244895647,24.515301344262525,30.066592756745816,54.45181356024793,42.2965719651132,39.5,33.0,45.0,9.0,15.0,1.0,2.0,9.219544457292887,9.219544457292887,9.5,39.0,22.0,34.36568055487916
427,59,1073,35.802433333332694,8.0,85.70880934886448,6.082762530298219,11.180339887498949,22.090722034374522,22.360679774997898,33.13608305156178,58.309518948453004,47.16990566028302,43.0,34.0,45.0,6.5,18.5,4.5,1.5,5.385164807134504,6.708203932499369,6.0,39.0,24.0,32.2490309931942
428,59,1074,35.83579999999936,5.0,86.83317338436964,6.082762530298219,12.041594578792296,22.090722034374522,24.331050121192877,33.13608305156178,56.22277118748239,44.181444068749045,41.5,31.0,43.0,4.0,19.0,4.0,1.0,6.082762530298219,8.246211251235321,7.5,39.0,22.0,32.14031735997639
429,59,1075,35.869166666666025,4.0,86.97700845625813,6.324555320336759,13.152946437965905,21.095023109728988,22.20360331117452,33.06055050963308,56.32051136131489,43.18564576337837,41.0,29.0,42.0,2.5,20.5,4.5,2.5,7.0710678118654755,7.615773105863909,7.0,38.0,22.0,33.24154027718932
430,59,1076,35.90253333333269,4.0,83.18653737234169,6.324555320336759,15.132745950421556,23.194827009486403,24.186773244895647,31.064449134018133,56.32051136131489,41.19465984809196,39.0,29.0,43.0,5.0,20.0,2.0,1.0,6.082762530298219,7.615773105863909,7.0,38.0,22.0,32.38826948140329
431,59,1077,35.93589999999936,4.0,81.61494961096282,6.082762530298219,16.1245154965971,21.02379604162864,22.090722034374522,30.066592756745816,56.22277118748239,40.11234224026316,38.0,30.0,40.0,5.0,21.0,2.0,0.0,6.324555320336759,7.280109889280518,7.0,38.0,22.0,35.510561809129406
432,59,1078,35.96926666666602,5.0,79.76214641043707,5.0990195135927845,16.1245154965971,21.02379604162864,22.090722034374522,30.066592756745816,56.22277118748239,40.11234224026316,37.5,30.0,41.0,5.5,20.5,1.5,1.5,7.0710678118654755,8.54400374531753,8.5,38.0,23.0,32.2490309931942
433,59,1079,36.00263333333269,4.0,83.48652585896721,7.0710678118654755,16.1245154965971,22.0,24.08318915758459,29.017236257093817,56.142675390472796,40.049968789001575,38.0,29.0,38.0,4.5,22.5,4.5,0.5,9.055385138137417,9.219544457292887,9.5,36.0,22.0,34.36568055487916
434,59,1080,36.03599999999936,4.0,82.49242389456137,6.082762530298219,17.029386365926403,22.0,23.08679276123039,30.066592756745816,57.14017850864661,40.11234224026316,38.0,30.0,39.0,4.5,22.5,3.5,0.5,8.06225774829855,9.219544457292887,9.5,36.0,24.0,33.13608305156178
435,59,1081,36.06936666666602,4.0,82.38931969618392,6.324555320336759,17.029386365926403,21.0,22.0,30.01666203960727,57.14017850864661,40.11234224026316,38.0,31.0,39.0,5.0,22.0,3.0,1.0,8.06225774829855,9.219544457292887,9.5,37.0,24.0,32.2490309931942
436,59,1082,36.10273333333269,5.0,77.31752712031083,6.082762530298219,17.029386365926403,20.024984394500787,22.02271554554524,30.14962686336267,58.215118311311535,41.19465984809196,38.5,33.0,40.0,6.5,21.5,2.5,1.5,10.04987562112089,9.219544457292887,9.5,36.0,25.0,31.144823004794873
437,59,1083,36.13609999999935,5.0,77.23341245859851,6.082762530298219,16.1245154965971,18.0,20.024984394500787,31.144823004794873,58.309518948453004,42.190046219457976,39.5,33.0,39.0,5.0,22.0,4.0,0.0,10.0,10.198039027185569,10.5,35.0,26.0,34.132096331752024
438,59,1084,36.16946666666602,3.0,78.23042886243178,5.0990195135927845,14.035668847618199,19.026297590440446,21.02379604162864,32.38826948140329,54.45181356024793,40.44749683231337,38.5,32.0,38.0,3.0,19.0,3.0,1.0,9.055385138137417,10.04987562112089,10.0,33.0,25.0,34.132096331752024
439,59,1085,36.20283333333269,3.1622776601683795,81.15417426109393,5.0,14.035668847618199,19.026297590440446,21.02379604162864,31.400636936215164,53.46026561849464,39.45883931389772,37.5,31.0,36.0,2.5,19.5,3.5,1.5,11.0,12.041594578792296,12.0,34.0,27.0,32.0624390837628
