,video_id,frame_seq,time_seconds,m1,m3,m4,m5,m6,m7,m8,m9,m10,m11,m12,m13,m14,m15,m16,m17,e1,e2,e3,b1,b2,b3,label_measures
0,180,0,0.0,16.662363925749105,149.9918734294546,6.059041427545139,24.23616571018033,43.95415914864888,46.957571063474575,34.839488208384296,81.79705927185887,57.56089356167854,49.22971159880399,30.29520713772547,33.324727851498096,3.029520713772513,49.98709177724709,21.20664499640793,4.544281070658826,10.603322498203966,10.603322498203966,10.603322498203966,49.98709177724714,45.44281070658832,47.055196056720895,"{'others': ['m1', 'm3', 'm12', 'e1', 'e2']}"
1,180,1,0.0333666666666666,16.789491124826668,151.13625167245004,7.631586874921254,24.46872892896066,45.814952810082666,48.84215599949584,35.138464771027785,83.94745562413357,59.54594258058332,51.131632061972255,32.052664874669176,35.10529962463761,1.52631737498416,50.36847337448012,21.36844324977937,4.578952124952707,7.78272207898036,9.284226137897308,8.394745562413334,51.89479074946439,47.31583862451163,50.39159408874552,"{'others': ['m1', 'm3', 'm12', 'e1', 'e2']}"
2,180,2,0.0667333333333332,13.710448144816802,149.92308953432493,6.0562628472087,24.22505138883457,43.90790564226279,46.96045113101139,34.82351137144974,78.7459739921144,54.527390260423545,47.69306992176814,30.281314236043272,33.30944565964762,3.02813142360435,46.93603706586714,18.1687885416261,6.0562628472087,10.7060613197735,10.598459982615111,10.598459982615054,48.45010277766926,45.42197135406491,48.47375428153228,"{'others': ['m1', 'm3', 'm12', 'e1', 'e2']}"
3,180,3,0.1000999999999998,7.994528694891816,152.09012029726674,7.839280349467572,23.517841048402715,43.9279584647751,47.0356820968052,37.62854567744421,76.84094429063461,53.33015809913294,49.387466201645566,31.357121397870173,32.92497746776371,5.487496244627209,44.68389799196496,18.03034480377528,8.62320838441417,7.839280349467572,9.536896154848847,8.623208384414284,51.739250306485815,48.6035381666988,53.33015809913304,"{'others': ['m1', 'm3', 'm12', 'e1', 'e2']}"
4,180,4,0.1334666666666664,7.8049137643876305,148.48283352763107,6.122678090234103,24.53849916220228,41.44130492978236,42.85874663163827,36.767943661102976,75.14324681145811,50.60477706410169,46.68542043803461,30.61339045117029,29.08272092861182,6.888012851513167,45.15475091547603,16.072029986864322,8.41868237407175,9.18401713535104,10.823467991567025,9.949351896630333,48.98142472187237,45.92008567675538,52.04276376698931,"{'others': ['m1', 'm3', 'm12', 'e1', 'e2']}"
5,180,5,0.166833333333333,7.716258415324319,154.3251683064874,7.716258415324432,24.740206539590957,41.69636438367579,44.754298808881344,37.07017752792717,77.22428954827319,52.49324719595773,48.612428016543504,30.86503366129739,30.86503366129739,6.173006732259523,46.297550491946254,16.97576851371366,9.259510098389228,12.34601346451899,12.34601346451899,11.574387622986537,52.47055722420572,49.38405385807596,55.55706059033537,"{'others': ['m1', 'm3', 'm12', 'e1', 'e2']}"
6,180,6,0.2001999999999996,9.455245806484657,150.7799850250035,6.217731341237254,24.919454045952776,42.08467221144207,46.65888508074823,37.306388047423525,77.78379422782949,52.87357076543367,48.18741789458875,32.64308954149556,32.64308954149556,4.663298505927969,45.078552223970064,17.098761188402477,6.217731341237254,9.32659701185588,10.9914999874625,11.658246264819924,48.18741789458869,46.632985059279406,48.21248287308194,"{'others': ['m1', 'm3', 'm12', 'e1', 'e2']}"
7,180,7,0.2335666666666662,10.918772744320677,152.87077650251115,7.953576469682285,23.397370166401288,42.14414204257857,45.2618011942098,37.5655527671647,79.56634949499103,56.17534845355336,50.69430202720298,35.875967588482126,34.316142910721965,2.339737016640129,44.45500331616256,17.937983794241063,5.459386372160338,9.358948066560515,10.918772744320677,10.91877274432062,51.47421436608295,49.9143896883229,46.79474033280269,"{'others': ['m1', 'm3', 'm12', 'e1', 'e2']}"
8,180,8,0.2669333333333328,9.460175903059458,147.78085546628438,6.220973352774081,21.773406734709283,40.46622426609424,42.02036106373423,39.005304485237176,76.22279174938936,54.45573006636008,49.76778682219276,38.88108345483806,35.77059677845102,1.5552433381934634,38.88108345483795,13.997190043741623,4.665730014580504,13.997190043741682,12.538772653840418,13.997190043741682,49.767786822192704,48.212543483999184,43.54681346941857,"{'others': ['m1', 'm3', 'm12', 'e1', 'e2']}"
9,180,9,0.3002999999999994,6.220973352774081,149.37624470839364,6.220973352774081,17.178224139922953,40.55578444410637,38.91217588959884,43.65776094469706,73.11298016494523,56.07509601680519,52.87827349857969,41.9915701312251,37.325840116644486,3.8881083454837153,33.43773177116066,13.219568374644837,5.443351683677292,15.552433381935202,17.107676720128723,17.107676720128666,46.657300145805664,46.657300145805664,49.76778682219265,"{'others': ['m1', 'm3', 'm12', 'e1', 'e2']}"
10,180,10,0.333666666666666,4.667988730321781,149.44855889593484,6.223984973762413,15.637568713509465,39.02418725276927,40.48581427611483,43.81725205342989,70.08895222630295,54.65955907293767,52.125874155260135,43.56789481633689,38.89990608601511,2.3339943651609474,28.78593050365123,10.113975582363992,3.889990608601579,15.559962434406089,15.559962434406032,15.559962434406089,49.7918797900993,46.679887303218095,49.7918797900993,"{'others': ['m1', 'm3', 'm12', 'e1', 'e2']}"
11,180,11,0.3670333333333326,6.360907008399496,140.39841306783805,6.170986228320544,16.970212127881723,35.51669294673727,37.05804398539947,46.51323304070412,75.65752433971998,58.70551020326887,55.53887605488558,47.825143269484784,46.28239671240465,0.771373278540068,28.540811305982857,10.027852621020998,2.314119835620204,15.504411013568028,13.9701642448963,15.42746557080153,52.45338294072525,49.36788982656492,50.934005967792345,"{'others': ['m1', 'm3', 'm12', 'e1', 'e2']}"
12,180,12,0.4003999999999992,12.247598221642647,137.78547999347984,7.654748888526683,16.909892993937927,35.2451106904729,36.774675620743714,44.634472536119375,81.37109684490675,64.46371230662011,58.17609155280252,48.99039288657059,48.99039288657059,4.592849333116078,32.149945331811864,12.247598221642647,0.0,16.84044755475861,15.30949777705331,16.07497266590599,53.58324221968661,47.45944310886529,52.074801542467625,"{'others': ['m1', 'm3', 'm12', 'e1', 'e2']}"
13,180,13,0.4337666666666658,9.248778099958828,132.6016625642442,6.165852066639218,17.026015513650083,35.487143627190825,36.99511239983542,46.8817673978937,79.15679002506279,62.13836074890594,57.03413161641288,52.409742566433465,55.492668599753074,7.707315083299022,24.66340826655687,4.624389049979413,3.082926033319609,15.4146301665981,13.958541292049665,14.643898658268142,50.86827954977366,43.16096446647458,52.50033855897262,"{'others': ['m1', 'm3', 'm12', 'e1', 'e2']}"
14,180,14,0.4671333333333324,7.696749406291019,132.52720776490443,7.696749406290905,17.00267517026098,35.43849559691675,36.94439715019655,46.81749889368152,79.04827687004527,62.05317753758136,57.72562054718196,52.33789596277825,58.49529548781106,9.23609928754911,23.09024821887283,4.618049643774612,4.618049643774498,15.393498812581868,15.47027484403199,16.163173753210913,53.87724584403651,41.56244679397099,49.47519371168008,"{'others': ['m1', 'm3', 'm12', 'e1', 'e2']}"
15,180,15,0.5004999999999991,17.129961797706073,135.80423656674236,7.940546315782019,20.48267909178456,35.81719284974906,37.50401002148665,47.13152000456592,92.52328886651068,72.05631410783539,63.06940480064509,51.38988539311822,60.73350091913972,9.343615526021496,35.81719284974906,12.458154034695326,4.671807763010747,18.752005010743325,18.752005010743325,19.465865679211447,56.06169315612897,42.046269867096726,56.256015032229975,"{'others': ['m1', 'm3', 'm12', 'e1', 'e2']}"
16,180,16,0.5338666666666656,9.066679874925969,127.25691627182538,7.705196267624446,18.383486872469547,31.769338077530428,33.38158414860793,45.95871718117397,80.99623739562713,62.61554704652567,57.42230587453128,49.86673931209293,58.9334191870189,9.066679874925969,25.68892631229028,4.533339937462984,3.02222662497536,16.690792074303957,16.894760442136484,16.62224643736431,55.91119256204354,36.266719499703925,50.4358828186805,"{'others': ['m1', 'm3', 'm12', 'e1', 'e2']}"
17,180,17,0.5672333333333321,9.06273585816382,124.18851095854048,7.701844497885854,16.683531559471437,30.24685735520239,30.246857355202383,46.211066987314666,79.46778621590836,62.82480126340089,57.39732710170455,49.84504721990135,58.90778307806528,9.062735858163933,24.167295621770336,4.531367929081966,1.5104559763606176,13.925716024840751,15.40368899577154,16.615015739967134,54.37641514898337,34.74048745629494,56.39485167631792,"{'others': ['m1', 'm3', 'm12', 'e1', 'e2']}"
18,180,18,0.6005999999999987,4.563529429430673,125.32869503476766,9.252955273084586,18.317390412530266,28.942356329026584,30.461535202731017,49.52591791114813,81.53562674034757,63.2707019051852,60.08647082083644,47.15647077078302,59.32588258259807,4.563529429430673,27.381176576583695,6.084705905907526,3.0423529529537063,13.774838857572908,14.024554152266688,14.451176526530276,56.28352962964425,33.46588248249117,49.26827364890444,"{'others': ['m1', 'm3', 'm12', 'e1', 'e2']}"
19,180,19,0.6339666666666652,3.457926086712137,132.18145793675194,6.915852173424274,15.770569383513743,30.967267820351623,32.622009458088684,51.86889130068212,77.04271737436305,61.27460637038475,58.76439921204218,46.39294674634908,60.31083077025375,2.319647337317406,22.423257594068787,2.3196473373175195,2.3196473373175195,18.813151875920862,18.813151875920862,19.330394477645427,60.31083077025375,34.02149428065593,54.67461207261629,"{'others': ['m1', 'm3', 'm12', 'e1', 'e2']}"
20,180,20,0.6673333333333318,1.555654947796825,133.14261702824192,8.377458276919914,15.634138734739173,32.81657707453769,34.365541033178495,50.64845560923784,75.97268341385676,60.41071075099031,58.33706054237979,45.11399348610706,60.67054296407508,3.111309895593536,21.779169269155204,1.555654947796825,3.1113098955936493,18.732566185861305,17.392751064037654,18.667859373561555,63.78185285966862,35.780063799326285,46.069454649065285,"{'others': ['m1', 'm3', 'm12', 'e1', 'e2']}"
21,180,21,0.7006999999999983,3.54507412960447,132.73924031467223,8.537669084092496,16.16802561091917,30.289126640769165,32.06283889182612,52.29434966766007,79.61829258886978,63.455836668023686,60.245403216943885,45.976755086615015,63.41621391257246,3.963513369535804,22.988377543307596,2.3781080217214594,2.3781080217214594,19.090808441429115,19.61038112537255,19.817566847678904,63.41621391257246,31.7081069562862,45.399100165533454,"{'others': ['m1', 'm3', 'm12', 'e1', 'e2']}"
22,180,22,0.7340666666666649,6.369297552984904,128.81107129920747,7.12109114869853,16.238586255274107,30.628971158681708,32.20276782480181,53.7158778902975,83.0760056698246,66.83970106864061,62.10065114160204,47.76973164738615,66.87762430634064,4.776973164738706,23.88486582369296,1.5923243882460838,1.5923243882460838,14.680505487867574,15.106115522076747,15.12708168833899,68.46994869458678,35.03113654141646,49.99999999999999,"{'others': ['m1', 'm3', 'm12', 'e1', 'e2']}"
23,180,23,0.7674333333333314,7.635924173175454,119.25739339643457,7.787145272667195,14.079948477421656,27.868508066873822,28.1598969548432,50.02550295635778,79.36954576659414,65.29496575530762,60.32380096808572,47.34272987368752,67.1961327239436,8.399516590492908,20.616995267573657,2.2907772519527043,0.7635924173175681,6.296744383041886,8.639062021565847,6.872331755857886,67.1961327239436,32.070881527336724,43.73191838570883,"{'others': ['m1', 'm3', 'm12', 'e1', 'e2']}"
24,180,24,0.800799999999998,12.574561350048118,118.46401159845897,6.975111648317893,19.292205580874377,26.69746193405314,30.00108958638417,51.09001459653052,89.0112797412972,69.75111648317873,62.38729518515754,48.350153768496966,67.06634232404429,7.79841189814465,29.633965212949875,6.238729518515811,1.559682379628839,8.399146661085528,9.986840047698973,8.578253087959126,68.62602470367324,34.31301235183662,47.7171053324087,"{'others': ['m1', 'm3', 'm12', 'e1', 'e2']}"
25,180,25,0.8341666666666645,9.511285279985136,119.02209529622712,8.420489622152195,20.86163521780781,25.213028804883614,28.832201503194007,50.908614610543005,89.55199552327404,68.693714456768,62.54582672007626,48.47301570805911,68.80040939208385,8.60005117401056,28.927444858035187,5.472759838006596,2.345468502002973,6.992836012750643,11.27560926527607,9.381874008011437,67.23676372408192,31.272913360038103,46.64803446882202,"{'others': ['m1', 'm3', 'm12', 'e1', 'e2']}"
26,180,26,0.867533333333331,6.32748711490425,111.05755186130529,8.26429493269998,18.982461344712423,26.26882328413008,28.297382631359493,49.96429241476298,82.77108904457006,63.830737210150325,59.85100065058237,46.0392312696788,67.52420586219557,7.673205211613094,24.554256677162016,3.0692820846453515,0.0,9.70592216902872,11.066453935051456,9.975166775097025,67.52420586219552,30.69282084645249,48.771655293509234,"{'others': ['m1', 'm3', 'm12', 'e1', 'e2']}"
27,180,27,0.9008999999999976,7.636647775437154,110.5284405900614,6.83042541843996,20.377117839187957,24.62744907941796,27.87114896730863,50.7707869219804,85.12036583529286,64.79910513053717,60.32951742595333,47.34721620771029,68.72982997893428,7.636647775437154,25.96460243648619,1.527329555087363,1.5273295550874764,11.631795349425934,11.631795349425934,12.218636440699411,64.14784131367196,27.491931991573665,48.53929259416538,"{'others': ['m1', 'm3', 'm12', 'e1', 'e2']}"
28,180,28,0.934266666666664,7.846909263610843,111.0787076814814,6.882194696424462,23.890238095630043,26.341819342038203,28.37601566942381,51.36349320149257,89.6404208009424,65.79608492098662,60.786767943594896,47.70607104434032,67.71184277261204,6.925074829017149,30.008657592407644,2.3083582763390496,0.7694527587797211,9.73289307857566,13.764389392848924,13.080696899254576,64.63403173749339,27.700299316068595,48.90718243667707,"{'others': ['m1', 'm3', 'm12', 'e1', 'e2']}"
29,180,29,0.9676333333333308,11.049133559191796,114.61312629534632,10.482128465534656,25.437015700882405,29.853114956142537,31.601294636524845,50.60937396903677,97.14444472642091,71.7087916748084,64.84721330730474,50.00267050201808,71.87883884665109,10.938084172316508,34.37683597013745,4.687750359564234,1.56258345318804,12.885393252673522,14.823968238496157,14.844542805286608,67.19108848708686,29.689085610573212,53.05885511908674,"{'others': ['m1', 'm3', 'm12', 'e1', 'e2']}"
30,180,30,1.0009999999999972,12.637741786749617,114.97513737799902,9.140127581949953,24.334437993517405,28.604536573237574,30.43571259750018,52.31851333749574,97.76594443659708,73.47300926488049,65.83579582971021,53.29564424309871,75.24090951966883,12.5401515866115,31.35037896652875,3.135037896652875,3.135037896652875,14.870790456549978,16.882695750088,16.458948957427538,65.83579582971021,26.647822121549385,53.22644406990625,"{'others': ['m1', 'm3', 'm12', 'e1', 'e2']}"
