,frame_seq,m1,m3,m4,m5,m6,m7,m8,m9,m10,m11,m12,m13,m14,m15,m16,m17,e1,e2,e3,b1,b2,b3,label_measures
0,0,24.020824298928627,98.65596788841516,8.246211251235321,14.317821063276352,26.476404589747453,28.442925306655784,17.46424919657298,63.788713735268246,49.49747468305833,37.0,22.0,40.0,14.0,32.0,14.0,4.0,7.280109889280518,7.071067811865476,7.5,37.0,16.0,22.80350850198276,{}
1,1,24.020824298928627,98.65596788841516,7.280109889280518,14.317821063276352,26.476404589747453,28.442925306655784,18.43908891458577,63.788713735268246,49.49747468305833,37.0,22.0,40.0,13.0,32.0,15.0,4.0,7.280109889280518,7.280109889280518,7.0,37.0,15.0,21.840329667841555,{}
2,2,25.019992006393608,97.16480844420988,8.246211251235321,13.152946437965904,25.495097567963924,27.459060435491963,17.46424919657298,63.63961030678928,50.48762224545735,37.5,23.0,38.0,13.5,32.5,15.5,3.5,6.324555320336759,6.324555320336759,6.5,35.0,16.0,25.70992026436488,{}
3,3,23.021728866442675,95.1892851112981,8.06225774829855,14.317821063276352,25.317977802344327,28.284271247461906,17.26267650163207,62.51399843235114,48.25971404805462,36.5,23.0,38.0,13.5,31.5,14.5,4.5,8.54400374531753,7.071067811865476,7.0,34.0,15.0,20.8806130178211,{}
4,4,25.019992006393608,90.93404203047392,7.071067811865476,14.317821063276352,24.186773244895647,27.29468812791236,18.43908891458577,64.6297145282261,50.35871324805669,37.5,26.0,39.0,14.5,31.5,13.5,6.5,7.615773105863909,7.280109889280518,7.0,33.0,16.0,19.6468827043885,{}
5,5,27.018512172212592,87.82368700982668,7.280109889280518,14.142135623730953,25.317977802344327,27.16615541441225,19.235384061671343,67.47592163134935,53.33854141237835,39.5,30.0,42.0,17.0,31.0,14.0,9.0,8.54400374531753,8.246211251235321,8.0,32.0,16.0,23.194827009486403,"{'neutral': (['m1', 'm3', 'm12', 'e1', 'e2'], None, 22)}"
6,6,29.068883707497267,86.97700845625813,6.082762530298219,14.142135623730953,23.345235059857504,27.29468812791236,18.24828759089466,67.47592163134935,53.33854141237835,38.5,28.0,41.0,16.5,32.5,15.5,8.5,8.246211251235321,8.246211251235321,8.5,33.0,16.0,22.36067977499789,"{'neutral': (['m1', 'm3', 'm12', 'e1', 'e2'], None, 22)}"
7,7,32.0624390837628,82.03657720797473,8.06225774829855,14.142135623730953,23.194827009486403,27.16615541441225,19.235384061671343,73.43704787094863,59.30430001273095,43.0,35.0,48.0,22.5,31.5,14.5,13.5,9.486832980505138,9.055385138137416,9.0,33.0,16.0,22.36067977499789,"{'neutral': (['m1', 'm3', 'm12', 'e1', 'e2'], None, 22)}"
8,8,35.0142828000232,82.87339742040264,7.071067811865476,14.317821063276352,24.33105012119288,28.16025568065745,18.43908891458577,74.54528824815154,60.29925372672534,42.5,35.0,47.0,23.0,33.0,16.0,14.0,11.180339887498947,10.04987562112089,9.5,34.0,18.0,19.4164878389476,"{'neutral': (['m1', 'm3', 'm12', 'e1', 'e2'], None, 22)}"
9,9,32.01562118716424,82.20097323024831,8.06225774829855,14.317821063276352,24.33105012119288,26.30589287593181,17.46424919657298,71.56814934033156,57.3149195236284,41.0,33.0,47.0,23.0,31.0,14.0,13.0,9.219544457292889,9.055385138137416,9.0,33.0,17.0,21.213203435596427,"{'neutral': (['m1', 'm3', 'm12', 'e1', 'e2'], None, 22)}"
10,10,24.08318915758459,81.04936767180853,7.071067811865476,13.152946437965904,22.36067977499789,24.186773244895647,19.4164878389476,63.63961030678928,50.48762224545735,38.0,31.0,44.0,18.5,25.5,9.5,9.5,9.219544457292889,8.06225774829855,8.0,33.0,16.0,20.39607805437113,"{'neutral': (['m1', 'm3', 'm12', 'e1', 'e2'], None, 22)}"
11,11,24.020824298928627,82.20097323024831,7.280109889280518,13.341664064126334,21.213203435596427,25.317977802344327,20.39607805437113,64.77653896280658,51.47815070493501,39.0,31.0,45.0,18.0,26.0,10.0,10.0,8.246211251235321,8.246211251235321,8.0,32.0,15.0,19.4164878389476,"{'neutral': (['m1', 'm3', 'm12', 'e1', 'e2'], None, 22)}"
12,12,10.0,80.23091673413684,8.06225774829855,15.132745950421556,20.39607805437113,22.20360331117452,20.39607805437113,53.46026561849464,38.3275357934736,33.0,28.0,42.0,15.0,18.0,0.0,5.0,8.246211251235321,8.246211251235321,7.5,32.0,15.0,17.46424919657298,"{'neutral': (['m1', 'm3', 'm12', 'e1', 'e2'], None, 22)}"
13,13,10.04987562112089,79.62411694957753,7.280109889280518,14.317821063276352,21.37755832643195,23.53720459187964,21.213203435596427,52.773099207835045,38.47076812334269,33.0,28.0,44.0,15.0,16.0,1.0,6.0,7.280109889280518,7.280109889280518,7.0,32.0,14.0,20.615528128088304,"{'neutral': (['m1', 'm3', 'm12', 'e1', 'e2'], None, 22)}"
14,14,10.04987562112089,76.48529270389177,10.198039027185567,15.297058540778355,19.4164878389476,21.37755832643195,22.36067977499789,57.87054518492115,42.579337712087536,37.0,31.0,46.0,16.5,18.5,0.5,5.5,8.54400374531753,7.280109889280518,7.5,34.0,16.0,22.80350850198276,"{'neutral': (['m1', 'm3', 'm12', 'e1', 'e2'], None, 22)}"
15,15,6.082762530298219,74.33034373659252,10.198039027185567,15.297058540778355,19.235384061671343,20.223748416156685,26.0768096208106,57.55866572463264,42.2965719651132,39.0,34.0,48.0,15.0,16.0,2.0,4.0,9.486832980505138,8.246211251235321,9.0,33.0,15.0,22.56102834535696,"{'neutral': (['m1', 'm3', 'm12', 'e1', 'e2'], None, 22)}"
16,16,6.082762530298219,75.50496672405067,10.198039027185567,16.278820596099706,20.223748416156685,20.39607805437113,25.179356624028344,57.706152185014034,41.43669871020132,38.0,32.0,47.0,14.5,17.5,1.5,3.5,9.486832980505138,9.219544457292889,9.5,34.0,15.0,24.73863375370596,"{'neutral': (['m1', 'm3', 'm12', 'e1', 'e2'], None, 22)}"
17,17,6.082762530298219,74.33034373659252,10.04987562112089,14.317821063276352,18.24828759089466,20.223748416156685,27.16615541441225,57.55866572463264,43.28972164382672,40.0,34.0,48.0,14.0,16.0,1.0,3.0,9.486832980505138,9.219544457292889,9.0,32.0,14.0,23.53720459187964,"{'neutral': (['m1', 'm3', 'm12', 'e1', 'e2'], None, 22)}"
18,18,11.04536101718726,76.11832893594026,10.04987562112089,14.317821063276352,18.43908891458577,20.39607805437113,26.1725046566048,61.5223536610881,47.265209192385896,41.5,35.0,48.0,15.5,19.5,2.5,4.5,7.615773105863909,8.246211251235321,8.0,31.0,15.0,20.39607805437113,"{'neutral': (['m1', 'm3', 'm12', 'e1', 'e2'], None, 22)}"
19,19,16.1245154965971,81.21576201698781,10.04987562112089,15.132745950421556,21.213203435596427,23.345235059857504,22.09072203437452,63.38769596696192,48.25971404805462,40.0,33.0,47.0,18.0,23.0,5.0,7.0,7.280109889280518,7.280109889280518,7.5,31.0,15.0,23.345235059857504,"{'neutral': (['m1', 'm3', 'm12', 'e1', 'e2'], None, 22)}"
20,20,16.0312195418814,83.72574275573791,8.06225774829855,14.142135623730953,20.223748416156685,22.36067977499789,20.09975124224178,58.30951894845301,44.181444068749045,36.0,30.0,41.0,15.5,22.5,6.5,5.5,7.280109889280518,7.071067811865476,7.5,28.0,14.0,18.43908891458577,"{'neutral': (['m1', 'm3', 'm12', 'e1', 'e2'], None, 22)}"
21,21,16.0312195418814,83.72574275573791,8.06225774829855,15.132745950421556,21.213203435596427,23.194827009486403,21.095023109728988,60.29925372672534,45.17742799230607,37.0,32.0,43.0,16.5,22.5,5.5,6.5,8.06225774829855,8.246211251235321,8.0,29.0,15.0,16.278820596099706,"{'neutral': (['m1', 'm3', 'm12', 'e1', 'e2'], None, 22)}"
22,22,15.132745950421556,83.60023923410746,9.0,13.038404810405298,23.194827009486403,24.186773244895647,20.223748416156685,57.3149195236284,44.28317965096906,36.5,30.0,40.0,15.0,22.0,6.0,5.0,9.055385138137416,8.0,8.0,29.0,17.0,23.345235059857504,"{'neutral': (['m1', 'm3', 'm12', 'e1', 'e2'], None, 22)}"
23,23,16.0312195418814,83.48652585896721,7.0,13.152946437965904,21.213203435596427,23.194827009486403,20.09975124224178,56.22277118748239,43.10452412450461,35.0,27.0,36.0,11.5,24.5,9.5,3.5,7.280109889280518,7.071067811865476,7.0,31.0,19.0,21.213203435596427,"{'neutral': (['m1', 'm3', 'm12', 'e1', 'e2'], None, 22)}"
24,24,21.0,83.38465086573187,7.071067811865476,12.16552506059644,22.20360331117452,23.08679276123039,19.1049731745428,59.21148537234985,47.09564735726647,36.5,28.0,36.0,13.0,27.0,13.0,5.0,8.246211251235321,7.071067811865476,7.5,29.0,19.0,21.213203435596427,"{'neutral': (['m1', 'm3', 'm12', 'e1', 'e2'], None, 22)}"
25,25,25.0,80.22468448052632,7.071067811865476,12.16552506059644,21.02379604162864,25.079872407968907,19.1049731745428,63.198101237299845,51.0881590977792,38.5,32.0,38.0,16.0,28.0,14.0,9.0,7.071067811865476,6.0,6.5,27.0,19.0,17.11724276862369,"{'neutral': (['m1', 'm3', 'm12', 'e1', 'e2'], None, 22)}"
26,26,25.019992006393608,80.30566605165541,7.0,12.041594578792296,22.09072203437452,24.020824298928627,19.1049731745428,63.12685640834652,51.0881590977792,38.5,31.0,38.0,15.5,28.5,14.5,8.5,7.280109889280518,7.0,7.5,27.0,19.0,17.26267650163207,"{'neutral': (['m1', 'm3', 'm12', 'e1', 'e2'], None, 22)}"
27,27,28.0,77.23341245859851,7.071067811865476,13.038404810405298,21.02379604162864,24.08318915758459,19.1049731745428,67.11929677819934,54.08326913195984,40.0,34.0,40.0,18.0,30.0,15.0,11.0,7.071067811865476,7.071067811865476,7.5,25.0,20.0,20.024984394500787,"{'neutral': (['m1', 'm3', 'm12', 'e1', 'e2'], None, 22)}"
28,28,24.020824298928627,76.32168761236873,8.0,13.0,21.02379604162864,23.021728866442675,20.09975124224178,65.06919393998976,52.08646657242167,40.0,34.0,41.0,17.5,27.5,13.5,9.5,8.06225774829855,8.0,8.0,25.0,20.0,16.0312195418814,"{'neutral': (['m1', 'm3', 'm12', 'e1', 'e2'], None, 22)}"
29,29,13.0,72.06247289678588,9.0,13.0,18.027756377319943,21.0,22.02271554554524,57.0087712549569,44.01136216933077,37.5,35.0,38.0,14.5,20.5,6.5,4.5,6.082762530298219,6.0,6.0,24.0,21.0,18.027756377319943,"{'neutral': (['m1', 'm3', 'm12', 'e1', 'e2'], None, 22)}"
30,30,4.123105625617661,70.02856560004639,9.0,11.04536101718726,16.0,18.0,23.0,47.0,36.013886210738214,34.0,33.0,35.0,11.0,13.0,2.0,2.0,8.06225774829855,7.0,7.0,25.0,22.0,19.026297590440446,"{'neutral': (['m1', 'm3', 'm12', 'e1', 'e2'], None, 22)}"
31,31,4.123105625617661,69.02897942168927,9.0,11.04536101718726,16.0,18.0,23.0,47.0,36.013886210738214,34.0,34.0,36.0,12.0,12.0,1.0,3.0,7.071067811865476,7.0,7.0,25.0,22.0,18.027756377319943,"{'neutral': (['m1', 'm3', 'm12', 'e1', 'e2'], None, 22)}"
32,32,2.23606797749979,71.06335201775947,10.04987562112089,10.04987562112089,18.027756377319943,19.026297590440446,22.02271554554524,44.0,34.0147027033899,33.0,32.0,35.0,11.5,10.5,0.5,1.5,7.071067811865476,6.082762530298219,7.0,25.0,21.0,19.0,"{'neutral': (['m1', 'm3', 'm12', 'e1', 'e2'], None, 22)}"
33,33,7.0,73.10950690573696,9.0,12.041594578792296,18.027756377319943,19.026297590440446,21.02379604162864,49.04079934095692,37.01351104664349,33.5,31.0,35.0,12.0,16.0,3.0,3.0,7.071067811865476,8.0,8.0,24.0,20.0,20.0,"{'neutral': (['m1', 'm3', 'm12', 'e1', 'e2'], None, 22)}"
34,34,11.0,76.16429609731846,8.0,13.038404810405298,19.026297590440446,21.095023109728988,21.02379604162864,53.03772242470448,40.01249804748511,34.5,32.0,37.0,13.5,18.5,4.5,5.5,8.06225774829855,8.0,8.0,26.0,20.0,16.0,"{'neutral': (['m1', 'm3', 'm12', 'e1', 'e2'], None, 22)}"
35,35,14.0,80.30566605165541,8.06225774829855,14.0356688476182,21.095023109728988,23.08679276123039,20.0,56.0357029044876,42.01190307520001,35.0,31.0,38.0,14.5,21.5,6.5,6.5,9.055385138137416,8.0,8.0,26.0,18.0,19.1049731745428,{}
36,36,15.0,82.38931969618392,7.071067811865476,14.0356688476182,21.095023109728988,22.09072203437452,19.026297590440446,55.08175741568164,41.04875150354759,33.5,30.0,38.0,15.0,21.0,6.0,7.0,7.280109889280518,7.071067811865476,7.5,26.0,17.0,20.09975124224178,{}
37,37,15.0,84.5931439302264,8.06225774829855,13.038404810405298,22.20360331117452,24.33105012119288,19.026297590440446,55.08175741568164,42.04759208325728,34.5,28.0,38.0,14.0,22.0,7.0,5.0,8.246211251235321,7.071067811865476,7.0,27.0,16.0,19.235384061671343,{}
38,38,14.0,85.84287972802403,8.06225774829855,13.038404810405298,23.194827009486403,25.317977802344327,18.110770276274835,53.150729063673246,40.11234224026316,33.0,25.0,37.0,13.0,22.0,7.0,4.0,7.280109889280518,7.071067811865476,7.0,29.0,17.0,18.24828759089466,{}
39,39,15.033296378372908,86.14522621712709,8.06225774829855,11.04536101718726,22.20360331117452,24.515301344262525,18.110770276274835,52.23983154643591,41.19465984809196,33.5,24.0,38.0,13.0,21.0,7.0,4.0,7.071067811865476,7.280109889280518,7.0,29.0,14.0,19.4164878389476,{}
40,40,16.0312195418814,87.47571091451616,8.06225774829855,12.16552506059644,23.345235059857504,25.70992026436488,18.110770276274835,54.3323108288245,42.190046219457976,34.0,24.0,40.0,14.0,22.0,7.0,4.0,8.246211251235321,8.246211251235321,8.0,30.0,14.0,20.39607805437113,{}
41,41,17.0,86.49277426467485,7.280109889280518,13.341664064126334,23.345235059857504,26.68332812825267,18.027756377319943,55.326304774492215,42.1070065428546,33.5,24.0,40.0,14.0,23.0,7.0,5.0,8.246211251235321,8.246211251235321,8.0,31.0,13.0,18.43908891458577,{}
42,42,18.027756377319943,87.86353054595519,7.280109889280518,13.341664064126334,22.56102834535696,24.73863375370596,17.26267650163207,55.731499172371095,42.42640687119285,33.0,22.0,40.0,14.0,24.0,8.0,4.0,7.280109889280518,7.280109889280518,6.5,33.0,12.0,19.92485884517128,{}
43,43,18.110770276274835,86.88498144098322,7.071067811865476,12.36931687685298,23.53720459187964,24.515301344262525,17.26267650163207,54.74486277268398,42.42640687119285,33.0,22.0,40.0,14.0,23.0,8.0,5.0,7.280109889280518,7.280109889280518,7.0,32.0,10.0,21.587033144922906,{}
44,44,19.1049731745428,88.07383266328314,7.280109889280518,13.601470508735444,23.769728648009423,24.73863375370596,17.46424919657298,57.27128425310541,43.73785545725808,33.5,22.0,41.0,14.5,24.5,8.5,4.5,8.54400374531753,8.246211251235321,7.5,34.0,11.0,18.68154169226941,{}
45,45,21.095023109728988,88.29496021857646,7.280109889280518,11.40175425099138,23.53720459187964,25.70992026436488,17.46424919657298,57.0701322935211,45.70557952810576,34.5,21.0,41.0,14.0,25.0,10.0,5.0,7.615773105863909,7.280109889280518,7.0,34.0,10.0,18.027756377319943,{}
46,46,23.08679276123039,86.58521813797087,7.280109889280518,11.40175425099138,22.80350850198276,24.515301344262525,17.72004514666935,59.22837157984339,47.8539444560216,35.5,22.0,43.0,15.5,25.5,10.5,6.5,6.324555320336759,7.615773105863909,7.0,36.0,10.0,17.08800749063506,{}
47,47,26.0768096208106,86.58521813797087,6.324555320336759,10.770329614269007,21.587033144922906,23.769728648009423,18.68154169226941,61.39218191268331,50.80354318352215,37.0,22.0,43.0,14.5,27.5,13.5,6.5,7.615773105863909,8.06225774829855,7.0,36.0,8.0,24.04163056034261,{}
48,48,25.079872407968907,82.96987405076617,6.324555320336759,10.770329614269007,22.56102834535696,24.73863375370596,19.6468827043885,61.39218191268331,50.80354318352215,37.5,22.0,44.0,14.0,27.0,13.0,6.0,7.615773105863909,6.708203932499369,6.0,34.0,9.0,12.649110640673518,{}
49,49,24.186773244895647,80.77747210701756,6.324555320336759,11.704699910719626,20.8806130178211,23.53720459187964,19.6468827043885,61.61168720299745,50.00999900019995,37.0,23.0,44.0,14.5,26.5,12.5,6.5,7.280109889280518,8.54400374531753,7.5,36.0,7.0,23.08679276123039,{}
50,50,22.09072203437452,79.81227975693966,7.615773105863909,11.704699910719626,20.615528128088304,22.80350850198276,19.6468827043885,60.63827174318213,49.03060268852505,37.0,23.0,44.0,14.5,25.5,10.5,5.5,9.486832980505138,9.219544457292889,8.5,37.0,8.0,24.04163056034261,{}
51,51,15.132745950421556,76.6550715869472,7.280109889280518,13.601470508735444,19.6468827043885,21.587033144922906,22.56102834535696,58.463663928973865,44.91102314577124,36.5,25.0,45.0,13.0,22.0,6.0,4.0,7.615773105863909,8.54400374531753,7.5,34.0,6.0,20.615528128088304,{}
52,52,8.246211251235321,75.43208866258443,7.280109889280518,11.704699910719626,18.68154169226941,19.6468827043885,24.515301344262525,51.66236541235796,40.024992192379,35.0,26.0,45.0,11.5,14.5,0.5,2.5,8.54400374531753,8.54400374531753,8.0,35.0,8.0,22.13594362117865,{}
53,53,2.23606797749979,73.97972695272672,8.246211251235321,11.40175425099138,18.43908891458577,20.39607805437113,24.33105012119288,46.09772228646444,34.713109915419565,33.0,26.0,43.0,10.5,10.5,2.5,1.5,7.280109889280518,6.708203932499369,6.0,33.0,9.0,15.231546211727816,{}
54,54,3.605551275463989,74.95331880577403,8.06225774829855,11.40175425099138,19.4164878389476,20.39607805437113,25.317977802344327,48.05205510693585,36.6742416417845,34.5,28.0,45.0,11.5,10.5,2.5,1.5,8.54400374531753,8.54400374531753,7.5,33.0,10.0,17.72004514666935,{}
55,55,7.071067811865476,76.90253571892151,8.246211251235321,13.341664064126334,20.615528128088304,22.56102834535696,23.345235059857504,51.97114584074513,38.63935817272331,34.5,27.0,44.0,12.5,15.5,0.5,2.5,8.54400374531753,8.246211251235321,8.0,33.0,12.0,19.6468827043885,{}
56,56,9.0,73.7563556583431,8.246211251235321,14.317821063276352,18.43908891458577,19.6468827043885,23.345235059857504,54.74486277268398,40.44749683231337,35.5,28.0,44.0,13.0,18.0,1.0,4.0,6.324555320336759,7.615773105863909,6.5,33.0,12.0,22.80350850198276,{}
57,57,12.041594578792296,76.68767828015137,8.06225774829855,14.317821063276352,18.43908891458577,20.615528128088304,23.345235059857504,57.706152185014034,43.41658669218482,37.0,29.0,45.0,14.0,20.0,4.0,4.0,6.324555320336759,7.280109889280518,6.5,32.0,12.0,18.68154169226941,{}
58,58,13.038404810405298,79.42921376924235,7.280109889280518,14.317821063276352,20.39607805437113,22.56102834535696,23.08679276123039,57.55866572463264,43.28972164382672,36.5,29.0,44.0,13.5,20.5,3.5,4.5,7.280109889280518,7.280109889280518,7.0,33.0,13.0,24.515301344262525,{}
59,59,13.038404810405298,79.42921376924235,7.071067811865476,14.317821063276352,20.39607805437113,23.769728648009423,22.20360331117452,56.56854249492381,42.2965719651132,35.5,28.0,43.0,13.5,20.5,3.5,4.5,7.280109889280518,7.280109889280518,7.0,32.0,13.0,20.615528128088304,{}
60,60,14.142135623730953,83.95236744726142,7.071067811865476,14.142135623730953,22.56102834535696,23.769728648009423,21.213203435596427,56.56854249492381,42.42640687119285,35.0,26.0,44.0,14.0,21.0,4.0,5.0,8.246211251235321,8.246211251235321,8.0,34.0,13.0,22.56102834535696,{}
61,61,16.0312195418814,88.07383266328314,7.280109889280518,14.317821063276352,22.56102834535696,24.73863375370596,20.223748416156685,57.706152185014034,43.41658669218482,35.0,25.0,44.0,14.5,22.5,5.5,5.5,7.615773105863909,8.54400374531753,7.5,33.0,12.0,18.027756377319943,{}
62,62,18.110770276274835,89.26925562588724,8.246211251235321,14.317821063276352,24.515301344262525,26.68332812825267,18.24828759089466,58.85575587824864,44.553338819890925,35.0,25.0,45.0,17.0,23.0,6.0,7.0,8.246211251235321,9.219544457292889,8.5,34.0,12.0,20.39607805437113,{}
63,63,18.110770276274835,90.24411338142782,8.246211251235321,14.560219778561036,24.515301344262525,26.68332812825267,19.1049731745428,59.84145720150872,45.39823785126467,36.0,26.0,46.0,17.0,23.0,6.0,7.0,9.486832980505138,8.54400374531753,8.5,34.0,11.0,18.68154169226941,{}
64,64,20.09975124224178,93.62157870918436,7.280109889280518,13.601470508735444,24.73863375370596,26.92582403567252,19.4164878389476,60.20797289396148,46.69047011971501,36.0,25.0,47.0,17.0,23.0,6.0,7.0,8.54400374531753,7.280109889280518,7.0,35.0,10.0,19.6468827043885,{}
65,65,19.026297590440446,93.39164844888434,7.280109889280518,14.866068747318506,25.495097567963924,27.65863337187866,18.68154169226941,59.43904440685432,44.7213595499958,34.5,23.0,44.0,15.5,24.5,7.5,6.5,8.54400374531753,7.280109889280518,7.0,36.0,12.0,21.840329667841555,{}
66,66,18.027756377319943,96.54014708917737,7.280109889280518,13.601470508735444,25.70992026436488,27.892651361962702,20.39607805437113,59.033888572581766,45.5411901469428,36.0,23.0,45.0,14.0,24.0,8.0,4.0,7.615773105863909,7.280109889280518,7.0,34.0,8.0,20.8806130178211,{}
67,67,18.110770276274835,95.34149149242424,7.280109889280518,12.649110640673518,24.73863375370596,26.68332812825267,19.235384061671343,57.0701322935211,44.553338819890925,35.0,22.0,43.0,13.5,23.5,7.5,3.5,9.486832980505138,9.219544457292889,8.5,37.0,10.0,25.96150997149434,{}
68,68,17.11724276862369,95.34149149242424,8.54400374531753,12.36931687685298,25.70992026436488,26.68332812825267,19.235384061671343,57.0701322935211,44.7213595499958,35.5,22.0,43.0,13.5,23.5,7.5,3.5,8.54400374531753,9.219544457292889,8.5,37.0,11.0,24.73863375370596,{}
69,69,19.1049731745428,95.34149149242424,7.280109889280518,11.40175425099138,24.515301344262525,27.892651361962702,20.09975124224178,57.706152185014034,46.389654018972806,36.5,22.0,43.0,12.5,24.5,9.5,3.5,8.54400374531753,8.54400374531753,8.5,38.0,12.0,26.92582403567252,{}
70,70,18.110770276274835,97.082439194738,8.246211251235321,13.341664064126334,25.70992026436488,28.861739379323623,19.1049731745428,58.69412236331676,45.39823785126467,36.0,22.0,42.0,13.0,26.0,9.0,3.0,8.246211251235321,8.54400374531753,8.0,36.0,11.0,25.96150997149434,{}
71,71,19.026297590440446,95.7078889120432,7.280109889280518,14.560219778561036,25.495097567963924,27.65863337187866,19.026297590440446,59.53990258641679,45.17742799230607,35.5,22.0,40.0,12.0,28.0,10.0,3.0,8.54400374531753,9.219544457292889,8.5,34.0,11.0,23.769728648009423,{}
72,72,19.026297590440446,95.90099061010788,7.280109889280518,14.560219778561036,24.515301344262525,27.892651361962702,20.024984394500787,60.53098380168623,46.17358552246078,36.5,22.0,41.0,11.5,28.5,11.5,2.5,8.54400374531753,8.246211251235321,8.0,36.0,13.0,24.73863375370596,{}
73,73,18.027756377319943,96.6902270139025,8.246211251235321,15.297058540778355,25.495097567963924,27.65863337187866,18.110770276274835,59.53990258641679,44.28317965096906,35.0,22.0,40.0,13.0,28.0,10.0,3.0,8.54400374531753,8.246211251235321,8.0,36.0,13.0,24.73863375370596,{}
74,74,21.02379604162864,96.6902270139025,7.280109889280518,14.317821063276352,25.317977802344327,28.635642126552707,19.1049731745428,61.5223536610881,47.265209192385896,36.5,22.0,40.0,12.0,30.0,12.0,3.0,9.486832980505138,8.246211251235321,8.0,36.0,14.0,24.73863375370596,{}
75,75,20.024984394500787,94.36630754670864,8.246211251235321,13.152946437965904,24.515301344262525,26.68332812825267,18.110770276274835,59.4138031100518,46.2709412050371,36.0,24.0,40.0,14.0,27.0,10.0,4.0,7.615773105863909,7.280109889280518,7.5,34.0,13.0,23.53720459187964,{}
76,76,16.0312195418814,90.4267659490264,8.246211251235321,14.317821063276352,22.36067977499789,25.317977802344327,20.223748416156685,58.69412236331676,44.40720662234904,36.0,25.0,41.0,13.0,25.0,8.0,3.0,8.246211251235321,8.246211251235321,8.0,35.0,13.0,22.56102834535696,{}
77,77,2.23606797749979,84.34453153583817,8.246211251235321,15.297058540778355,22.36067977499789,24.33105012119288,23.194827009486403,48.83646178829912,33.54101966249684,32.0,27.0,42.0,11.5,13.5,3.5,2.5,7.280109889280518,6.324555320336759,6.0,32.0,12.0,19.6468827043885,{}
78,78,5.0990195135927845,82.20097323024831,9.219544457292889,14.142135623730953,21.37755832643195,22.36067977499789,22.20360331117452,50.635955604688654,36.49657518178932,33.5,27.0,41.0,12.0,16.0,1.0,2.0,7.615773105863909,7.280109889280518,7.0,34.0,15.0,21.587033144922906,{}
79,79,7.071067811865476,82.20097323024831,8.06225774829855,14.317821063276352,21.37755832643195,22.36067977499789,23.194827009486403,52.61178575186362,38.3275357934736,34.5,29.0,43.0,13.0,16.0,1.0,3.0,8.54400374531753,7.280109889280518,7.0,33.0,15.0,23.345235059857504,{}
80,80,16.1245154965971,84.34453153583817,8.06225774829855,14.142135623730953,21.37755832643195,24.33105012119288,22.36067977499789,60.67124524847005,46.52956049652737,38.0,30.0,45.0,15.5,22.5,5.5,6.5,9.486832980505138,9.219544457292889,9.0,34.0,15.0,19.4164878389476,{}
81,81,18.110770276274835,85.5102333057278,7.280109889280518,17.26267650163207,22.36067977499789,24.515301344262525,22.20360331117452,64.77653896280658,47.51841748206689,38.0,30.0,46.0,16.0,26.0,7.0,7.0,6.708203932499369,7.280109889280518,7.0,35.0,16.0,22.56102834535696,{}
82,82,19.1049731745428,86.31338250816034,7.071067811865476,16.278820596099706,23.345235059857504,25.317977802344327,21.213203435596427,63.63961030678928,47.38143096192854,37.5,30.0,45.0,16.5,25.5,6.5,7.5,4.123105625617661,6.708203932499369,5.5,35.0,16.0,21.587033144922906,{}
83,83,18.110770276274835,86.49277426467485,7.071067811865476,16.278820596099706,22.36067977499789,25.317977802344327,21.213203435596427,62.64982043070834,46.389654018972806,37.0,29.0,45.0,16.0,25.0,7.0,7.0,4.123105625617661,5.830951894845301,4.5,34.0,15.0,20.8806130178211,{}
84,84,20.09975124224178,87.47571091451616,7.280109889280518,16.1245154965971,24.33105012119288,26.476404589747453,21.213203435596427,64.6297145282261,48.507731342539614,38.0,28.0,44.0,15.0,28.0,9.0,6.0,5.0990195135927845,4.47213595499958,4.0,32.0,14.0,20.615528128088304,{}
85,85,21.02379604162864,89.44271909999159,7.071067811865476,14.317821063276352,23.345235059857504,26.30589287593181,22.20360331117452,64.4980619863884,50.24937810560445,39.5,29.0,45.0,15.0,27.0,10.0,6.0,7.280109889280518,7.280109889280518,6.5,34.0,13.0,23.769728648009423,{}
86,86,19.0,87.29833904490967,8.246211251235321,16.278820596099706,22.36067977499789,25.495097567963924,21.213203435596427,64.4980619863884,48.25971404805462,38.5,29.0,44.0,15.5,27.5,8.5,5.5,8.246211251235321,7.280109889280518,6.5,35.0,14.0,25.70992026436488,{}
87,87,17.029386365926403,84.52810183601665,7.280109889280518,16.278820596099706,21.37755832643195,24.33105012119288,23.194827009486403,63.63961030678928,47.38143096192854,38.5,30.0,46.0,15.0,25.0,6.0,6.0,7.280109889280518,7.280109889280518,6.5,33.0,14.0,22.80350850198276,{}
88,88,16.0312195418814,84.52810183601665,8.246211251235321,16.278820596099706,22.36067977499789,24.515301344262525,23.08679276123039,63.50590523722971,47.265209192385896,39.0,30.0,46.0,15.0,25.0,6.0,6.0,7.280109889280518,7.615773105863909,6.5,35.0,14.0,23.08679276123039,{}
89,89,14.0356688476182,83.54639429682169,8.246211251235321,16.492422502470642,20.39607805437113,22.56102834535696,25.179356624028344,63.788713735268246,47.38143096192854,40.0,31.0,47.0,14.0,24.0,5.0,5.0,7.615773105863909,8.246211251235321,8.0,35.0,13.0,25.495097567963924,{}
90,90,15.033296378372908,82.56512580987206,8.246211251235321,16.278820596099706,20.39607805437113,23.345235059857504,24.186773244895647,63.63961030678928,47.38143096192854,39.5,31.0,47.0,15.0,24.0,5.0,5.0,8.54400374531753,8.246211251235321,8.0,36.0,14.0,26.68332812825267,{}
91,91,14.142135623730953,84.52810183601665,8.246211251235321,15.297058540778355,21.213203435596427,23.53720459187964,25.179356624028344,62.80127387243033,47.51841748206689,40.0,32.0,48.0,15.0,22.0,4.0,6.0,10.44030650891055,10.198039027185567,9.5,35.0,13.0,26.68332812825267,{}
92,92,15.033296378372908,82.56512580987206,8.246211251235321,15.297058540778355,21.37755832643195,23.53720459187964,26.0768096208106,64.4980619863884,49.25444142409901,41.5,33.0,49.0,15.0,23.0,5.0,6.0,9.219544457292889,9.219544457292889,9.0,33.0,12.0,23.53720459187964,{}
93,93,16.0312195418814,81.78630692236935,7.280109889280518,16.278820596099706,20.39607805437113,21.587033144922906,25.079872407968907,64.4980619863884,48.25971404805462,40.0,31.0,48.0,14.5,24.5,5.5,5.5,9.486832980505138,9.486832980505138,9.0,35.0,14.0,26.476404589747453,{}
94,94,22.09072203437452,88.64536084872124,8.246211251235321,17.11724276862369,23.345235059857504,25.495097567963924,24.08318915758459,71.449282711585,54.3323108288245,43.0,35.0,52.0,19.5,27.5,7.5,9.5,9.219544457292889,9.486832980505138,9.5,36.0,15.0,25.495097567963924,{}
95,95,29.017236257093817,90.4267659490264,8.246211251235321,17.26267650163207,26.30589287593181,28.442925306655784,24.186773244895647,78.5175139698144,61.29437168288782,46.5,37.0,53.0,21.0,33.0,12.0,11.0,10.44030650891055,9.219544457292889,9.0,36.0,15.0,18.027756377319943,{}
96,96,33.015148038438355,93.55746896961249,8.06225774829855,16.492422502470642,26.30589287593181,28.284271247461906,22.20360331117452,79.51100552753688,63.198101237299845,46.5,36.0,53.0,22.5,34.5,15.5,12.5,9.486832980505138,9.219544457292889,8.5,35.0,15.0,19.6468827043885,{}
97,97,33.06055050963308,94.36630754670864,9.219544457292889,15.297058540778355,26.476404589747453,28.442925306655784,21.213203435596427,78.63841300535,63.38769596696192,46.5,35.0,51.0,22.0,35.0,17.0,11.0,9.486832980505138,9.219544457292889,9.0,36.0,16.0,20.615528128088304,{}
98,98,34.058772731852805,95.35197952848172,8.246211251235321,14.317821063276352,26.30589287593181,28.284271247461906,21.095023109728988,77.52418977325722,63.28506932918696,46.0,34.0,50.0,21.0,35.0,17.0,11.0,10.44030650891055,9.219544457292889,9.0,36.0,14.0,20.8806130178211,{}
99,99,32.0624390837628,98.0612053770501,7.280109889280518,15.297058540778355,26.30589287593181,29.42787793912432,21.213203435596427,75.66372975210778,60.40695324215582,44.0,30.0,50.0,19.0,35.0,17.0,10.0,10.44030650891055,9.486832980505138,9.0,36.0,15.0,21.18962010041709,{}
100,100,28.0713376952364,98.65596788841516,8.06225774829855,16.278820596099706,27.29468812791236,29.42787793912432,21.213203435596427,73.55270219373317,57.3149195236284,43.0,32.0,50.0,20.0,32.0,13.0,10.0,10.770329614269007,9.486832980505138,9.5,37.0,14.0,24.515301344262525,{}
101,101,25.079872407968907,99.6393496566492,8.246211251235321,15.297058540778355,27.459060435491963,28.442925306655784,21.213203435596427,69.72087205421343,54.45181356024793,41.5,30.0,48.0,18.0,30.0,12.0,8.0,10.44030650891055,9.486832980505138,9.5,37.0,14.0,25.0,{}
102,102,23.08679276123039,97.67292357659824,8.06225774829855,15.297058540778355,25.317977802344327,28.442925306655784,20.223748416156685,66.61080993352356,51.35172830587107,39.5,27.0,45.0,16.0,30.0,12.0,6.0,10.198039027185567,10.04987562112089,10.0,37.0,15.0,25.495097567963924,{}
103,103,23.08679276123039,97.49358953285082,9.219544457292889,15.297058540778355,26.476404589747453,28.442925306655784,19.235384061671343,66.75327707311455,51.47815070493501,39.5,27.0,44.0,16.5,30.5,11.5,5.5,10.44030650891055,9.219544457292889,9.5,36.0,13.0,24.73863375370596,{}
104,104,23.021728866442675,97.67292357659824,8.246211251235321,14.317821063276352,25.495097567963924,27.459060435491963,21.213203435596427,66.61080993352356,52.3450093132096,40.5,28.0,46.0,16.0,29.0,11.0,6.0,10.44030650891055,10.198039027185567,10.0,38.0,14.0,23.769728648009423,{}
105,105,21.095023109728988,97.86214794290998,9.055385138137416,13.341664064126334,25.317977802344327,27.65863337187866,20.223748416156685,63.63961030678928,50.35871324805669,39.5,27.0,46.0,16.5,26.5,10.5,6.5,11.40175425099138,11.180339887498947,10.5,37.0,14.0,24.73863375370596,{}
106,106,24.020824298928627,96.33794683301072,9.055385138137416,13.341664064126334,25.317977802344327,27.459060435491963,19.235384061671343,65.49045732013177,52.23983154643591,40.0,29.0,45.0,18.0,28.0,12.0,8.0,9.486832980505138,10.04987562112089,10.0,34.0,14.0,24.33105012119288,{}
107,107,27.018512172212592,97.16480844420988,8.246211251235321,13.341664064126334,25.317977802344327,27.29468812791236,19.1049731745428,67.47592163134935,54.230987451824994,40.5,30.0,45.0,18.5,29.5,13.5,8.5,9.486832980505138,9.486832980505138,9.0,34.0,14.0,21.840329667841555,{}
108,108,27.018512172212592,96.17692030835671,8.246211251235321,12.36931687685298,24.33105012119288,27.459060435491963,19.235384061671343,66.61080993352356,54.3323108288245,40.5,30.0,45.0,18.5,28.5,13.5,8.5,8.246211251235321,9.486832980505138,9.0,34.0,14.0,22.56102834535696,{}
109,109,28.0178514522438,97.01546268507924,8.06225774829855,13.341664064126334,25.179356624028344,28.284271247461906,20.39607805437113,69.58448102845921,56.32051136131489,42.0,32.0,46.0,19.0,30.0,14.0,10.0,7.615773105863909,8.246211251235321,8.0,32.0,15.0,20.39607805437113,{}
110,110,31.016124838541646,94.76286192385707,8.06225774829855,12.16552506059644,25.179356624028344,27.29468812791236,19.235384061671343,70.34912934784623,58.215118311311535,42.5,33.0,45.0,20.0,31.0,16.0,11.0,8.246211251235321,8.246211251235321,8.0,33.0,16.0,19.6468827043885,{}
111,111,31.0,93.64827814754524,8.06225774829855,13.152946437965904,25.179356624028344,28.284271247461906,19.235384061671343,71.25307010929424,58.137767414994535,42.5,34.0,45.0,20.5,31.5,16.5,11.5,8.246211251235321,8.246211251235321,7.5,30.0,16.0,19.4164878389476,{}
112,112,34.0147027033899,93.34345183246651,7.071067811865476,12.041594578792296,24.186773244895647,27.073972741361768,19.1049731745428,72.17340230306452,60.13318551349163,43.0,37.0,45.0,22.0,31.0,17.0,13.0,8.246211251235321,8.246211251235321,8.0,30.0,17.0,21.37755832643195,{}
113,113,35.0142828000232,93.34345183246651,7.071067811865476,11.180339887498947,24.08318915758459,27.16615541441225,18.110770276274835,71.25307010929424,60.13318551349163,42.5,36.0,44.0,22.0,31.0,17.0,14.0,6.082762530298219,7.071067811865476,6.5,30.0,17.0,18.43908891458577,{}
114,114,35.0,91.19758768739445,6.082762530298219,12.16552506059644,24.08318915758459,26.0768096208106,19.1049731745428,72.17340230306452,60.07495318350236,42.5,38.0,44.0,22.0,31.0,18.0,14.0,7.071067811865476,6.082762530298219,6.0,27.0,17.0,19.235384061671343,{}
115,115,36.0,90.13878188659972,7.071067811865476,12.0,24.020824298928627,27.018512172212592,19.1049731745428,74.06078584514209,62.07253821135398,44.0,39.0,44.0,22.5,32.5,19.5,14.5,7.071067811865476,8.06225774829855,7.5,28.0,20.0,24.08318915758459,{}
116,116,35.0,89.05054744357274,7.0,14.0356688476182,24.0,26.0,18.110770276274835,74.06078584514209,60.03332407921454,42.5,39.0,42.0,22.5,33.5,18.5,15.5,7.071067811865476,8.0,7.5,25.0,19.0,23.021728866442675,{}
117,117,32.0,86.00581375697809,8.0,12.0,22.02271554554524,25.0,18.0,70.0,58.0,42.0,40.0,41.0,22.5,29.5,16.5,14.5,8.06225774829855,7.0,7.5,24.0,21.0,25.019992006393608,{}
118,118,33.015148038438355,87.0,7.0,11.0,23.021728866442675,25.0,18.027756377319943,69.0,58.0,41.5,41.0,41.0,23.0,28.0,16.0,15.0,8.0,8.06225774829855,7.5,24.0,21.0,24.08318915758459,{}
119,119,30.01666203960727,86.05230967266364,7.0,12.041594578792296,23.0,25.019992006393608,18.0,67.02984409947557,55.00909015790027,40.0,41.0,38.0,21.5,27.5,14.5,14.5,7.0,7.0,7.0,22.0,22.0,20.0,{}
120,120,27.018512172212592,83.15046602394962,7.071067811865476,12.041594578792296,22.02271554554524,24.08318915758459,18.0,64.07027391856539,52.03844732503075,38.5,40.0,35.0,19.5,26.5,14.5,12.5,8.0,7.071067811865476,7.5,21.0,25.0,23.021728866442675,{}
121,121,27.073972741361768,82.21921916437786,8.0,13.0,23.08679276123039,24.08318915758459,16.0312195418814,64.07027391856539,51.0881590977792,37.5,40.0,34.0,21.0,27.0,14.0,14.0,8.0,7.071067811865476,7.5,20.0,28.0,25.179356624028344,{}
122,122,26.019223662515376,80.22468448052632,7.071067811865476,11.180339887498947,22.02271554554524,24.186773244895647,18.027756377319943,62.20128616033595,51.0881590977792,38.0,40.0,34.0,19.0,25.0,14.0,13.0,7.071067811865476,7.071067811865476,7.0,19.0,27.0,20.223748416156685,{}
123,123,25.079872407968907,80.39900496896712,8.06225774829855,12.16552506059644,22.20360331117452,24.08318915758459,18.027756377319943,63.28506932918696,51.15662224971465,38.5,42.0,34.0,20.0,25.0,13.0,14.0,8.06225774829855,8.06225774829855,7.5,18.0,27.0,20.024984394500787,{}
124,124,24.08318915758459,79.51100552753688,8.06225774829855,11.180339887498947,21.213203435596427,23.345235059857504,18.110770276274835,61.40032573203501,50.24937810560445,38.0,41.0,32.0,18.5,24.5,13.5,12.5,7.071067811865476,7.071067811865476,7.0,18.0,28.0,20.09975124224178,{}
125,125,23.08679276123039,78.5175139698144,7.071067811865476,12.16552506059644,19.235384061671343,22.20360331117452,19.1049731745428,61.40032573203501,49.25444142409901,37.5,42.0,33.0,18.5,23.5,12.5,12.5,7.071067811865476,7.071067811865476,7.0,17.0,27.0,19.026297590440446,{}
126,126,20.024984394500787,79.51100552753688,8.246211251235321,11.180339887498947,20.09975124224178,21.213203435596427,20.024984394500787,59.30430001273095,48.16637831516918,38.0,42.0,33.0,17.5,21.5,10.5,10.5,7.071067811865476,7.071067811865476,7.5,16.0,27.0,22.09072203437452,{}
127,127,13.038404810405298,75.53806987208503,9.055385138137416,13.152946437965904,18.110770276274835,20.223748416156685,22.20360331117452,57.42821606144492,44.28317965096906,37.5,42.0,33.0,15.5,19.5,7.5,7.5,7.0,7.071067811865476,7.0,18.0,28.0,21.095023109728988,{}
128,128,6.082762530298219,74.54528824815154,10.04987562112089,12.16552506059644,17.26267650163207,19.235384061671343,22.20360331117452,50.48762224545735,38.3275357934736,35.0,41.0,32.0,14.5,13.5,2.5,5.5,7.071067811865476,7.071067811865476,7.5,19.0,28.0,18.110770276274835,{}
129,129,2.23606797749979,72.56031973468694,10.04987562112089,11.180339887498947,17.26267650163207,19.235384061671343,23.194827009486403,45.70557952810576,34.52535300326414,33.5,40.0,31.0,12.5,9.5,1.5,4.5,6.082762530298219,6.0,6.5,18.0,28.0,16.278820596099706,{}
130,130,1.0,73.55270219373317,10.198039027185567,11.180339887498947,18.110770276274835,19.235384061671343,22.20360331117452,43.73785545725808,32.55764119219941,32.0,40.0,31.0,13.5,7.5,2.5,4.5,6.082762530298219,6.082762530298219,6.0,18.0,27.0,14.142135623730953,{}
131,131,1.0,73.43704787094863,10.198039027185567,12.16552506059644,17.11724276862369,18.110770276274835,22.20360331117452,44.7213595499958,32.55764119219941,32.0,39.0,31.0,13.0,9.0,2.0,4.0,7.071067811865476,6.082762530298219,6.5,18.0,26.0,18.24828759089466,{}
132,132,2.23606797749979,72.44308110509934,10.04987562112089,13.152946437965904,19.1049731745428,20.223748416156685,23.08679276123039,48.373546489791295,35.22782990761707,34.0,40.0,32.0,13.0,12.0,1.0,4.0,8.0,7.071067811865476,7.0,19.0,28.0,19.235384061671343,{}
133,133,8.246211251235321,75.4254598925323,10.0,12.16552506059644,19.235384061671343,21.095023109728988,22.36067977499789,52.61178575186362,40.44749683231337,36.0,40.0,32.0,14.0,16.0,4.0,6.0,7.071067811865476,7.071067811865476,7.5,19.0,29.0,22.56102834535696,{}
134,134,15.132745950421556,76.53103945458993,8.06225774829855,13.152946437965904,20.09975124224178,22.09072203437452,20.09975124224178,56.43580423808985,43.28972164382672,35.5,38.0,29.0,13.5,22.5,9.5,6.5,7.0,7.280109889280518,7.5,20.0,29.0,22.09072203437452,{}
135,135,15.033296378372908,78.40918313565064,8.06225774829855,15.132745950421556,21.095023109728988,22.09072203437452,20.39607805437113,58.54912467321779,43.41658669218482,35.5,38.0,30.0,14.0,24.0,9.0,7.0,7.071067811865476,7.280109889280518,7.0,20.0,30.0,21.213203435596427,{}
136,136,16.1245154965971,77.64663547121665,8.06225774829855,14.142135623730953,21.213203435596427,23.194827009486403,19.235384061671343,57.55866572463264,43.41658669218482,35.0,38.0,28.0,14.0,24.0,10.0,8.0,7.071067811865476,7.280109889280518,7.0,21.0,31.0,20.223748416156685,{}
137,137,18.110770276274835,80.75270893288967,7.0,12.16552506059644,22.20360331117452,25.179356624028344,19.4164878389476,56.56854249492381,44.40720662234904,35.0,37.0,26.0,12.5,24.5,12.5,7.5,8.06225774829855,7.071067811865476,7.5,23.0,33.0,31.064449134018133,{}
138,138,17.11724276862369,81.88406438373708,7.071067811865476,14.142135623730953,21.213203435596427,23.194827009486403,18.24828759089466,56.56854249492381,42.42640687119285,33.5,37.0,25.0,13.0,25.0,12.0,8.0,8.06225774829855,7.280109889280518,7.5,21.0,33.0,26.476404589747453,{}
139,139,18.110770276274835,81.21576201698781,7.280109889280518,13.152946437965904,22.36067977499789,24.186773244895647,18.24828759089466,56.71860364994893,43.56604182158393,34.0,38.0,24.0,13.0,25.0,13.0,9.0,8.246211251235321,7.615773105863909,7.5,21.0,35.0,29.154759474226505,{}
140,140,20.223748416156685,84.52810183601665,6.082762530298219,13.152946437965904,23.53720459187964,25.179356624028344,18.43908891458577,57.87054518492115,44.7213595499958,34.0,37.0,21.0,11.0,28.0,15.0,8.0,7.280109889280518,6.324555320336759,6.0,19.0,36.0,32.38826948140329,{}
141,141,20.223748416156685,83.95236744726142,6.082762530298219,12.36931687685298,21.587033144922906,23.345235059857504,17.72004514666935,56.29387178015028,43.93176527297759,33.0,36.0,18.0,10.0,28.0,16.0,8.0,8.06225774829855,6.708203932499369,6.5,19.0,38.0,34.36568055487916,{}
142,142,19.4164878389476,83.67795408588812,5.385164807134504,12.36931687685298,21.587033144922906,23.345235059857504,17.72004514666935,54.81788029466298,42.44997055358225,31.5,35.0,14.0,7.5,28.5,17.5,6.5,6.082762530298219,5.385164807134504,5.0,17.0,38.0,35.35533905932738,{}
143,143,17.46424919657298,84.20213774008353,5.385164807134504,12.36931687685298,22.56102834535696,24.73863375370596,18.027756377319943,53.16013544000805,40.80441152620633,30.5,35.0,12.0,6.5,27.5,16.5,4.5,6.324555320336759,5.385164807134504,5.0,16.0,40.0,35.6931365951495,{}
144,144,17.46424919657298,85.16454661418682,4.123105625617661,11.704699910719626,21.840329667841555,24.73863375370596,17.46424919657298,50.59644256269407,38.897300677553446,28.5,31.0,8.0,3.5,28.5,18.5,3.5,6.324555320336759,4.47213595499958,4.5,17.0,43.0,37.8549864614954,{}
145,145,14.560219778561036,80.36168241145776,5.385164807134504,13.341664064126334,21.840329667841555,24.73863375370596,16.15549442140351,49.33558553417604,36.05551275463989,27.0,29.0,6.0,2.5,29.5,17.5,1.5,6.082762530298219,5.385164807134504,5.5,18.0,45.0,41.77319714841085,{}
146,146,14.317821063276352,77.20103626247513,4.47213595499958,12.649110640673518,20.615528128088304,22.56102834535696,18.384776310850235,49.64876634922564,37.0,28.0,30.0,8.0,2.0,28.0,16.0,1.0,7.280109889280518,7.615773105863909,7.0,19.0,46.0,41.77319714841085,{}
147,147,12.16552506059644,73.76313442364011,5.385164807134504,13.341664064126334,20.39607805437113,22.56102834535696,18.027756377319943,48.76474136094644,35.4400902933387,28.0,30.0,10.0,3.0,27.0,15.0,1.0,7.280109889280518,7.615773105863909,7.0,19.0,44.0,40.79215610874228,{}
148,150,14.142135623730953,77.87810988975015,5.385164807134504,14.317821063276352,21.37755832643195,23.345235059857504,16.492422502470642,50.21951811795888,35.90264614203248,28.0,28.0,11.0,3.5,29.5,15.5,1.5,10.198039027185567,9.486832980505138,9.0,22.0,44.0,42.42640687119285,{}
149,151,15.132745950421556,79.62411694957753,5.0990195135927845,16.278820596099706,20.615528128088304,23.345235059857504,16.76305461424021,53.150729063673246,36.87817782917155,28.5,29.0,13.0,5.0,31.0,15.0,3.0,10.04987562112089,9.486832980505138,9.0,23.0,43.0,39.319206502675,{}
150,152,21.213203435596427,79.42921376924235,4.123105625617661,14.142135623730953,21.37755832643195,24.33105012119288,16.76305461424021,56.08921464952064,41.97618372363071,30.5,29.0,14.0,5.5,33.5,19.5,4.5,7.071067811865476,7.615773105863909,7.0,23.0,42.0,40.311288741492746,{}
151,153,19.1049731745428,81.39410298049853,4.123105625617661,14.317821063276352,21.37755832643195,25.317977802344327,17.72004514666935,55.10898293381942,40.79215610874228,30.5,30.0,15.0,5.5,31.5,17.5,4.5,8.0,7.615773105863909,7.5,22.0,40.0,40.311288741492746,{}
152,154,17.11724276862369,80.06247560499239,5.0990195135927845,16.1245154965971,22.20360331117452,25.317977802344327,16.278820596099706,54.589376255824725,38.47076812334269,29.5,29.0,16.0,6.5,31.5,15.5,3.5,8.06225774829855,8.246211251235321,8.0,21.0,40.0,39.45883931389772,{}
153,155,17.11724276862369,81.04936767180853,5.0990195135927845,15.132745950421556,22.20360331117452,25.317977802344327,17.26267650163207,54.589376255824725,39.45883931389772,30.5,30.0,17.0,6.5,30.5,15.5,4.5,8.06225774829855,7.615773105863909,8.0,22.0,39.0,39.45883931389772,{}
154,156,20.09975124224178,81.21576201698781,5.0990195135927845,15.297058540778355,23.194827009486403,25.317977802344327,17.46424919657298,57.87054518492115,42.579337712087536,32.0,32.0,18.0,8.0,32.0,17.0,6.0,5.385164807134504,5.385164807134504,4.5,23.0,39.0,35.22782990761707,{}
155,157,24.08318915758459,81.21576201698781,5.0990195135927845,15.297058540778355,23.345235059857504,26.30589287593181,17.11724276862369,61.5223536610881,46.2709412050371,34.0,34.0,20.0,10.0,34.0,19.0,8.0,6.324555320336759,4.47213595499958,4.5,24.0,40.0,36.22154055254967,{}
156,158,26.1725046566048,81.04936767180853,5.0990195135927845,17.11724276862369,22.20360331117452,25.317977802344327,17.11724276862369,65.49045732013177,48.373546489791295,35.0,34.0,21.0,10.5,37.5,20.5,7.5,4.123105625617661,4.123105625617661,3.5,24.0,38.0,32.0624390837628,{}
157,159,28.16025568065745,84.01190391843289,5.0990195135927845,16.278820596099706,23.345235059857504,26.30589287593181,16.278820596099706,65.76473218982953,49.49747468305833,35.0,34.0,21.0,11.5,37.5,21.5,8.5,6.082762530298219,5.385164807134504,5.0,24.0,36.0,30.14962686336267,{}
158,160,25.179356624028344,85.15867542417507,5.0990195135927845,14.142135623730953,23.345235059857504,27.29468812791236,17.46424919657298,61.814237842102365,47.67598976424087,34.5,34.0,20.0,10.0,34.0,19.0,8.0,6.0,5.0990195135927845,5.5,23.0,35.0,30.14962686336267,{}
159,161,20.223748416156685,87.29833904490967,6.082762530298219,14.142135623730953,25.317977802344327,27.29468812791236,16.492422502470642,56.88585061331157,42.7551166528639,32.0,33.0,18.0,9.5,30.5,16.5,6.5,7.0,6.082762530298219,6.5,24.0,35.0,36.22154055254967,{}
160,162,18.24828759089466,87.96590248499699,6.082762530298219,13.038404810405298,23.194827009486403,26.30589287593181,17.46424919657298,54.74486277268398,41.77319714841085,32.0,32.0,19.0,8.5,28.5,15.5,4.5,7.071067811865476,7.071067811865476,7.0,25.0,34.0,28.284271247461906,{}
161,163,17.26267650163207,89.94442728707543,6.082762530298219,14.0356688476182,25.179356624028344,27.16615541441225,17.26267650163207,54.589376255824725,40.60788100849391,31.5,32.0,19.0,8.5,28.5,14.5,4.5,8.0,7.071067811865476,7.5,24.0,32.0,24.186773244895647,{}
162,164,19.1049731745428,89.80534505250787,6.082762530298219,14.0356688476182,24.186773244895647,26.0768096208106,17.26267650163207,56.43580423808985,42.42640687119285,32.5,32.0,20.0,9.0,30.0,16.0,5.0,8.0,6.082762530298219,6.5,25.0,32.0,24.186773244895647,{}
163,165,20.09975124224178,90.448880590088,6.0,14.0356688476182,25.079872407968907,27.073972741361768,17.26267650163207,57.3149195236284,43.28972164382672,33.0,31.0,22.0,9.5,30.5,15.5,5.5,8.0,7.071067811865476,7.5,25.0,31.0,25.079872407968907,{}
164,166,21.095023109728988,91.35097153287424,7.0,15.033296378372908,25.079872407968907,28.0713376952364,18.24828759089466,61.29437168288782,46.2709412050371,35.5,33.0,25.0,11.0,32.0,16.0,6.0,9.0,8.06225774829855,8.0,27.0,31.0,24.020824298928627,{}
165,167,23.08679276123039,92.34717104492157,6.082762530298219,14.0,26.0768096208106,29.068883707497267,19.1049731745428,62.20128616033595,48.25971404805462,36.5,33.0,25.0,10.0,33.0,18.0,6.0,9.0,8.06225774829855,8.0,27.0,31.0,21.02379604162864,{}
166,168,20.024984394500787,92.13576938409967,7.0,15.0,24.08318915758459,27.018512172212592,17.11724276862369,59.07622195096772,44.10215414239989,34.0,30.0,25.0,10.5,31.5,16.5,5.5,8.06225774829855,7.071067811865476,7.0,27.0,29.0,20.024984394500787,{}
167,169,20.09975124224178,91.08786966440702,5.0,14.0,25.079872407968907,28.0178514522438,20.024984394500787,59.07622195096772,45.09988913511872,35.0,31.0,27.0,9.0,30.0,15.0,5.0,9.0,8.06225774829855,8.0,29.0,30.0,22.0,{}
168,170,16.0312195418814,89.05054744357274,7.071067811865476,14.0,25.019992006393608,27.018512172212592,20.024984394500787,57.0087712549569,43.01162633521314,35.0,32.0,29.0,10.5,26.5,11.5,4.5,10.04987562112089,9.0,8.5,28.0,28.0,27.018512172212592,{}
169,171,13.0,87.00574693662483,7.0,14.0,24.020824298928627,26.019223662515376,21.02379604162864,55.00909015790027,41.01219330881976,34.5,31.0,30.0,9.5,24.5,9.5,3.5,9.055385138137416,8.0,8.5,29.0,28.0,25.019992006393608,{}
170,172,8.0,84.00595217006948,7.0,14.0,21.0,24.020824298928627,23.021728866442675,52.009614495783374,38.01315561749642,34.0,31.0,32.0,8.5,20.5,4.5,1.5,10.04987562112089,8.0,8.0,31.0,29.0,26.019223662515376,{}
171,173,5.0,83.00602387778854,8.0,13.0,21.0,23.021728866442675,25.0,51.0,38.0,35.5,33.0,34.0,8.5,17.5,3.5,1.5,10.198039027185567,8.06225774829855,8.5,30.0,27.0,29.0,{}
172,174,5.0,82.02438661763951,8.0,15.033296378372908,21.0,24.020824298928627,25.0,53.009433122794285,38.0,35.5,33.0,35.0,9.0,19.0,3.0,2.0,9.055385138137416,8.06225774829855,8.5,30.0,27.0,32.0,{}
173,175,8.06225774829855,80.09993757800315,8.0,15.0,20.024984394500787,23.08679276123039,25.019992006393608,56.0357029044876,41.04875150354759,37.0,35.0,39.0,12.0,19.0,2.0,4.0,10.04987562112089,9.0,9.0,31.0,28.0,31.016124838541646,{}
174,176,9.0,77.1621668954417,7.071067811865476,14.0356688476182,19.026297590440446,20.09975124224178,27.018512172212592,57.07889277132134,43.04648650006177,38.5,36.0,41.0,11.5,18.5,2.5,4.5,10.04987562112089,9.055385138137416,9.0,31.0,27.0,28.0178514522438,{}
175,177,5.0990195135927845,73.33484846919642,9.055385138137416,14.0356688476182,18.110770276274835,20.09975124224178,28.0178514522438,56.1426753904728,42.1070065428546,39.5,36.0,43.0,11.5,16.5,0.5,2.5,11.04536101718726,10.04987562112089,10.0,33.0,28.0,27.018512172212592,{}
176,178,3.0,76.32168761236873,9.055385138137416,14.142135623730953,19.1049731745428,22.20360331117452,29.017236257093817,55.03635162326805,41.0,39.5,37.0,44.0,11.5,14.5,1.5,2.5,10.198039027185567,9.055385138137416,9.0,32.0,26.0,29.068883707497267,{}
177,179,4.123105625617661,78.40918313565064,9.055385138137416,14.142135623730953,20.09975124224178,22.09072203437452,30.0,57.14017850864661,43.04648650006177,41.0,37.0,45.0,11.0,16.0,1.0,2.0,10.198039027185567,10.04987562112089,10.0,33.0,26.0,29.068883707497267,{}
178,180,9.0,82.49242389456137,9.055385138137416,16.1245154965971,21.095023109728988,24.186773244895647,29.0,63.07138812488592,47.01063709417264,42.5,37.0,46.0,12.5,21.5,3.5,2.5,10.04987562112089,9.055385138137416,8.5,34.0,26.0,29.068883707497267,{}
179,181,13.038404810405298,85.58621384311844,9.055385138137416,18.110770276274835,23.08679276123039,26.30589287593181,25.0,65.12296062065974,47.042533945356304,40.5,34.0,44.0,14.0,26.0,5.0,4.0,10.198039027185567,9.055385138137416,9.0,35.0,25.0,29.27456233660889,{}
180,182,19.026297590440446,90.55385138137416,7.071067811865476,18.110770276274835,25.079872407968907,27.29468812791236,23.021728866442675,67.1863081289633,49.09175083453431,39.5,32.0,42.0,14.0,30.0,9.0,6.0,10.198039027185567,10.04987562112089,9.5,36.0,25.0,27.16615541441225,{}
181,183,20.0,91.6624241442479,8.06225774829855,18.24828759089466,24.186773244895647,28.442925306655784,22.02271554554524,68.18357573492314,50.039984012787215,40.0,30.0,41.0,13.5,32.5,11.5,4.5,11.180339887498947,9.055385138137416,9.0,36.0,24.0,31.25699921617557,{}
182,184,19.026297590440446,93.64827814754524,8.06225774829855,17.11724276862369,24.186773244895647,28.284271247461906,21.0,65.12296062065974,48.04164859785725,38.5,28.0,39.0,12.5,31.5,11.5,3.5,11.180339887498947,10.04987562112089,10.0,36.0,23.0,32.2490309931942,{}
183,185,17.029386365926403,91.44397191723463,8.06225774829855,16.1245154965971,25.079872407968907,28.16025568065745,23.0,64.1248781675256,48.04164859785725,39.5,30.0,39.0,11.5,29.5,11.5,3.5,11.180339887498947,9.055385138137416,9.0,36.0,23.0,25.317977802344327,{}
184,186,12.0,86.37129152675674,8.246211251235321,15.297058540778355,24.186773244895647,26.1725046566048,25.019992006393608,60.13318551349163,45.0111097397076,39.0,31.0,39.0,10.0,25.0,7.0,1.0,10.198039027185567,8.246211251235321,8.0,35.0,23.0,31.25699921617557,{}
185,187,4.123105625617661,83.38465086573187,9.055385138137416,14.317821063276352,22.09072203437452,25.179356624028344,26.0,53.23532661682466,39.05124837953327,37.0,30.0,38.0,8.0,19.0,2.0,1.0,10.198039027185567,9.055385138137416,9.0,34.0,23.0,29.154759474226505,{}
186,188,1.4142135623730951,83.2946576918352,9.055385138137416,13.152946437965904,22.09072203437452,24.08318915758459,27.0,50.15974481593781,37.05401462729781,36.5,33.0,40.0,9.5,13.5,1.5,0.5,10.198039027185567,9.055385138137416,9.0,35.0,25.0,30.14962686336267,{}
187,189,1.0,83.2946576918352,10.198039027185567,14.317821063276352,20.09975124224178,22.09072203437452,27.0,52.23983154643591,38.05259518088089,37.5,33.0,40.0,9.5,15.5,0.5,0.5,9.219544457292889,8.06225774829855,8.5,34.0,24.0,27.16615541441225,{}
188,190,1.0,83.2946576918352,10.04987562112089,14.317821063276352,20.09975124224178,22.09072203437452,27.018512172212592,52.08646657242167,38.0,37.5,34.0,41.0,10.5,14.5,0.5,0.5,9.219544457292889,8.246211251235321,8.0,34.0,24.0,29.154759474226505,{}
189,191,3.1622776601683795,82.29823813423954,9.0,14.142135623730953,21.02379604162864,23.08679276123039,27.073972741361768,53.23532661682466,39.11521443121589,37.5,35.0,42.0,11.5,14.5,1.5,2.5,9.055385138137416,8.246211251235321,8.0,32.0,22.0,23.08679276123039,{}
190,192,3.0,82.29823813423954,9.055385138137416,14.142135623730953,21.02379604162864,22.09072203437452,26.0768096208106,52.23983154643591,38.11823710509184,36.5,35.0,42.0,12.5,13.5,1.5,3.5,10.04987562112089,9.055385138137416,9.5,31.0,24.0,25.019992006393608,{}
191,193,7.0,82.29823813423954,9.055385138137416,13.152946437965904,21.095023109728988,23.194827009486403,26.019223662515376,55.14526271584895,42.04759208325728,38.5,37.0,44.0,14.5,14.5,0.5,5.5,8.06225774829855,7.071067811865476,7.5,29.0,22.0,17.029386365926403,{}
192,194,19.0,85.37564055396598,8.06225774829855,14.142135623730953,22.09072203437452,25.079872407968907,23.08679276123039,64.19501538281614,50.08991914547278,40.5,38.0,46.0,19.0,22.0,6.0,10.0,8.06225774829855,7.0,7.0,28.0,21.0,18.110770276274835,{}
193,195,18.027756377319943,85.37564055396598,8.06225774829855,15.132745950421556,22.09072203437452,25.179356624028344,23.08679276123039,64.1248781675256,49.04079934095692,40.0,38.0,46.0,19.0,22.0,5.0,10.0,9.055385138137416,8.06225774829855,8.5,29.0,24.0,19.026297590440446,{}
194,196,24.0,84.2140130857092,8.06225774829855,15.033296378372908,22.09072203437452,25.079872407968907,22.02271554554524,69.06518659932803,54.037024344425184,42.0,42.0,48.0,23.0,24.0,8.0,14.0,9.219544457292889,8.0,8.5,28.0,22.0,21.02379604162864,{}
195,197,27.0,85.21150157109074,9.055385138137416,15.033296378372908,22.02271554554524,25.079872407968907,19.026297590440446,70.06425622241343,55.03635162326805,41.5,42.0,48.0,26.0,25.0,9.0,16.0,9.055385138137416,9.055385138137416,9.0,27.0,21.0,20.024984394500787,{}
196,198,29.017236257093817,85.05292469985967,9.055385138137416,14.0356688476182,23.021728866442675,24.020824298928627,18.027756377319943,70.02856560004639,56.00892785976178,41.5,43.0,46.0,26.5,25.5,10.5,16.5,9.0,9.055385138137416,8.5,25.0,21.0,21.095023109728988,{}
197,199,31.016124838541646,86.05230967266364,9.0,14.0356688476182,23.08679276123039,25.019992006393608,18.110770276274835,72.02777242147643,58.00862004909271,42.5,43.0,46.0,26.5,27.5,12.5,16.5,8.0,8.06225774829855,8.0,24.0,21.0,19.1049731745428,{}
198,200,32.0,85.05292469985967,8.0,14.0356688476182,23.021728866442675,25.019992006393608,19.026297590440446,73.02739212103907,59.00847396772772,43.0,45.0,48.0,27.5,26.5,11.5,18.5,9.0,8.06225774829855,8.0,24.0,20.0,21.02379604162864,{}
199,201,33.0,84.02380615040002,9.0,14.0356688476182,23.0,26.019223662515376,18.0,74.00675644831355,60.0,43.5,45.0,47.0,28.0,28.0,13.0,19.0,7.071067811865476,8.06225774829855,8.0,24.0,21.0,20.024984394500787,{}
200,202,34.0147027033899,87.00574693662483,9.0,14.0356688476182,23.0,26.0,17.029386365926403,74.00675644831355,60.0,43.0,44.0,45.0,27.5,29.5,13.5,18.5,9.055385138137416,9.0,9.0,21.0,20.0,27.0,{}
201,203,33.015148038438355,81.00617260431454,9.0,15.0,23.0,25.0,18.0,75.0066663703967,60.00833275470999,43.5,48.0,47.0,29.5,27.5,11.5,20.5,8.0,8.0,8.0,20.0,21.0,21.02379604162864,{}
202,204,33.015148038438355,82.00609733428362,9.055385138137416,13.038404810405298,22.02271554554524,25.019992006393608,19.026297590440446,74.02702209328699,61.00819617067857,44.5,49.0,48.0,29.5,25.5,11.5,20.5,8.0,8.06225774829855,8.0,20.0,22.0,23.0,{}
203,205,33.015148038438355,82.05485969764375,9.055385138137416,13.0,23.021728866442675,25.019992006393608,19.0,74.02702209328699,61.032778078668514,44.5,50.0,47.0,29.5,25.5,11.5,20.5,7.071067811865476,8.0,8.0,18.0,23.0,25.019992006393608,{}
204,206,33.06055050963308,83.05419917138447,9.0,14.0,23.021728866442675,25.019992006393608,19.0,75.02666192761077,61.032778078668514,44.5,50.0,47.0,29.5,26.5,12.5,20.5,7.071067811865476,8.0,8.0,19.0,24.0,25.019992006393608,{}
205,207,34.0147027033899,82.09750300709517,9.055385138137416,13.038404810405298,23.021728866442675,26.019223662515376,18.0,74.06078584514209,61.032778078668514,44.0,49.0,45.0,29.0,27.0,13.0,20.0,8.0,8.06225774829855,8.0,19.0,23.0,24.020824298928627,{}
206,208,34.0147027033899,83.15046602394962,8.06225774829855,14.0356688476182,23.021728866442675,26.019223662515376,19.026297590440446,75.1065909225016,61.07372593840988,44.0,52.0,47.0,30.5,25.5,11.5,22.5,8.06225774829855,8.06225774829855,8.0,18.0,24.0,25.079872407968907,{}
207,209,34.058772731852805,83.21658488546619,8.06225774829855,15.0,22.02271554554524,25.019992006393608,18.027756377319943,75.1065909225016,60.13318551349163,43.0,50.0,44.0,29.0,28.0,13.0,21.0,8.06225774829855,7.071067811865476,7.5,19.0,26.0,19.026297590440446,{}
208,210,28.0713376952364,81.39410298049853,8.06225774829855,12.041594578792296,22.09072203437452,24.08318915758459,20.09975124224178,68.26419266350405,56.22277118748239,42.0,48.0,40.0,24.0,24.0,12.0,17.0,8.06225774829855,7.071067811865476,7.5,19.0,27.0,23.08679276123039,{}
209,211,27.018512172212592,81.39410298049853,8.06225774829855,13.038404810405298,21.095023109728988,23.08679276123039,19.235384061671343,67.26812023536856,54.230987451824994,40.5,47.0,39.0,24.0,24.0,11.0,17.0,8.06225774829855,7.071067811865476,7.5,19.0,27.0,22.09072203437452,{}
210,212,10.04987562112089,79.40403012442127,9.055385138137416,11.180339887498947,20.09975124224178,21.095023109728988,23.08679276123039,53.33854141237835,42.190046219457976,37.0,45.0,37.0,18.0,12.0,1.0,11.0,7.071067811865476,7.0,7.5,18.0,27.0,23.08679276123039,{}
211,213,7.071067811865476,78.31347265956222,9.055385138137416,14.0356688476182,19.026297590440446,21.02379604162864,22.09072203437452,52.23983154643591,38.2099463490856,34.5,42.0,35.0,16.5,13.5,0.5,8.5,8.0,7.071067811865476,7.5,20.0,28.0,22.09072203437452,{}
212,214,12.041594578792296,77.31752712031083,9.055385138137416,16.0312195418814,19.026297590440446,22.09072203437452,20.09975124224178,57.21887800367987,41.19465984809196,35.0,42.0,35.0,18.5,18.5,2.5,10.5,8.06225774829855,8.246211251235321,8.0,21.0,29.0,25.079872407968907,{}
213,215,14.0356688476182,75.32595834106593,9.055385138137416,16.0312195418814,20.024984394500787,22.02271554554524,20.09975124224178,59.21148537234985,43.18564576337837,36.0,45.0,38.0,21.5,17.5,1.5,13.5,8.0,8.06225774829855,7.5,20.0,28.0,22.09072203437452,{}
214,216,14.0356688476182,73.24616030891995,9.055385138137416,16.1245154965971,20.024984394500787,22.02271554554524,20.223748416156685,59.4138031100518,43.28972164382672,36.0,44.0,38.0,21.0,18.0,2.0,13.0,8.06225774829855,8.06225774829855,8.0,20.0,29.0,22.09072203437452,{}
215,217,13.038404810405298,75.16648189186454,10.04987562112089,18.027756377319943,19.026297590440446,21.02379604162864,19.1049731745428,60.20797289396148,42.190046219457976,35.5,41.0,36.0,19.5,21.5,3.5,10.5,7.071067811865476,7.071067811865476,7.5,21.0,29.0,25.079872407968907,{}
216,218,13.038404810405298,71.25307010929424,9.055385138137416,17.11724276862369,19.1049731745428,20.09975124224178,21.095023109728988,60.29925372672534,43.18564576337837,36.5,42.0,36.0,18.0,21.0,3.0,10.0,8.06225774829855,8.246211251235321,8.5,21.0,30.0,21.213203435596427,{}
217,219,12.041594578792296,75.23961722390672,10.0,17.11724276862369,20.024984394500787,22.09072203437452,22.20360331117452,61.29437168288782,44.181444068749045,38.0,41.0,35.0,16.0,23.0,6.0,7.0,8.06225774829855,8.06225774829855,8.0,22.0,29.0,21.213203435596427,{}
218,220,15.033296378372908,75.23961722390672,9.055385138137416,17.029386365926403,20.024984394500787,22.09072203437452,20.09975124224178,61.20457499239743,44.181444068749045,36.5,40.0,34.0,17.0,24.0,7.0,9.0,8.0,8.06225774829855,8.5,22.0,30.0,23.021728866442675,{}
219,221,15.0,73.24616030891995,9.055385138137416,16.1245154965971,19.026297590440446,21.095023109728988,20.223748416156685,60.29925372672534,44.181444068749045,36.5,41.0,35.0,18.0,22.0,5.0,10.0,8.06225774829855,7.071067811865476,7.5,22.0,30.0,21.02379604162864,{}
220,222,17.029386365926403,79.22752047110903,8.06225774829855,18.027756377319943,20.024984394500787,23.021728866442675,21.213203435596427,64.28063471995279,46.2709412050371,37.5,42.0,36.0,18.0,25.0,7.0,10.0,9.0,7.280109889280518,7.5,20.0,29.0,22.09072203437452,{}
221,223,19.026297590440446,82.15229759416349,10.04987562112089,17.029386365926403,23.021728866442675,25.019992006393608,20.09975124224178,66.18912297349165,49.16299421312742,39.5,43.0,38.0,20.5,25.5,8.5,11.5,10.0,9.055385138137416,9.5,21.0,29.0,24.08318915758459,{}
222,224,21.02379604162864,85.14693182963201,9.055385138137416,17.029386365926403,23.021728866442675,26.0768096208106,19.235384061671343,66.27216610312357,49.25444142409901,38.5,43.0,38.0,21.5,25.5,8.5,12.5,10.04987562112089,9.055385138137416,9.0,20.0,27.0,23.021728866442675,{}
223,225,24.08318915758459,86.28441342444185,9.055385138137416,16.0312195418814,23.08679276123039,25.019992006393608,20.223748416156685,69.35416353759881,53.33854141237835,41.0,43.0,36.0,19.5,29.5,13.5,11.5,9.055385138137416,8.06225774829855,8.5,21.0,28.0,24.020824298928627,{}
224,226,25.019992006393608,85.28774824088158,9.055385138137416,15.033296378372908,23.08679276123039,26.019223662515376,20.223748416156685,69.26037828369117,54.230987451824994,41.5,43.0,36.0,19.5,29.5,14.5,11.5,9.055385138137416,7.071067811865476,8.0,22.0,29.0,22.09072203437452,{}
225,227,22.09072203437452,87.20665112249179,8.0,16.0312195418814,24.08318915758459,25.079872407968907,20.223748416156685,66.27216610312357,50.24937810560445,39.0,42.0,36.0,19.0,27.0,11.0,12.0,8.06225774829855,8.246211251235321,8.0,20.0,28.0,23.08679276123039,{}
226,228,24.08318915758459,89.35882720806042,9.055385138137416,15.033296378372908,24.08318915758459,26.0768096208106,19.235384061671343,67.36467917239716,52.3450093132096,40.0,42.0,34.0,19.0,29.0,15.0,11.0,9.0,7.071067811865476,7.5,22.0,30.0,25.179356624028344,{}
227,229,24.08318915758459,89.27485648266257,8.06225774829855,14.142135623730953,24.08318915758459,27.073972741361768,20.09975124224178,66.37017402418047,52.23983154643591,40.0,41.0,34.0,17.5,28.5,14.5,10.5,8.0,7.280109889280518,8.0,22.0,30.0,23.194827009486403,{}
228,230,23.194827009486403,89.27485648266257,8.0,15.033296378372908,22.09072203437452,25.079872407968907,20.39607805437113,66.48308055437865,51.47815070493501,39.5,42.0,35.0,18.5,27.5,12.5,11.5,9.055385138137416,9.055385138137416,9.5,22.0,29.0,22.02271554554524,{}
229,231,24.08318915758459,89.20201791439474,8.06225774829855,15.033296378372908,24.08318915758459,27.073972741361768,19.235384061671343,66.37017402418047,51.35172830587107,39.0,41.0,35.0,19.0,28.0,13.0,12.0,9.0,8.06225774829855,9.0,23.0,29.0,20.024984394500787,{}
230,232,21.02379604162864,89.20201791439474,8.06225774829855,16.0312195418814,24.08318915758459,26.019223662515376,20.09975124224178,65.19202405202648,49.16299421312742,38.5,40.0,34.0,17.0,28.0,12.0,10.0,10.0,9.219544457292889,9.0,22.0,28.0,23.08679276123039,{}
231,233,20.09975124224178,90.35485598461214,8.0,15.033296378372908,23.08679276123039,25.079872407968907,20.223748416156685,63.28506932918696,48.25971404805462,38.0,40.0,32.0,16.0,27.0,12.0,9.0,9.055385138137416,8.246211251235321,8.5,22.0,29.0,25.179356624028344,{}
232,234,19.026297590440446,88.45903006477066,8.06225774829855,14.142135623730953,23.08679276123039,25.079872407968907,19.235384061671343,60.40695324215582,46.2709412050371,36.5,39.0,30.0,15.5,25.5,10.5,8.5,8.0,8.246211251235321,7.5,21.0,29.0,25.179356624028344,{}
233,235,16.1245154965971,88.45903006477066,9.055385138137416,15.132745950421556,24.08318915758459,26.0768096208106,19.1049731745428,59.4138031100518,44.28317965096906,36.0,40.0,31.0,16.5,23.5,9.5,9.5,9.055385138137416,8.246211251235321,8.5,22.0,30.0,24.186773244895647,{}
234,236,17.11724276862369,88.36288813749809,8.06225774829855,15.132745950421556,24.186773244895647,25.079872407968907,20.09975124224178,60.40695324215582,45.27692569068709,36.5,39.0,31.0,15.0,25.0,10.0,9.0,8.06225774829855,8.06225774829855,8.0,20.0,29.0,24.33105012119288,{}
235,237,18.110770276274835,89.45389874119518,9.055385138137416,15.033296378372908,23.08679276123039,25.079872407968907,19.1049731745428,61.29437168288782,46.2709412050371,37.0,40.0,31.0,16.5,25.5,10.5,9.5,9.055385138137416,8.246211251235321,8.0,21.0,30.0,22.20360331117452,{}
236,238,18.110770276274835,88.36288813749809,8.06225774829855,14.0356688476182,24.08318915758459,26.0768096208106,20.223748416156685,60.40695324215582,46.389654018972806,37.0,41.0,33.0,17.0,23.0,9.0,10.0,9.055385138137416,9.055385138137416,9.0,20.0,28.0,22.20360331117452,{}
237,239,19.235384061671343,87.36704184073076,8.06225774829855,15.033296378372908,23.194827009486403,25.079872407968907,19.1049731745428,61.40032573203501,46.389654018972806,36.5,40.0,32.0,17.0,25.0,10.0,11.0,5.0990195135927845,5.0990195135927845,4.5,20.0,29.0,23.194827009486403,{}
238,240,19.1049731745428,86.28441342444185,8.0,15.132745950421556,22.09072203437452,25.179356624028344,20.223748416156685,62.39390995922599,47.265209192385896,37.5,41.0,34.0,17.5,24.5,10.5,10.5,6.082762530298219,6.082762530298219,6.0,21.0,30.0,24.186773244895647,{}
239,241,18.027756377319943,85.21150157109074,8.06225774829855,15.132745950421556,22.02271554554524,25.079872407968907,20.09975124224178,61.29437168288782,46.17358552246078,37.0,41.0,35.0,18.0,23.0,8.0,10.0,6.324555320336759,5.385164807134504,5.0,21.0,30.0,25.179356624028344,{}
240,242,12.16552506059644,81.2219182240853,9.0,17.029386365926403,20.09975124224178,22.09072203437452,21.095023109728988,59.21148537234985,42.190046219457976,36.0,42.0,36.0,18.0,20.0,4.0,9.0,4.47213595499958,4.0,4.0,23.0,30.0,21.02379604162864,{}
241,243,7.071067811865476,76.23647421018367,10.04987562112089,14.142135623730953,18.110770276274835,20.09975124224178,24.08318915758459,55.326304774492215,41.19465984809196,37.5,43.0,37.0,16.0,15.0,1.0,7.0,5.0990195135927845,4.123105625617661,4.0,22.0,30.0,23.08679276123039,{}
242,244,6.324555320336759,75.32595834106593,10.0,13.038404810405298,18.110770276274835,20.09975124224178,25.179356624028344,54.3323108288245,41.30375285612676,38.0,43.0,36.0,14.5,14.5,1.5,5.5,7.071067811865476,6.324555320336759,6.0,20.0,30.0,26.30589287593181,{}
243,245,7.280109889280518,74.33034373659252,10.0,12.041594578792296,17.11724276862369,19.1049731745428,24.186773244895647,53.33854141237835,41.30375285612676,37.5,43.0,36.0,15.5,13.5,1.5,6.5,8.06225774829855,7.280109889280518,7.5,20.0,29.0,26.1725046566048,{}
244,246,7.280109889280518,75.23961722390672,10.0,12.041594578792296,17.11724276862369,19.1049731745428,24.186773244895647,53.33854141237835,41.30375285612676,37.5,42.0,36.0,15.0,14.0,2.0,6.0,8.06225774829855,8.246211251235321,7.5,21.0,30.0,26.1725046566048,{}
245,247,7.071067811865476,79.30952023559341,10.04987562112089,15.132745950421556,18.24828759089466,19.1049731745428,23.08679276123039,55.326304774492215,40.19950248448356,36.5,44.0,37.0,17.5,14.5,0.5,8.5,7.071067811865476,6.082762530298219,6.5,19.0,30.0,23.194827009486403,{}
246,248,11.04536101718726,81.30190649671138,9.055385138137416,15.033296378372908,20.09975124224178,21.095023109728988,20.09975124224178,55.22680508593631,40.19950248448356,34.5,42.0,35.0,18.5,16.5,1.5,9.5,8.06225774829855,8.246211251235321,8.0,17.0,30.0,25.179356624028344,{}
247,249,13.038404810405298,81.39410298049853,9.055385138137416,16.0312195418814,20.09975124224178,22.09072203437452,20.223748416156685,58.30951894845301,42.2965719651132,35.5,45.0,37.0,21.0,17.0,2.0,12.0,8.06225774829855,7.280109889280518,7.0,17.0,29.0,21.213203435596427,{}
248,250,15.033296378372908,83.60023923410746,9.055385138137416,14.142135623730953,21.213203435596427,23.08679276123039,18.24828759089466,56.43580423808985,42.2965719651132,34.5,44.0,34.0,21.0,17.0,3.0,13.0,7.071067811865476,7.280109889280518,7.0,18.0,30.0,19.235384061671343,{}
249,251,15.033296378372908,83.48652585896721,9.055385138137416,14.142135623730953,22.20360331117452,23.194827009486403,18.110770276274835,56.32051136131489,42.190046219457976,34.5,43.0,34.0,20.5,17.5,4.5,12.5,7.071067811865476,7.280109889280518,7.0,18.0,30.0,21.095023109728988,{}
250,252,16.1245154965971,84.5931439302264,9.055385138137416,14.142135623730953,21.095023109728988,22.09072203437452,18.24828759089466,57.55866572463264,43.41658669218482,35.0,43.0,33.0,20.0,19.0,6.0,12.0,7.280109889280518,6.082762530298219,6.0,14.0,29.0,20.39607805437113,{}
251,253,14.0356688476182,82.87339742040264,9.219544457292889,14.317821063276352,21.213203435596427,22.20360331117452,18.24828759089466,55.731499172371095,41.43669871020132,34.0,43.0,31.0,19.0,18.0,4.0,11.0,8.246211251235321,8.246211251235321,7.5,16.0,30.0,20.39607805437113,{}
252,254,15.132745950421556,85.32877591996736,8.246211251235321,13.341664064126334,21.37755832643195,23.345235059857504,18.24828759089466,54.91812087098393,41.593268686170845,33.5,43.0,28.0,17.5,18.5,7.5,11.5,7.071067811865476,7.615773105863909,6.5,14.0,30.0,18.43908891458577,{}
253,255,14.317821063276352,85.5102333057278,8.06225774829855,13.341664064126334,20.39607805437113,21.37755832643195,18.68154169226941,54.3415126767741,41.0,33.0,42.0,26.0,16.0,19.0,8.0,10.0,7.280109889280518,6.708203932499369,6.5,14.0,32.0,18.43908891458577,{}
254,256,14.142135623730953,85.5102333057278,8.246211251235321,13.341664064126334,20.39607805437113,22.36067977499789,18.43908891458577,54.12947441089743,40.79215610874228,33.0,42.0,26.0,16.0,19.0,7.0,10.0,8.246211251235321,7.280109889280518,7.0,14.0,32.0,20.615528128088304,{}
255,257,15.132745950421556,84.72307831990054,8.246211251235321,13.341664064126334,21.587033144922906,23.53720459187964,18.68154169226941,55.31726674375732,41.97618372363071,33.5,42.0,25.0,15.5,20.5,9.5,10.5,7.280109889280518,7.280109889280518,7.0,15.0,32.0,15.297058540778355,{}
256,258,16.278820596099706,84.72307831990054,7.071067811865476,13.152946437965904,20.615528128088304,22.36067977499789,18.68154169226941,55.10898293381942,41.97618372363071,33.0,40.0,23.0,13.5,22.5,11.5,9.5,7.071067811865476,7.280109889280518,7.0,15.0,33.0,18.68154169226941,{}
257,259,17.26267650163207,85.14693182963201,6.082762530298219,12.36931687685298,22.36067977499789,23.345235059857504,18.97366596101028,54.57105459856901,42.20189569201838,32.5,40.0,21.0,12.5,22.5,11.5,8.5,6.082762530298219,5.385164807134504,5.0,13.0,30.0,18.43908891458577,{}
258,260,18.24828759089466,83.74365647617735,6.082762530298219,13.341664064126334,21.37755832643195,23.345235059857504,18.68154169226941,56.29387178015028,42.95346318982906,33.0,39.0,22.0,12.5,24.5,12.5,8.5,7.071067811865476,6.708203932499369,6.5,14.0,32.0,18.97366596101028,{}
259,261,19.235384061671343,84.92938243034621,6.324555320336759,11.40175425099138,22.56102834535696,24.515301344262525,18.97366596101028,55.78530272392541,44.384682042344295,33.5,39.0,21.0,12.0,24.0,14.0,9.0,6.324555320336759,6.324555320336759,6.5,13.0,31.0,19.4164878389476,{}
260,262,18.24828759089466,83.74365647617735,7.280109889280518,13.341664064126334,22.36067977499789,24.33105012119288,17.72004514666935,56.51548460377917,43.17406628984581,33.0,37.0,20.0,11.5,26.5,13.5,7.5,8.246211251235321,7.280109889280518,7.0,15.0,32.0,19.6468827043885,{}
261,263,19.235384061671343,84.72307831990054,7.071067811865476,13.341664064126334,22.36067977499789,24.33105012119288,17.72004514666935,57.27128425310541,43.93176527297759,33.5,37.0,20.0,11.5,27.5,14.5,7.5,8.06225774829855,8.54400374531753,7.5,13.0,31.0,19.6468827043885,{}
262,264,19.4164878389476,86.34813257969161,6.324555320336759,12.36931687685298,23.53720459187964,25.495097567963924,17.72004514666935,55.78530272392541,43.41658669218482,32.5,37.0,17.0,10.0,27.0,16.0,7.0,6.324555320336759,5.385164807134504,5.5,12.0,30.0,15.811388300841896,{}
263,265,21.587033144922906,86.34813257969161,6.082762530298219,11.40175425099138,22.56102834535696,24.73863375370596,17.08800749063506,56.04462507680822,44.64302857109943,32.5,36.0,16.0,10.0,28.0,18.0,7.0,7.071067811865476,7.615773105863909,7.5,13.0,33.0,19.92485884517128,{}
264,266,20.39607805437113,85.37564055396598,6.324555320336759,11.40175425099138,22.56102834535696,24.73863375370596,16.76305461424021,54.81788029466298,43.41658669218482,32.0,36.0,16.0,10.0,27.0,17.0,7.0,8.06225774829855,6.324555320336759,6.5,14.0,32.0,16.76305461424021,{}
265,267,18.24828759089466,84.17244204607586,7.280109889280518,12.36931687685298,22.56102834535696,24.515301344262525,15.811388300841896,53.60037313302959,41.23105625617661,31.0,34.0,15.0,9.5,27.5,16.5,6.5,7.071067811865476,7.280109889280518,7.5,13.0,32.0,16.76305461424021,{}
266,268,19.4164878389476,84.17244204607586,6.082762530298219,12.36931687685298,22.56102834535696,24.73863375370596,17.08800749063506,54.81788029466298,42.44997055358225,31.5,36.0,17.0,10.5,26.5,15.5,7.5,8.06225774829855,8.246211251235321,8.5,14.0,33.0,16.76305461424021,{}
267,269,19.235384061671343,81.78630692236935,5.385164807134504,12.36931687685298,22.56102834535696,24.515301344262525,17.72004514666935,54.57105459856901,42.20189569201838,31.5,37.0,20.0,11.5,24.5,13.5,9.5,7.071067811865476,6.708203932499369,6.0,13.0,32.0,19.6468827043885,{}
268,270,17.11724276862369,77.46612162745726,5.0990195135927845,14.317821063276352,21.37755832643195,23.345235059857504,18.68154169226941,55.10898293381942,40.79215610874228,31.5,38.0,23.0,12.5,23.5,10.5,9.5,7.071067811865476,7.280109889280518,7.0,14.0,31.0,22.56102834535696,{}
269,271,17.26267650163207,78.44743462982075,6.082762530298219,14.142135623730953,22.36067977499789,24.515301344262525,18.68154169226941,56.08921464952064,41.97618372363071,32.5,38.0,23.0,12.5,24.5,10.5,9.5,7.280109889280518,6.708203932499369,6.5,14.0,31.0,21.587033144922906,{}
270,272,14.142135623730953,75.31268153505093,8.06225774829855,16.278820596099706,21.37755832643195,22.36067977499789,17.46424919657298,55.90169943749474,39.6232255123179,32.0,39.0,25.0,15.0,23.0,7.0,10.0,9.055385138137416,7.615773105863909,7.5,14.0,32.0,23.53720459187964,{}
271,273,14.142135623730953,73.16419889536138,8.246211251235321,17.11724276862369,20.39607805437113,23.345235059857504,18.24828759089466,57.706152185014034,40.60788100849391,33.0,40.0,27.0,15.5,23.5,7.5,9.5,8.06225774829855,8.246211251235321,8.0,14.0,33.0,23.769728648009423,{}
272,274,16.1245154965971,74.33034373659252,7.071067811865476,17.26267650163207,20.39607805437113,23.345235059857504,17.26267650163207,57.706152185014034,40.44749683231337,32.0,41.0,27.0,17.0,23.0,7.0,12.0,8.246211251235321,7.615773105863909,7.5,14.0,31.0,16.76305461424021,{}
273,275,15.297058540778355,73.348483283569,8.06225774829855,17.26267650163207,19.4164878389476,21.37755832643195,18.43908891458577,59.033888572581766,41.77319714841085,33.5,42.0,28.0,17.0,23.0,6.0,11.0,7.280109889280518,7.280109889280518,7.0,15.0,32.0,22.56102834535696,{}
274,276,15.297058540778355,73.348483283569,8.246211251235321,17.11724276862369,20.39607805437113,22.36067977499789,19.235384061671343,59.84145720150872,42.7551166528639,34.5,43.0,29.0,17.0,23.0,6.0,11.0,7.280109889280518,7.280109889280518,7.0,15.0,32.0,22.56102834535696,{}
275,277,17.11724276862369,74.14849964766651,8.246211251235321,16.1245154965971,20.223748416156685,23.345235059857504,19.4164878389476,60.8276253029822,44.7213595499958,35.5,43.0,30.0,17.5,23.5,7.5,11.5,8.246211251235321,7.615773105863909,7.0,14.0,31.0,19.92485884517128,{}
276,278,23.08679276123039,79.90619500389191,8.246211251235321,16.278820596099706,22.20360331117452,24.186773244895647,19.235384061671343,66.75327707311455,50.48762224545735,38.5,45.0,33.0,20.0,27.0,11.0,14.0,8.06225774829855,8.246211251235321,8.0,15.0,32.0,19.4164878389476,{}
277,279,30.066592756745816,80.62257748298549,9.219544457292889,16.1245154965971,23.194827009486403,25.179356624028344,18.24828759089466,73.55270219373317,57.42821606144492,42.0,48.0,38.0,25.0,30.0,14.0,18.0,9.055385138137416,8.246211251235321,8.0,16.0,31.0,20.615528128088304,{}
278,280,34.0147027033899,81.61494961096282,9.219544457292889,16.278820596099706,22.20360331117452,26.0768096208106,19.235384061671343,78.5175139698144,62.28964600958975,45.0,51.0,41.0,27.0,32.0,16.0,20.0,9.055385138137416,8.246211251235321,8.0,16.0,31.0,21.37755832643195,{}
279,281,33.06055050963308,80.75270893288967,8.06225774829855,16.278820596099706,23.08679276123039,26.0768096208106,20.223748416156685,77.52418977325722,61.29437168288782,44.5,52.0,41.0,26.5,30.5,14.5,19.5,8.06225774829855,7.280109889280518,7.5,17.0,31.0,20.39607805437113,{}
280,282,32.0624390837628,81.61494961096282,9.055385138137416,16.278820596099706,22.09072203437452,25.079872407968907,18.24828759089466,75.53806987208503,59.30430001273095,43.0,50.0,40.0,27.0,30.0,15.0,19.0,8.06225774829855,8.246211251235321,8.0,16.0,29.0,19.235384061671343,{}
281,283,32.0624390837628,83.60023923410746,9.055385138137416,15.297058540778355,23.08679276123039,25.079872407968907,19.235384061671343,75.53806987208503,60.29925372672534,44.0,51.0,41.0,27.0,29.0,14.0,19.0,8.246211251235321,9.486832980505138,8.5,18.0,31.0,22.36067977499789,{}
282,284,28.16025568065745,84.48076704197234,9.055385138137416,16.1245154965971,22.09072203437452,25.079872407968907,18.24828759089466,71.56814934033156,55.44366510251645,41.0,48.0,39.0,25.5,27.5,11.5,17.5,9.219544457292889,8.246211251235321,8.0,19.0,32.0,22.20360331117452,{}
283,285,23.021728866442675,85.58621384311844,9.219544457292889,16.278820596099706,22.20360331117452,24.186773244895647,18.24828759089466,66.61080993352356,50.35871324805669,38.5,47.0,37.0,24.0,24.0,9.0,16.0,8.06225774829855,9.219544457292889,8.5,17.0,30.0,21.37755832643195,{}
284,286,22.09072203437452,86.57944328765345,9.219544457292889,16.1245154965971,23.194827009486403,25.179356624028344,19.1049731745428,66.48308055437865,50.35871324805669,39.0,47.0,37.0,23.0,24.0,9.0,16.0,9.219544457292889,9.219544457292889,9.0,18.0,30.0,22.36067977499789,{}
285,287,20.09975124224178,86.70063436907483,9.219544457292889,16.1245154965971,22.09072203437452,24.186773244895647,18.24828759089466,63.63961030678928,47.51841748206689,37.0,46.0,35.0,22.5,22.5,7.5,14.5,9.055385138137416,9.219544457292889,9.0,18.0,31.0,23.194827009486403,{}
286,288,17.11724276862369,88.81441324469807,9.219544457292889,15.132745950421556,23.194827009486403,25.179356624028344,20.223748416156685,61.66036003787198,46.52956049652737,37.5,47.0,35.0,21.0,20.0,6.0,14.0,10.198039027185567,9.486832980505138,9.5,18.0,31.0,25.179356624028344,{}
287,289,17.11724276862369,90.93404203047392,10.198039027185567,14.142135623730953,24.33105012119288,26.1725046566048,19.4164878389476,60.8276253029822,46.69047011971501,37.5,46.0,33.0,20.5,20.5,7.5,12.5,9.219544457292889,8.06225774829855,8.5,17.0,31.0,24.33105012119288,{}
288,290,16.1245154965971,91.92388155425118,10.04987562112089,15.297058540778355,24.186773244895647,26.1725046566048,20.223748416156685,61.66036003787198,46.389654018972806,38.0,46.0,33.0,19.5,21.5,6.5,11.5,9.055385138137416,9.486832980505138,9.0,19.0,33.0,25.317977802344327,{}
289,291,16.1245154965971,90.93404203047392,9.055385138137416,15.297058540778355,23.194827009486403,25.179356624028344,22.20360331117452,62.64982043070834,47.38143096192854,39.0,47.0,34.0,18.5,21.5,7.5,11.5,9.219544457292889,9.219544457292889,9.0,17.0,32.0,25.317977802344327,{}
290,292,17.26267650163207,91.92388155425118,9.055385138137416,14.142135623730953,23.345235059857504,24.33105012119288,18.24828759089466,58.69412236331676,44.553338819890925,35.5,43.0,30.0,18.5,21.5,8.5,11.5,10.198039027185567,9.219544457292889,9.0,22.0,35.0,26.476404589747453,{}
291,293,17.11724276862369,92.91393867445294,9.219544457292889,15.132745950421556,24.33105012119288,26.1725046566048,20.223748416156685,61.66036003787198,46.52956049652737,37.5,45.0,32.0,18.5,22.5,9.5,11.5,10.04987562112089,9.055385138137416,9.0,18.0,32.0,25.495097567963924,{}
292,294,17.11724276862369,92.91393867445294,10.198039027185567,15.132745950421556,24.186773244895647,26.1725046566048,19.4164878389476,61.814237842102365,46.69047011971501,37.5,44.0,31.0,18.5,23.5,9.5,10.5,9.055385138137416,10.198039027185567,10.0,20.0,36.0,22.36067977499789,{}
293,295,18.110770276274835,89.80534505250787,10.198039027185567,17.11724276862369,25.179356624028344,27.16615541441225,19.4164878389476,64.77653896280658,47.67598976424087,38.0,46.0,34.0,21.0,24.0,8.0,13.0,10.04987562112089,9.219544457292889,9.0,21.0,36.0,21.840329667841555,{}
294,296,20.09975124224178,89.80534505250787,9.219544457292889,15.132745950421556,23.194827009486403,26.0768096208106,20.39607805437113,64.77653896280658,49.64876634922564,39.0,46.0,34.0,20.0,24.0,9.0,13.0,9.219544457292889,9.219544457292889,9.5,22.0,36.0,23.769728648009423,{}
295,297,24.020824298928627,85.70880934886448,8.246211251235321,19.1049731745428,24.08318915758459,27.16615541441225,20.223748416156685,71.449282711585,52.3450093132096,40.0,48.0,37.0,22.5,28.5,10.5,15.5,10.198039027185567,9.219544457292889,9.0,21.0,35.0,23.345235059857504,{}
296,298,27.018512172212592,84.71717653463199,10.04987562112089,19.1049731745428,24.08318915758459,26.1725046566048,18.24828759089466,74.33034373659252,55.22680508593631,41.5,49.0,38.0,25.5,30.5,12.5,16.5,11.04536101718726,10.198039027185567,10.0,23.0,37.0,21.587033144922906,{}
297,299,29.017236257093817,83.60023923410746,9.055385138137416,18.027756377319943,23.08679276123039,27.073972741361768,19.235384061671343,75.23961722390672,57.21887800367987,42.5,49.0,39.0,25.0,31.0,12.0,17.0,9.055385138137416,10.04987562112089,10.0,23.0,37.0,24.33105012119288,{}
298,300,25.019992006393608,85.58621384311844,9.219544457292889,16.1245154965971,23.08679276123039,25.179356624028344,20.09975124224178,70.34912934784623,54.230987451824994,41.5,48.0,38.0,23.0,27.0,10.0,16.0,10.04987562112089,10.198039027185567,10.0,20.0,32.0,26.30589287593181,{}
299,301,25.079872407968907,84.48076704197234,9.055385138137416,15.132745950421556,24.08318915758459,26.1725046566048,20.223748416156685,69.46221994724903,54.3323108288245,41.5,48.0,39.0,23.5,25.5,9.5,16.5,10.04987562112089,9.219544457292889,9.5,17.0,31.0,21.587033144922906,{}
300,302,19.026297590440446,84.71717653463199,9.055385138137416,14.142135623730953,24.186773244895647,25.179356624028344,20.223748416156685,62.39390995922599,48.25971404805462,38.5,47.0,36.0,21.5,20.5,6.5,14.5,9.055385138137416,8.246211251235321,9.0,20.0,32.0,20.39607805437113,{}
301,303,8.06225774829855,82.73451516749222,10.04987562112089,16.278820596099706,21.213203435596427,23.194827009486403,21.213203435596427,55.57877292636101,39.319206502675,35.0,47.0,36.0,20.5,13.5,2.5,12.5,8.246211251235321,8.246211251235321,8.5,20.0,33.0,19.235384061671343,{}
302,304,4.123105625617661,78.77182237323191,11.180339887498947,16.278820596099706,21.213203435596427,22.20360331117452,24.186773244895647,55.731499172371095,39.45883931389772,37.0,47.0,36.0,17.5,13.5,2.5,8.5,9.055385138137416,9.219544457292889,9.5,22.0,34.0,23.194827009486403,{}
303,305,1.0,77.78174593052023,12.041594578792296,16.278820596099706,20.09975124224178,21.213203435596427,25.317977802344327,53.75872022286245,37.48332962798263,37.0,47.0,36.0,16.5,11.5,4.5,6.5,9.055385138137416,9.486832980505138,9.5,21.0,35.0,22.20360331117452,{}
304,306,1.0,77.64663547121665,12.16552506059644,17.26267650163207,19.1049731745428,21.213203435596427,25.079872407968907,54.589376255824725,37.33630940518894,37.0,47.0,37.0,17.0,12.0,5.0,7.0,10.198039027185567,10.198039027185567,10.5,21.0,34.0,22.09072203437452,{}
305,307,2.23606797749979,74.81310045707235,10.04987562112089,16.1245154965971,17.26267650163207,19.235384061671343,28.16025568065745,55.57877292636101,39.45883931389772,38.5,48.0,37.0,14.5,12.5,2.5,6.5,10.198039027185567,9.219544457292889,9.5,21.0,34.0,22.20360331117452,{}
306,308,2.8284271247461903,73.68174807915459,11.04536101718726,16.1245154965971,18.24828759089466,20.223748416156685,25.079872407968907,54.45181356024793,38.3275357934736,37.0,46.0,36.0,16.0,13.0,2.0,7.0,10.04987562112089,10.198039027185567,10.5,20.0,34.0,20.09975124224178,{}
307,309,2.23606797749979,73.824115301167,13.038404810405298,17.11724276862369,18.24828759089466,20.223748416156685,25.079872407968907,56.43580423808985,39.319206502675,38.5,49.0,38.0,18.5,12.5,4.5,8.5,11.04536101718726,11.04536101718726,11.0,21.0,34.0,24.33105012119288,{}
308,310,2.23606797749979,72.69112738154499,12.16552506059644,17.11724276862369,17.11724276862369,19.235384061671343,27.073972741361768,58.42088667591412,41.30375285612676,40.0,49.0,39.0,17.0,14.0,2.0,7.0,10.04987562112089,10.198039027185567,10.0,20.0,34.0,22.36067977499789,{}
309,311,3.1622776601683795,71.84705978674423,12.041594578792296,19.235384061671343,18.24828759089466,20.223748416156685,26.1725046566048,60.53098380168623,41.30375285612676,39.5,49.0,38.0,17.5,16.5,1.5,7.5,10.04987562112089,10.198039027185567,10.5,21.0,35.0,27.459060435491963,{}
310,312,7.280109889280518,69.58448102845921,12.041594578792296,17.11724276862369,17.11724276862369,19.235384061671343,26.0768096208106,62.39390995922599,45.27692569068709,41.5,51.0,42.0,20.5,15.5,1.5,9.5,10.04987562112089,9.219544457292889,9.5,21.0,35.0,22.36067977499789,{}
311,313,12.041594578792296,67.60177512462228,11.04536101718726,18.110770276274835,17.26267650163207,19.235384061671343,26.1725046566048,67.36467917239716,49.25444142409901,43.0,52.0,43.0,21.5,19.5,1.5,12.5,10.04987562112089,9.219544457292889,9.5,21.0,35.0,26.476404589747453,{}
312,314,14.0356688476182,68.46897107449476,11.04536101718726,19.1049731745428,19.1049731745428,21.095023109728988,25.179356624028344,69.35416353759881,50.24937810560445,43.0,53.0,45.0,24.0,20.0,1.0,14.0,10.198039027185567,10.198039027185567,10.5,22.0,35.0,23.345235059857504,{}
313,315,13.038404810405298,69.46221994724903,10.04987562112089,19.1049731745428,19.1049731745428,22.09072203437452,24.186773244895647,66.37017402418047,47.265209192385896,40.5,50.0,42.0,22.0,20.0,1.0,13.0,11.180339887498947,10.198039027185567,10.0,20.0,34.0,24.186773244895647,{}
314,316,14.0356688476182,70.45565981523414,10.04987562112089,19.1049731745428,19.1049731745428,22.09072203437452,24.33105012119288,67.47592163134935,48.373546489791295,41.0,49.0,41.0,21.0,22.0,3.0,12.0,11.180339887498947,10.44030650891055,10.0,21.0,35.0,26.30589287593181,{}
315,317,15.0,72.56031973468694,9.219544457292889,18.110770276274835,20.09975124224178,22.09072203437452,22.20360331117452,64.38167441127949,46.2709412050371,38.5,47.0,38.0,20.5,21.5,3.5,12.5,9.055385138137416,10.198039027185567,10.0,19.0,34.0,29.27456233660889,{}
316,318,15.132745950421556,70.57619995437555,9.055385138137416,19.1049731745428,20.09975124224178,22.20360331117452,20.09975124224178,63.38769596696192,44.28317965096906,36.5,44.0,35.0,19.5,23.5,4.5,11.5,8.246211251235321,8.246211251235321,8.0,19.0,35.0,19.4164878389476,{}
317,319,17.029386365926403,72.69112738154499,9.055385138137416,19.1049731745428,21.095023109728988,23.194827009486403,21.37755832643195,66.48308055437865,47.38143096192854,38.5,46.0,36.0,20.0,25.0,7.0,12.0,9.219544457292889,8.54400374531753,8.5,20.0,35.0,20.39607805437113,{}
318,320,13.038404810405298,76.94153624668537,9.055385138137416,16.278820596099706,21.213203435596427,23.194827009486403,22.20360331117452,60.53098380168623,44.28317965096906,37.5,45.0,33.0,17.0,21.0,4.0,10.0,9.219544457292889,9.219544457292889,9.0,18.0,34.0,20.39607805437113,{}
319,321,8.06225774829855,78.77182237323191,9.055385138137416,17.11724276862369,21.213203435596427,22.20360331117452,22.36067977499789,56.56854249492381,39.45883931389772,35.0,42.0,31.0,14.5,19.5,2.5,7.5,8.06225774829855,7.280109889280518,8.0,17.0,32.0,20.39607805437113,{}
320,322,8.06225774829855,78.77182237323191,9.055385138137416,16.1245154965971,20.223748416156685,22.20360331117452,22.09072203437452,55.326304774492215,39.20459156782532,35.0,42.0,31.0,14.5,18.5,2.5,7.5,8.246211251235321,7.280109889280518,8.0,17.0,34.0,17.72004514666935,{}
321,323,12.041594578792296,82.60750571225353,7.071067811865476,15.132745950421556,21.095023109728988,23.345235059857504,22.20360331117452,56.43580423808985,41.30375285612676,35.0,41.0,31.0,14.0,20.0,5.0,9.0,11.04536101718726,10.198039027185567,10.0,18.0,33.0,20.615528128088304,{}
322,324,11.04536101718726,82.49242389456137,8.0,17.11724276862369,22.09072203437452,24.08318915758459,22.36067977499789,58.42088667591412,41.30375285612676,35.5,40.0,31.0,13.5,22.5,5.5,7.5,9.055385138137416,8.246211251235321,8.0,19.0,33.0,23.345235059857504,{}
323,325,12.041594578792296,86.37129152675674,7.071067811865476,17.11724276862369,23.08679276123039,25.079872407968907,21.213203435596427,57.42821606144492,40.311288741492746,34.0,38.0,30.0,13.0,23.0,6.0,7.0,10.04987562112089,10.198039027185567,10.0,20.0,34.0,22.36067977499789,{}
324,326,14.0356688476182,88.45903006477066,7.0,16.1245154965971,24.186773244895647,26.0768096208106,21.37755832643195,58.42088667591412,42.2965719651132,35.0,39.0,30.0,13.5,23.5,7.5,7.5,10.04987562112089,8.06225774829855,8.0,20.0,33.0,23.345235059857504,{}
325,327,13.152946437965904,88.45903006477066,7.0,16.1245154965971,24.186773244895647,26.0768096208106,21.37755832643195,57.55866572463264,41.43669871020132,34.5,38.0,29.0,12.5,23.5,7.5,7.5,10.0,9.055385138137416,9.0,20.0,33.0,21.37755832643195,{}
326,328,15.033296378372908,89.27485648266257,7.0,16.1245154965971,24.08318915758459,27.073972741361768,20.39607805437113,58.42088667591412,42.2965719651132,34.5,36.0,29.0,12.5,25.5,9.5,6.5,10.04987562112089,10.198039027185567,10.0,23.0,33.0,24.186773244895647,{}
327,329,15.132745950421556,89.27485648266257,7.0,17.029386365926403,24.08318915758459,26.0768096208106,21.213203435596427,60.29925372672534,43.28972164382672,35.5,35.0,28.0,10.5,28.5,11.5,5.5,10.0,9.219544457292889,9.5,22.0,32.0,22.20360331117452,{}
328,330,15.132745950421556,90.27181176868004,7.071067811865476,17.029386365926403,24.08318915758459,27.073972741361768,20.223748416156685,59.4138031100518,42.42640687119285,34.5,35.0,28.0,11.5,27.5,10.5,6.5,11.0,9.219544457292889,9.5,23.0,33.0,20.39607805437113,{}
329,331,14.0356688476182,90.27181176868004,7.071067811865476,16.0312195418814,25.079872407968907,28.0713376952364,20.09975124224178,57.21887800367987,41.19465984809196,34.0,33.0,26.0,9.5,27.5,10.5,4.5,9.055385138137416,9.219544457292889,9.0,22.0,32.0,24.186773244895647,{}
330,332,15.132745950421556,90.19977827023745,7.0,16.0312195418814,24.08318915758459,27.018512172212592,19.235384061671343,57.3149195236284,41.30375285612676,33.5,32.0,26.0,10.0,28.0,11.0,4.0,10.0,10.04987562112089,9.5,23.0,32.0,23.194827009486403,{}
331,333,14.142135623730953,93.34345183246651,6.0,15.033296378372908,24.08318915758459,27.018512172212592,20.223748416156685,55.326304774492215,40.311288741492746,33.0,31.0,23.0,7.0,28.0,13.0,2.0,10.0,9.055385138137416,9.0,24.0,33.0,20.223748416156685,{}
332,334,14.142135623730953,91.35097153287424,7.0,15.033296378372908,25.179356624028344,26.0768096208106,19.235384061671343,55.326304774492215,40.311288741492746,33.0,31.0,23.0,8.0,28.0,13.0,3.0,10.0,10.198039027185567,10.0,25.0,34.0,24.33105012119288,{}
333,335,16.1245154965971,92.26592003551474,6.0,15.033296378372908,24.186773244895647,27.073972741361768,20.223748416156685,57.3149195236284,42.2965719651132,34.0,31.0,24.0,7.5,29.5,14.5,3.5,10.0,9.219544457292889,9.5,23.0,33.0,25.179356624028344,{}
334,336,19.1049731745428,90.448880590088,5.0990195135927845,15.033296378372908,24.186773244895647,27.16615541441225,19.235384061671343,58.42088667591412,43.41658669218482,33.5,31.0,22.0,7.5,31.5,15.5,4.5,5.0990195135927845,4.123105625617661,4.0,22.0,32.0,19.235384061671343,{}
335,337,18.110770276274835,89.45389874119518,6.0,14.0356688476182,24.186773244895647,27.073972741361768,19.4164878389476,57.42821606144492,43.41658669218482,34.0,33.0,24.0,9.5,28.5,13.5,5.5,6.324555320336759,5.0990195135927845,4.5,22.0,32.0,18.43908891458577,{}
336,338,17.029386365926403,84.38009243891595,6.082762530298219,17.11724276862369,22.09072203437452,25.079872407968907,18.110770276274835,58.30951894845301,41.19465984809196,32.5,33.0,25.0,11.0,29.0,12.0,6.0,4.123105625617661,3.1622776601683795,3.0,22.0,33.0,17.26267650163207,{}
337,339,17.029386365926403,80.30566605165541,7.0,18.110770276274835,22.09072203437452,24.08318915758459,17.11724276862369,59.21148537234985,41.10960958218893,32.5,35.0,28.0,14.5,27.5,9.5,8.5,3.1622776601683795,3.1622776601683795,2.5,22.0,32.0,24.08318915758459,{}
338,340,20.0,79.30952023559341,6.082762530298219,17.11724276862369,21.095023109728988,24.08318915758459,17.11724276862369,60.20797289396148,43.10452412450461,33.0,36.0,29.0,15.5,27.5,10.5,10.5,6.324555320336759,5.0990195135927845,4.5,21.0,31.0,21.213203435596427,{}
339,341,18.0,77.23341245859851,7.071067811865476,18.110770276274835,21.095023109728988,24.08318915758459,17.029386365926403,60.13318551349163,42.04759208325728,33.0,37.0,31.0,17.0,26.0,8.0,11.0,8.06225774829855,7.280109889280518,7.0,22.0,32.0,22.09072203437452,{}
340,342,19.0,78.40918313565064,7.071067811865476,19.026297590440446,21.02379604162864,23.08679276123039,17.029386365926403,62.07253821135398,43.04648650006177,33.5,38.0,30.0,17.0,28.0,9.0,10.0,8.06225774829855,7.071067811865476,6.5,22.0,31.0,18.110770276274835,{}
341,343,20.024984394500787,76.32168761236873,8.06225774829855,18.027756377319943,22.09072203437452,24.08318915758459,18.110770276274835,64.19501538281614,46.17358552246078,36.0,40.0,33.0,18.5,27.5,9.5,11.5,9.055385138137416,8.246211251235321,8.0,20.0,30.0,22.09072203437452,{}
342,344,22.09072203437452,77.31752712031083,7.071067811865476,18.027756377319943,22.09072203437452,24.08318915758459,20.223748416156685,67.36467917239716,49.36598018878993,38.0,41.0,34.0,17.5,29.5,11.5,11.5,7.071067811865476,7.071067811865476,7.0,20.0,31.0,19.4164878389476,{}
343,345,22.02271554554524,79.30952023559341,6.0,17.11724276862369,22.02271554554524,25.079872407968907,20.615528128088304,65.49045732013177,48.373546489791295,37.0,41.0,34.0,17.5,27.5,10.5,11.5,9.055385138137416,9.055385138137416,9.0,19.0,30.0,19.235384061671343,{}
344,346,20.024984394500787,81.39410298049853,8.06225774829855,17.11724276862369,22.09072203437452,24.08318915758459,20.39607805437113,65.49045732013177,48.373546489791295,38.0,41.0,33.0,17.0,28.0,11.0,11.0,9.0,9.055385138137416,9.5,18.0,29.0,23.194827009486403,{}
345,347,21.02379604162864,79.40403012442127,7.071067811865476,17.11724276862369,22.09072203437452,24.08318915758459,21.37755832643195,66.48308055437865,49.36598018878993,38.5,42.0,34.0,17.0,28.0,11.0,11.0,9.055385138137416,8.246211251235321,9.0,17.0,29.0,24.33105012119288,{}
346,348,18.027756377319943,81.39410298049853,8.06225774829855,17.029386365926403,22.09072203437452,24.08318915758459,20.39607805437113,63.38769596696192,46.389654018972806,37.0,40.0,32.0,16.0,27.0,10.0,10.0,10.0,10.198039027185567,10.5,18.0,30.0,23.345235059857504,{}
347,349,18.027756377319943,79.51100552753688,7.071067811865476,15.132745950421556,22.09072203437452,24.186773244895647,20.39607805437113,60.53098380168623,45.39823785126467,36.0,40.0,31.0,15.5,24.5,8.5,10.5,8.06225774829855,8.246211251235321,8.5,16.0,29.0,18.24828759089466,{}
348,350,16.0312195418814,78.31347265956222,7.071067811865476,16.1245154965971,22.09072203437452,24.08318915758459,19.235384061671343,58.42088667591412,42.2965719651132,34.0,39.0,32.0,16.5,22.5,6.5,10.5,9.055385138137416,9.219544457292889,9.0,19.0,30.0,16.76305461424021,{}
349,351,15.132745950421556,77.23341245859851,8.0,17.029386365926403,20.09975124224178,23.08679276123039,18.110770276274835,58.215118311311535,41.19465984809196,33.5,38.0,32.0,17.0,23.0,6.0,10.0,9.055385138137416,8.06225774829855,8.5,19.0,28.0,21.095023109728988,{}
350,352,15.033296378372908,75.32595834106593,7.071067811865476,16.1245154965971,20.024984394500787,22.09072203437452,19.235384061671343,57.42821606144492,41.30375285612676,33.5,39.0,32.0,16.5,21.5,4.5,10.5,8.06225774829855,8.246211251235321,8.0,18.0,27.0,16.1245154965971,{}
351,353,13.038404810405298,75.16648189186454,8.0,15.033296378372908,20.024984394500787,22.02271554554524,19.1049731745428,55.14526271584895,40.11234224026316,33.5,38.0,33.0,16.5,19.5,4.5,9.5,9.0,9.055385138137416,9.0,20.0,28.0,20.09975124224178,{}
352,354,11.04536101718726,73.10950690573696,9.0,15.033296378372908,19.0,21.02379604162864,17.11724276862369,52.15361924162119,37.12142238654117,31.5,36.0,32.0,17.0,18.0,2.0,8.0,8.0,8.0,8.0,20.0,26.0,22.09072203437452,{}
353,355,7.071067811865476,72.02777242147643,9.0,15.0,18.027756377319943,21.02379604162864,19.1049731745428,50.08991914547278,35.12833614050059,31.5,36.0,34.0,16.0,15.0,0.0,8.0,9.055385138137416,9.0,9.5,23.0,26.0,24.020824298928627,{}
354,356,7.071067811865476,73.0,9.0,13.038404810405298,18.027756377319943,20.0,19.026297590440446,48.010415536631214,35.05709628591621,31.5,34.0,34.0,15.0,14.0,0.0,7.0,9.0,8.0,8.5,24.0,23.0,25.019992006393608,{}
355,357,6.0,72.0,9.0,15.0,18.0,20.024984394500787,19.026297590440446,49.01020301937138,34.0147027033899,31.0,34.0,34.0,15.0,15.0,1.0,6.0,9.0,9.0,9.5,24.0,23.0,25.019992006393608,{}
356,358,3.1622776601683795,64.07027391856539,10.04987562112089,14.0,17.0,18.0,23.021728866442675,50.00999900019995,36.013886210738214,34.5,39.0,42.0,17.5,9.5,5.5,8.5,10.0,9.0,9.0,27.0,21.0,19.0,{}
357,359,8.0,67.36467917239716,9.055385138137416,14.0356688476182,18.110770276274835,20.09975124224178,23.0,54.037024344425184,40.01249804748511,36.0,36.0,43.0,16.5,14.5,1.5,7.5,10.04987562112089,9.055385138137416,9.0,27.0,19.0,24.08318915758459,{}
358,360,10.0,62.64982043070834,9.0,15.033296378372908,16.1245154965971,18.027756377319943,23.021728866442675,57.0350769263968,42.01190307520001,37.0,36.0,45.0,17.5,16.5,0.5,7.5,10.04987562112089,9.055385138137416,9.5,27.0,18.0,26.1725046566048,{}
359,361,10.04987562112089,64.6297145282261,9.0,16.1245154965971,17.11724276862369,19.235384061671343,22.02271554554524,57.14017850864661,41.04875150354759,36.0,34.0,43.0,16.5,18.5,0.5,6.5,10.198039027185567,9.219544457292889,9.0,29.0,17.0,25.317977802344327,{}
360,362,10.0,62.64982043070834,9.055385138137416,16.1245154965971,17.11724276862369,19.235384061671343,21.02379604162864,56.1426753904728,40.049968789001575,35.0,34.0,43.0,17.5,17.5,0.5,7.5,10.04987562112089,9.219544457292889,10.0,30.0,19.0,22.36067977499789,{}
361,363,12.0,64.77653896280658,9.055385138137416,17.11724276862369,18.110770276274835,20.223748416156685,21.095023109728988,59.21148537234985,42.1070065428546,36.0,35.0,45.0,19.0,19.0,0.0,9.0,9.219544457292889,9.219544457292889,9.0,30.0,17.0,26.30589287593181,{}
362,364,19.026297590440446,67.7421582177598,9.055385138137416,16.1245154965971,19.235384061671343,22.20360331117452,20.024984394500787,64.19501538281614,48.0936586256442,38.5,35.0,45.0,20.0,24.0,6.0,10.0,10.04987562112089,9.055385138137416,9.5,30.0,17.0,22.36067977499789,{}
363,365,23.021728866442675,69.87131027825369,8.246211251235321,14.142135623730953,18.24828759089466,21.213203435596427,19.026297590440446,64.28063471995279,50.15974481593781,38.5,35.0,46.0,21.5,23.5,7.5,12.5,10.198039027185567,10.04987562112089,10.5,29.0,17.0,23.345235059857504,{}
364,366,22.02271554554524,72.83543093852057,8.246211251235321,14.142135623730953,20.223748416156685,22.20360331117452,19.1049731745428,63.38769596696192,49.25444142409901,38.0,33.0,44.0,19.5,24.5,8.5,10.5,9.219544457292889,9.055385138137416,9.5,30.0,17.0,22.36067977499789,{}
365,367,23.021728866442675,73.824115301167,8.06225774829855,14.142135623730953,20.223748416156685,22.20360331117452,19.1049731745428,64.28063471995279,50.15974481593781,38.5,33.0,44.0,19.5,25.5,9.5,10.5,10.198039027185567,9.055385138137416,9.5,30.0,16.0,25.317977802344327,{}
366,368,20.09975124224178,73.824115301167,8.06225774829855,13.152946437965904,21.213203435596427,22.20360331117452,19.1049731745428,60.40695324215582,47.265209192385896,37.0,32.0,43.0,18.5,22.5,6.5,9.5,10.198039027185567,10.04987562112089,10.0,29.0,16.0,21.213203435596427,{}
367,369,11.04536101718726,73.55270219373317,8.246211251235321,12.041594578792296,18.24828759089466,20.09975124224178,23.08679276123039,54.3323108288245,42.2965719651132,36.5,33.0,42.0,14.5,16.5,2.5,5.5,9.055385138137416,8.06225774829855,8.5,28.0,15.0,21.213203435596427,{}
368,370,2.23606797749979,69.58448102845921,10.04987562112089,12.041594578792296,18.110770276274835,19.235384061671343,23.08679276123039,47.265209192385896,35.22782990761707,34.0,32.0,41.0,13.5,10.5,3.5,2.5,9.219544457292889,9.055385138137416,9.0,29.0,15.0,20.223748416156685,{}
369,371,1.0,69.72087205421343,9.055385138137416,11.180339887498947,17.26267650163207,19.1049731745428,24.186773244895647,45.39823785126467,34.23448553724738,33.5,32.0,42.0,13.0,8.0,5.0,3.0,9.055385138137416,9.055385138137416,9.5,29.0,15.0,22.20360331117452,{}
370,372,1.0,69.46221994724903,10.04987562112089,11.180339887498947,18.110770276274835,19.1049731745428,22.09072203437452,44.28317965096906,33.13608305156178,32.5,32.0,40.0,14.0,8.0,4.0,3.0,9.219544457292889,8.06225774829855,8.5,29.0,15.0,20.223748416156685,{}
371,373,4.123105625617661,69.87131027825369,10.04987562112089,12.16552506059644,16.278820596099706,18.24828759089466,23.08679276123039,49.36598018878993,37.21558813185679,35.0,33.0,44.0,15.5,10.5,3.5,4.5,10.198039027185567,10.04987562112089,10.0,29.0,14.0,19.4164878389476,{}
372,374,12.041594578792296,71.84705978674423,10.04987562112089,14.142135623730953,18.24828759089466,20.223748416156685,20.09975124224178,56.32051136131489,42.190046219457976,36.0,31.0,42.0,16.5,19.5,3.5,5.5,9.219544457292889,9.055385138137416,9.5,30.0,16.0,22.20360331117452,{}
373,375,14.0356688476182,72.99315036357864,9.055385138137416,15.297058540778355,19.1049731745428,20.39607805437113,19.1049731745428,57.42821606144492,42.190046219457976,35.0,31.0,43.0,18.0,20.0,3.0,8.0,9.055385138137416,9.055385138137416,9.0,30.0,15.0,21.37755832643195,{}
374,376,15.033296378372908,73.824115301167,9.055385138137416,15.132745950421556,20.223748416156685,21.213203435596427,20.09975124224178,59.30430001273095,44.181444068749045,36.5,33.0,44.0,18.5,20.5,3.5,8.5,9.219544457292889,8.06225774829855,8.0,29.0,14.0,18.43908891458577,{}
375,377,15.033296378372908,73.97972695272672,10.04987562112089,15.132745950421556,19.235384061671343,22.20360331117452,19.1049731745428,59.30430001273095,44.181444068749045,36.5,32.0,44.0,19.0,21.0,4.0,8.0,10.198039027185567,10.04987562112089,10.0,29.0,14.0,21.37755832643195,{}
376,378,17.029386365926403,75.8023746329889,8.06225774829855,13.152946437965904,20.223748416156685,22.36067977499789,19.1049731745428,57.3149195236284,44.181444068749045,35.5,31.0,42.0,17.5,20.5,4.5,8.5,8.246211251235321,8.246211251235321,8.0,29.0,14.0,20.39607805437113,{}
377,379,15.132745950421556,75.8023746329889,9.055385138137416,14.142135623730953,20.223748416156685,21.213203435596427,19.1049731745428,57.42821606144492,43.28972164382672,35.5,31.0,42.0,17.5,20.5,4.5,7.5,9.055385138137416,9.055385138137416,9.0,28.0,13.0,19.6468827043885,{}
378,380,15.0,75.8023746329889,8.06225774829855,13.152946437965904,20.223748416156685,22.20360331117452,19.1049731745428,55.22680508593631,42.1070065428546,34.5,29.0,40.0,15.5,20.5,5.5,6.5,9.055385138137416,9.055385138137416,9.0,27.0,12.0,18.43908891458577,{}
379,381,15.033296378372908,75.8023746329889,8.0,12.041594578792296,20.223748416156685,22.20360331117452,18.24828759089466,53.23532661682466,41.19465984809196,33.5,27.0,38.0,14.5,20.5,6.5,5.5,8.246211251235321,8.06225774829855,7.5,28.0,14.0,18.43908891458577,{}
380,382,15.033296378372908,75.8023746329889,8.0,12.041594578792296,20.223748416156685,22.20360331117452,18.24828759089466,53.23532661682466,41.19465984809196,33.5,27.0,38.0,14.5,20.5,6.5,5.5,8.246211251235321,8.06225774829855,7.5,28.0,14.0,18.43908891458577,{}
381,383,15.033296378372908,75.8023746329889,7.071067811865476,12.16552506059644,19.1049731745428,21.213203435596427,18.110770276274835,52.3450093132096,40.19950248448356,32.5,27.0,38.0,14.5,19.5,5.5,6.5,8.06225774829855,8.06225774829855,8.0,28.0,13.0,18.43908891458577,{}
382,384,14.0356688476182,76.6550715869472,6.082762530298219,12.041594578792296,20.09975124224178,22.20360331117452,19.026297590440446,51.15662224971465,39.11521443121589,32.0,26.0,36.0,12.0,20.0,6.0,5.0,8.246211251235321,7.280109889280518,7.5,29.0,15.0,20.223748416156685,{}
383,385,13.038404810405298,76.53103945458993,7.071067811865476,12.16552506059644,19.235384061671343,21.213203435596427,18.110770276274835,50.35871324805669,38.2099463490856,31.5,25.0,34.0,11.5,20.5,6.5,3.5,4.123105625617661,4.47213595499958,4.0,29.0,16.0,20.39607805437113,{}
384,386,12.16552506059644,77.64663547121665,7.071067811865476,12.041594578792296,20.223748416156685,21.095023109728988,18.110770276274835,49.36598018878993,37.33630940518894,31.0,24.0,34.0,11.0,20.0,6.0,3.0,3.0,3.605551275463989,3.0,28.0,15.0,18.24828759089466,{}
385,387,13.152946437965904,77.64663547121665,7.071067811865476,11.180339887498947,20.223748416156685,22.20360331117452,18.027756377319943,49.36598018878993,38.2099463490856,31.5,24.0,34.0,11.0,20.0,7.0,3.0,3.1622776601683795,3.605551275463989,3.0,30.0,17.0,18.68154169226941,{}
386,388,15.033296378372908,77.52418977325722,6.082762530298219,11.04536101718726,21.095023109728988,22.20360331117452,18.110770276274835,50.24937810560445,39.20459156782532,31.5,25.0,34.0,11.5,20.5,7.5,4.5,4.123105625617661,3.605551275463989,3.5,29.0,16.0,18.43908891458577,{}
387,389,15.033296378372908,74.67261881037788,6.082762530298219,12.041594578792296,20.223748416156685,21.213203435596427,19.026297590440446,52.15361924162119,40.11234224026316,32.5,25.0,35.0,11.0,22.0,8.0,4.0,6.324555320336759,5.385164807134504,5.0,29.0,15.0,19.6468827043885,{}
388,390,16.0,75.53806987208503,5.0990195135927845,13.152946437965904,21.095023109728988,22.20360331117452,18.110770276274835,52.23983154643591,39.11521443121589,31.0,24.0,33.0,10.5,23.5,8.5,4.5,6.324555320336759,5.385164807134504,5.5,28.0,14.0,18.24828759089466,{}
389,391,16.0312195418814,76.6550715869472,6.082762530298219,12.041594578792296,20.223748416156685,21.213203435596427,17.11724276862369,51.24451190127583,39.20459156782532,31.0,23.0,33.0,11.0,23.0,9.0,4.0,8.246211251235321,7.071067811865476,7.5,29.0,14.0,21.37755832643195,{}
390,392,18.0,75.53806987208503,5.0990195135927845,11.180339887498947,20.09975124224178,22.09072203437452,18.110770276274835,52.23983154643591,41.10960958218893,32.0,24.0,33.0,10.5,23.5,9.5,4.5,7.280109889280518,7.071067811865476,7.0,29.0,13.0,21.37755832643195,{}
391,393,16.0,76.53103945458993,6.082762530298219,12.16552506059644,20.09975124224178,22.09072203437452,16.1245154965971,50.24937810560445,38.11823710509184,30.0,22.0,31.0,10.5,23.5,9.5,3.5,9.219544457292889,8.06225774829855,8.5,29.0,13.0,21.840329667841555,{}
392,394,16.0,74.54528824815154,6.082762530298219,12.041594578792296,20.223748416156685,21.213203435596427,17.11724276862369,51.15662224971465,39.11521443121589,31.0,23.0,32.0,10.5,23.5,9.5,3.5,9.219544457292889,9.219544457292889,9.0,30.0,14.0,24.73863375370596,{}
393,395,15.0,74.54528824815154,6.082762530298219,12.16552506059644,20.223748416156685,22.20360331117452,17.11724276862369,50.24937810560445,38.11823710509184,30.5,22.0,31.0,9.5,23.5,8.5,2.5,8.54400374531753,7.071067811865476,7.5,30.0,14.0,23.53720459187964,{}
394,396,13.0,73.43704787094863,6.324555320336759,12.16552506059644,20.223748416156685,21.095023109728988,16.0312195418814,47.265209192385896,35.12833614050059,28.5,20.0,28.0,8.0,23.0,9.0,1.0,8.246211251235321,9.055385138137416,9.0,29.0,13.0,28.442925306655784,{}
395,397,13.038404810405298,71.449282711585,5.0990195135927845,12.16552506059644,20.09975124224178,21.213203435596427,18.027756377319943,48.25971404805462,36.12478373637688,29.5,21.0,29.0,7.0,23.0,8.0,2.0,9.219544457292889,8.06225774829855,8.0,30.0,14.0,25.70992026436488,{}
396,398,10.0,71.449282711585,5.0990195135927845,11.180339887498947,18.24828759089466,20.223748416156685,17.11724276862369,43.28972164382672,32.14031735997639,27.0,19.0,27.0,6.0,20.0,6.0,0.0,8.246211251235321,8.246211251235321,8.0,31.0,14.0,22.56102834535696,{}
397,399,6.082762530298219,69.72087205421343,5.0990195135927845,12.16552506059644,18.110770276274835,19.1049731745428,18.110770276274835,41.43669871020132,29.27456233660889,26.0,18.0,28.0,5.0,18.0,4.0,0.0,8.54400374531753,8.246211251235321,8.0,31.0,14.0,22.56102834535696,{}
398,400,9.055385138137416,69.87131027825369,5.0990195135927845,13.152946437965904,17.26267650163207,19.4164878389476,17.11724276862369,44.40720662234904,31.25699921617557,26.5,19.0,30.0,7.5,19.5,4.5,1.5,9.486832980505138,9.055385138137416,9.0,32.0,15.0,22.56102834535696,{}
399,401,12.041594578792296,68.73136110975832,6.082762530298219,14.142135623730953,18.24828759089466,20.223748416156685,17.26267650163207,49.49747468305833,35.35533905932738,29.0,21.0,31.0,9.0,23.0,6.0,2.0,9.486832980505138,8.246211251235321,8.5,31.0,14.0,23.769728648009423,{}
400,402,12.041594578792296,68.8839603971781,5.0990195135927845,14.142135623730953,18.24828759089466,20.223748416156685,18.24828759089466,49.49747468305833,35.35533905932738,29.0,21.0,32.0,8.5,22.5,5.5,2.5,8.246211251235321,8.06225774829855,8.5,32.0,15.0,21.587033144922906,{}
401,403,14.0356688476182,70.21395872616783,6.082762530298219,14.142135623730953,19.4164878389476,21.37755832643195,16.278820596099706,50.48762224545735,36.345563690772494,29.0,21.0,34.0,11.5,22.5,5.5,3.5,9.219544457292889,9.219544457292889,9.0,32.0,14.0,27.459060435491963,{}
402,404,16.1245154965971,71.386273190299,5.0990195135927845,14.142135623730953,19.4164878389476,21.37755832643195,16.278820596099706,51.62363799656123,37.48332962798263,29.0,20.0,34.0,11.0,24.0,7.0,4.0,10.44030650891055,9.219544457292889,9.5,33.0,13.0,25.96150997149434,{}
403,405,19.026297590440446,73.348483283569,5.385164807134504,14.317821063276352,21.37755832643195,23.345235059857504,16.278820596099706,54.74486277268398,40.44749683231337,30.5,21.0,35.0,12.0,26.0,9.0,5.0,10.44030650891055,10.198039027185567,10.0,34.0,13.0,24.73863375370596,{}
404,406,19.1049731745428,73.00684899377592,6.324555320336759,14.317821063276352,20.615528128088304,22.36067977499789,16.278820596099706,55.90169943749474,41.593268686170845,31.5,20.0,37.0,12.5,26.5,9.5,4.5,10.44030650891055,9.219544457292889,9.5,34.0,13.0,21.840329667841555,{}
405,407,19.1049731745428,73.00684899377592,6.324555320336759,13.341664064126334,20.615528128088304,22.56102834535696,16.278820596099706,54.91812087098393,41.593268686170845,31.5,20.0,37.0,12.5,25.5,9.5,4.5,10.770329614269007,10.198039027185567,9.5,34.0,13.0,21.840329667841555,{}
406,408,19.1049731745428,74.95331880577403,6.324555320336759,13.601470508735444,20.615528128088304,23.345235059857504,17.26267650163207,56.08921464952064,42.579337712087536,32.5,21.0,38.0,12.5,25.5,9.5,4.5,9.486832980505138,8.246211251235321,8.5,35.0,13.0,22.13594362117865,{}
407,409,14.142135623730953,73.54590403278758,7.071067811865476,13.341664064126334,20.615528128088304,22.36067977499789,19.6468827043885,54.12947441089743,40.79215610874228,33.0,23.0,38.0,11.5,22.5,6.5,2.5,10.44030650891055,8.06225774829855,9.0,35.0,12.0,24.73863375370596,{}
408,410,8.246211251235321,71.58910531638176,8.06225774829855,12.16552506059644,18.24828759089466,19.4164878389476,21.37755832643195,49.8196748283246,37.65634076752546,33.0,24.0,39.0,10.5,17.5,2.5,1.5,9.486832980505138,9.219544457292889,9.0,34.0,12.0,21.587033144922906,{}
409,411,2.23606797749979,68.24954212300622,9.219544457292889,12.16552506059644,16.278820596099706,17.26267650163207,22.36067977499789,45.89117562233506,33.734255586866,32.0,26.0,39.0,10.5,12.5,1.5,0.5,8.54400374531753,9.486832980505138,8.5,33.0,12.0,19.92485884517128,{}
410,412,3.1622776601683795,67.26812023536856,9.219544457292889,12.16552506059644,17.26267650163207,17.46424919657298,22.36067977499789,46.87216658103186,34.713109915419565,32.5,27.0,40.0,11.5,12.5,1.5,1.5,9.486832980505138,9.219544457292889,9.0,34.0,12.0,20.8806130178211,{}
411,413,3.605551275463989,67.68308503607086,9.055385138137416,12.16552506059644,16.492422502470642,18.43908891458577,23.345235059857504,47.8539444560216,35.6931365951495,33.5,27.0,42.0,11.5,12.5,2.5,0.5,9.486832980505138,9.219544457292889,9.0,33.0,12.0,20.615528128088304,{}
412,414,11.04536101718726,71.58910531638176,10.198039027185567,13.341664064126334,17.46424919657298,20.39607805437113,21.213203435596427,55.731499172371095,42.42640687119285,36.5,30.0,45.0,16.5,17.5,1.5,4.5,10.44030650891055,10.198039027185567,10.0,34.0,13.0,20.615528128088304,{}
413,415,18.110770276274835,73.97972695272672,10.198039027185567,16.278820596099706,19.4164878389476,21.587033144922906,20.39607805437113,64.93843238021688,48.66210024238576,39.0,33.0,50.0,21.5,22.5,4.5,9.5,10.44030650891055,10.198039027185567,10.0,33.0,13.0,18.68154169226941,{}
414,416,22.02271554554524,76.48529270389177,9.219544457292889,15.297058540778355,20.39607805437113,23.345235059857504,19.4164878389476,65.76473218982953,50.48762224545735,39.0,34.0,49.0,22.5,23.5,5.5,11.5,10.198039027185567,9.219544457292889,9.0,32.0,12.0,18.97366596101028,{}
415,417,23.08679276123039,75.7099729229908,9.219544457292889,14.317821063276352,21.37755832643195,23.53720459187964,19.4164878389476,65.92419889539804,51.62363799656123,39.5,34.0,50.0,23.0,23.0,6.0,12.0,10.198039027185567,9.219544457292889,9.5,32.0,12.0,18.97366596101028,{}
416,418,21.095023109728988,78.64477096412705,9.055385138137416,14.317821063276352,20.39607805437113,23.345235059857504,19.4164878389476,63.788713735268246,49.49747468305833,38.5,33.0,49.0,22.0,22.0,5.0,11.0,8.246211251235321,8.246211251235321,8.5,31.0,11.0,17.72004514666935,{}
417,419,17.11724276862369,79.42921376924235,8.246211251235321,13.341664064126334,21.37755832643195,23.345235059857504,19.235384061671343,57.87054518492115,44.553338819890925,35.5,29.0,44.0,17.5,20.5,4.5,7.5,8.246211251235321,8.246211251235321,8.0,33.0,12.0,19.92485884517128,{}
418,420,14.0356688476182,79.62411694957753,8.246211251235321,12.16552506059644,20.615528128088304,22.36067977499789,20.223748416156685,54.589376255824725,42.42640687119285,35.0,27.0,43.0,15.0,19.0,4.0,5.0,8.246211251235321,9.219544457292889,9.0,31.0,10.0,19.92485884517128,{}
419,421,10.04987562112089,78.85429601486528,8.246211251235321,13.341664064126334,19.4164878389476,20.615528128088304,21.37755832643195,52.952809179494906,39.6232255123179,34.0,26.0,43.0,13.5,17.5,1.5,3.5,8.54400374531753,8.246211251235321,8.5,34.0,10.0,22.13594362117865,{}
420,422,10.04987562112089,78.85429601486528,9.219544457292889,13.341664064126334,19.6468827043885,20.8806130178211,20.223748416156685,52.773099207835045,39.45883931389772,34.0,26.0,43.0,14.5,17.5,1.5,3.5,8.54400374531753,9.219544457292889,9.0,34.0,10.0,20.8806130178211,{}
421,423,6.082762530298219,74.95331880577403,10.198039027185567,14.560219778561036,19.4164878389476,20.615528128088304,22.36067977499789,53.150729063673246,38.63935817272331,35.0,28.0,45.0,14.5,15.5,1.5,2.5,9.848857801796104,9.219544457292889,9.0,35.0,10.0,25.0,{}
422,424,5.385164807134504,72.03471385380801,10.198039027185567,14.317821063276352,17.46424919657298,18.43908891458577,24.33105012119288,54.12947441089743,39.81205847478876,36.5,29.0,46.0,13.5,15.5,0.5,2.5,9.486832980505138,10.198039027185567,9.5,36.0,12.0,22.13594362117865,{}
423,425,7.280109889280518,72.53275122315436,9.055385138137416,13.601470508735444,17.46424919657298,19.6468827043885,24.515301344262525,54.3415126767741,40.79215610874228,36.5,29.0,48.0,14.5,14.5,1.5,4.5,9.486832980505138,10.198039027185567,10.0,37.0,11.0,23.08679276123039,{}
424,426,9.219544457292889,76.15773105863909,8.06225774829855,14.317821063276352,17.46424919657298,19.92485884517128,25.495097567963924,57.0701322935211,42.7551166528639,37.5,29.0,47.0,13.0,18.0,2.0,3.0,9.486832980505138,9.486832980505138,9.0,36.0,10.0,25.0,{}
425,427,9.055385138137416,76.40026177965623,9.219544457292889,13.341664064126334,17.46424919657298,19.6468827043885,24.33105012119288,55.90169943749474,42.579337712087536,37.5,28.0,47.0,13.5,17.5,1.5,2.5,9.486832980505138,9.219544457292889,9.0,37.0,11.0,25.70992026436488,{}
426,428,10.198039027185567,76.6550715869472,9.219544457292889,14.317821063276352,17.72004514666935,19.92485884517128,24.33105012119288,58.05170109479997,43.73785545725808,38.0,28.0,48.0,14.0,19.0,1.0,3.0,9.486832980505138,10.44030650891055,10.0,37.0,9.0,27.202941017470888,{}
427,429,9.055385138137416,75.18643494673756,9.219544457292889,13.341664064126334,16.76305461424021,18.68154169226941,25.317977802344327,56.88585061331157,43.56604182158393,38.5,29.0,47.0,13.0,18.0,1.0,2.0,8.94427190999916,8.54400374531753,8.0,37.0,10.0,29.120439557122072,{}
428,430,7.280109889280518,75.43208866258443,10.198039027185567,15.297058540778355,17.72004514666935,20.615528128088304,25.317977802344327,58.05170109479997,42.7551166528639,38.5,30.0,49.0,14.5,17.5,0.5,2.5,8.54400374531753,9.486832980505138,8.5,37.0,9.0,25.96150997149434,{}
429,431,8.06225774829855,78.587530817554,9.219544457292889,15.524174696260024,18.43908891458577,20.615528128088304,25.317977802344327,58.05170109479997,42.579337712087536,38.0,28.0,48.0,13.0,19.0,1.0,2.0,10.44030650891055,9.486832980505138,9.0,38.0,10.0,28.861739379323623,{}
430,432,7.280109889280518,79.81227975693966,10.198039027185567,15.297058540778355,18.68154169226941,19.6468827043885,25.317977802344327,58.05170109479997,42.7551166528639,38.5,28.0,49.0,13.5,18.5,0.5,1.5,10.44030650891055,10.44030650891055,9.5,38.0,10.0,27.892651361962702,{}
431,433,9.219544457292889,81.74350127074322,10.198039027185567,14.317821063276352,19.4164878389476,20.615528128088304,24.33105012119288,58.05170109479997,43.73785545725808,38.5,27.0,48.0,13.5,19.5,1.5,2.5,9.486832980505138,9.486832980505138,9.5,38.0,11.0,28.861739379323623,{}
432,434,7.280109889280518,81.74350127074322,9.219544457292889,15.524174696260024,20.8806130178211,22.80350850198276,23.345235059857504,55.31726674375732,39.81205847478876,35.5,26.0,47.0,13.5,17.5,1.5,2.5,10.44030650891055,10.44030650891055,10.0,39.0,11.0,29.120439557122072,{}
433,435,6.324555320336759,82.46211251235322,9.486832980505138,16.278820596099706,19.6468827043885,21.840329667841555,22.36067977499789,54.3415126767741,38.07886552931954,34.0,26.0,46.0,14.0,17.0,2.0,3.0,9.848857801796104,9.486832980505138,9.5,39.0,10.0,29.120439557122072,{}
434,436,11.180339887498947,83.67795408588812,7.280109889280518,15.297058540778355,21.587033144922906,24.73863375370596,22.56102834535696,56.29387178015028,41.0,34.5,25.0,46.0,13.5,19.5,0.5,4.5,9.486832980505138,10.770329614269007,9.5,38.0,10.0,32.01562118716424,{}
435,437,10.04987562112089,83.67795408588812,9.219544457292889,15.524174696260024,22.80350850198276,23.769728648009423,21.587033144922906,56.29387178015028,40.79215610874228,35.0,25.0,46.0,14.5,19.5,0.5,3.5,9.486832980505138,9.486832980505138,9.0,38.0,10.0,30.083217912982647,{}
436,438,20.223748416156685,86.58521813797087,8.246211251235321,16.492422502470642,23.53720459187964,25.70992026436488,20.39607805437113,65.30696746902278,48.83646178829912,38.0,27.0,48.0,17.5,26.5,6.5,7.5,10.770329614269007,10.770329614269007,9.5,39.0,12.0,29.120439557122072,{}
437,439,24.08318915758459,84.8999411071645,8.246211251235321,16.492422502470642,23.53720459187964,25.70992026436488,20.39607805437113,69.05070600652827,52.61178575186362,40.0,28.0,50.0,19.0,29.0,9.0,9.0,10.44030650891055,10.44030650891055,10.0,37.0,10.0,27.202941017470888,{}
438,440,21.095023109728988,85.37564055396598,8.246211251235321,17.46424919657298,24.515301344262525,26.68332812825267,19.235384061671343,65.92419889539804,48.507731342539614,37.5,28.0,48.0,19.0,27.0,7.0,8.0,10.770329614269007,9.219544457292889,9.5,38.0,12.0,30.083217912982647,{}
439,441,16.1245154965971,88.07383266328314,8.246211251235321,16.492422502470642,23.53720459187964,26.68332812825267,21.213203435596427,61.98386886924694,45.5411901469428,37.0,25.0,44.0,13.5,26.5,7.5,3.5,10.770329614269007,9.486832980505138,9.0,39.0,12.0,26.248809496813376,{}
440,442,14.142135623730953,90.80198235721508,8.246211251235321,16.278820596099706,24.33105012119288,27.459060435491963,21.213203435596427,59.84145720150872,43.56604182158393,36.0,24.0,42.0,12.0,26.0,6.0,3.0,11.40175425099138,10.198039027185567,10.5,38.0,12.0,29.120439557122072,{}
441,443,14.142135623730953,90.80198235721508,8.246211251235321,16.278820596099706,24.33105012119288,27.459060435491963,21.213203435596427,59.84145720150872,43.56604182158393,36.0,24.0,42.0,12.0,26.0,6.0,3.0,11.40175425099138,10.198039027185567,10.5,38.0,12.0,29.120439557122072,{}
442,444,16.1245154965971,90.60905032059436,8.246211251235321,16.278820596099706,25.317977802344327,27.459060435491963,20.39607805437113,61.0,44.7213595499958,36.0,24.0,41.0,12.5,27.5,7.5,2.5,10.44030650891055,10.198039027185567,9.5,38.0,13.0,25.29822128134704,{}
