,video_id,frame_seq,time_seconds,m1,m3,m4,m5,m6,m7,m8,m9,m10,m11,m12,m13,m14,m15,m16,m17,e1,e2,e3,b1,b2,b3,label_measures
0,181,0,0.0,3.902782651553813,132.14248039267645,15.70839715850616,21.017127785042675,35.9818781631519,36.4445513552233,47.15750220367204,87.42581595272753,66.4161420014594,64.57896609608088,92.50500548898071,64.57896609608088,31.41679431701232,8.7268873102812,8.7268873102812,20.94452954467488,21.2334332548454,21.2334332548454,20.94452954467488,47.12519147551848,64.57896609608088,66.69077918407223,"{'others': ['m1', 'm3', 'm12', 'e1', 'e2']}"
1,181,1,0.0333666666666666,3.86759663465028,137.06797395021422,15.566776172328789,22.551769925310573,31.89301888389199,35.65747911603343,48.55335897328933,90.20707970124244,67.65530977593187,65.72638828316633,86.4820898462716,62.26710468931549,25.944626953881425,15.5667761723289,3.459283593850841,15.5667761723289,15.662572622179864,17.38268492819264,18.16123886771703,43.24104492313586,63.99674648624102,54.31185409495828,"{'others': ['m1', 'm3', 'm12', 'e1', 'e2']}"
2,181,2,0.0667333333333332,18.188144428396487,154.51181085256093,18.1881444283964,25.33703217803111,41.97771987880144,43.77293228490443,47.19349746163348,108.58728076299042,83.25024858495931,74.20130852137675,77.8208845468098,63.34258044507772,23.527244165314528,38.00554826704672,12.668516089015611,10.85872807629903,18.188144428396456,18.188144428396456,18.097880127165013,48.86427634334569,66.96215647051076,58.36390971320583,"{'others': ['m1', 'm3', 'm12', 'e1', 'e2']}"
3,181,3,0.1000999999999998,12.61886162812668,149.41499511204094,19.71129198827757,26.82806781954178,38.14988876443605,42.003942793398295,48.21660257972572,107.13406090674162,80.32576983361606,74.05992581325597,83.87509670416932,64.24475492234251,25.87635962149909,33.014665723981466,8.030594365292814,11.599747416534116,14.387715921116513,16.16002774797386,16.06118873058557,44.61441314051564,66.0293314479631,57.550863684466265,"{'others': ['m1', 'm3', 'm12', 'e1', 'e2']}"
4,181,4,0.1334666666666664,21.386840967490457,144.449161409386,17.911257637664303,25.01488479303089,41.60673579782125,43.69207092665398,46.3724165473152,110.627958597892,85.62159153153628,74.85394338621677,94.45854760641636,71.28946989163501,36.535853319462944,27.624669583008423,4.4555918682270885,24.06019608842689,12.602316896892372,12.602316896892315,12.47565723103611,32.080261451235685,55.24933916601708,59.48507170089695,"{'others': ['m1', 'm3', 'm12', 'e1', 'e2']}"
5,181,5,0.166833333333333,19.250713733442744,128.81590317488735,17.218361809346675,27.603133831718367,36.80865338649184,40.196670378487234,37.919508428752216,101.82153632416372,74.21892919954335,64.56885678505012,79.2044643229948,60.26426633271342,31.853969347291358,31.853969347291468,6.026426633271399,19.80111608074867,19.018302230878337,15.591889763143117,16.357443718879324,43.04590452336674,58.54243015177872,48.33424489089326,"{'others': ['m1', 'm3', 'm12', 'e1', 'e2']}"
6,181,6,0.2001999999999996,16.071659036941604,146.83869300694514,19.603503716317327,26.857867390260974,41.16659263307578,44.68877118507403,39.08630830343221,101.55308512263396,74.7322661487842,66.55566877515241,81.64162036418702,62.11862419014233,32.83412992907529,29.28449426106704,2.6622267510060738,18.635587257042744,17.836698481888117,19.84306662256009,18.63558725704263,42.59562801609764,58.56898852213419,42.74327361657454,"{'others': ['m1', 'm3', 'm12', 'e1', 'e2']}"
7,181,7,0.2335666666666662,10.755413087848297,136.42379341167933,17.925688479747123,26.948218770242224,37.68660185039759,39.47723383475286,44.850058247237385,100.44785540095036,73.51718011250713,68.11761622303891,82.45816700683667,75.28789161493773,34.05880811151951,21.51082617569648,5.377706543924091,17.925688479747123,21.510826175696597,23.30339502367121,22.407110599683904,41.22908350341834,48.39935889531717,48.43254323853392,"{'others': ['m1', 'm3', 'm12', 'e1', 'e2']}"
8,181,8,0.2669333333333328,14.460140430335676,138.11574139114245,18.025051707070983,26.90339520599059,35.87119360798738,37.707432909204925,43.08278195251582,102.24863355200128,75.350855452525,68.15526785517602,78.91662593757223,77.12306625717292,34.97441376778772,24.21305568539151,2.690339520599082,17.038816963794034,14.460140430335732,14.460140430335676,14.348477443194952,39.45831296878612,44.838992009984224,39.49905465539445,"{'others': ['m1', 'm3', 'm12', 'e1', 'e2']}"
9,181,9,0.3002999999999994,12.798312781656874,135.75867216361385,16.289592760180994,27.209586205199912,36.19909502262453,38.009049773755805,43.438914027149394,99.54751131221724,72.42081094567439,66.06334841628961,72.39819004524884,70.58823529411768,28.05429864253392,28.05429864253392,0.9049773755655224,13.5746606334842,18.09954751131221,19.909502262443425,19.909502262443425,45.24886877828055,43.43891402714934,45.24886877828044,"{'others': ['m1', 'm3', 'm12', 'e1', 'e2']}"
10,181,10,0.333666666666666,7.132629516214934,132.00183069501827,16.048416411483572,21.47205822874692,35.66314758107467,37.44630496012837,46.3620918553969,90.95850658684289,69.5431377830954,65.97682302498788,73.10945254120293,76.67576729931034,28.53051806485973,16.048416411483572,5.349472137161229,14.265259032429867,10.6989442743224,11.277677488691968,10.698944274322344,46.36209185539696,39.22946233918202,39.22946233918197,"{'others': ['m1', 'm3', 'm12', 'e1', 'e2']}"
11,181,11,0.3670333333333326,7.331739871368086,133.8544606289625,14.777594146611571,22.07145977204509,38.53525092147944,40.366205410267554,51.35489965062057,95.33024107330384,73.31739871368029,69.65152877799619,76.98326864936428,80.64913858504826,27.494024517630123,16.49641471057805,7.331739871367972,12.830544774894063,14.663479742736058,16.898825423346075,16.496414710578108,51.3221790995762,43.990439228208174,36.65869935684009,"{'others': ['m1', 'm3', 'm12', 'e1', 'e2']}"
12,181,12,0.4003999999999992,10.489955349946058,131.1244418743263,15.831764295937887,24.53892325302415,33.264168699751366,36.75644696050975,43.70814729144206,94.4743287694952,69.95488632632072,64.68805799133429,76.92633923293806,76.92633923293806,33.218191941496,17.483258916576915,5.244977674973029,19.23158480823452,12.238281241603772,14.095453966568096,13.11244418743263,47.20479907475749,40.211495508126745,40.249484647924845,"{'others': ['m1', 'm3', 'm12', 'e1', 'e2']}"
13,181,13,0.4337666666666658,10.906274569581228,130.88791722925893,16.460086108305322,25.51280970330682,32.7692768207615,32.718823708743685,45.44281070658826,98.22377073724068,72.73121498678405,67.25535984575072,76.34392198706837,74.5262095588048,29.99225506634832,22.72140535329413,2.72656864239525,15.450555640240054,16.460086108305266,16.460086108305266,17.26826806850363,52.7136604196424,45.44281070658826,45.47915042507584,"{'others': ['m1', 'm3', 'm12', 'e1', 'e2']}"
14,181,14,0.4671333333333324,10.51620580059739,129.80641095024805,15.871382286054134,24.60033035843118,36.84842764725893,40.35020644084433,43.852564178089615,94.79179809346464,70.19561901544073,64.84993577035084,75.36614157094823,70.10803867064953,28.91956595164288,21.90876208457803,2.6290514501492908,14.89795821751295,15.7743087008962,17.614426717019064,16.65065918427922,47.32292610268843,40.31212223562346,33.34741018074703,"{'others': ['m1', 'm3', 'm12', 'e1', 'e2']}"
15,181,15,0.5004999999999991,6.954155888148421,132.14039913620235,17.38538972037111,26.1359716319855,33.03224046870514,36.509318412779294,41.72493532889041,92.15896536957231,66.06448093740994,62.58740299333567,71.28009785352117,69.5415588814841,28.68589303861222,21.7317371504638,4.346347430092692,13.039042290278305,14.016549298025089,15.743139969457472,15.646850748333918,48.67909121703889,41.72493532889047,50.447596093765554,"{'others': ['m1', 'm3', 'm12', 'e1', 'e2']}"
16,181,16,0.5338666666666656,8.981919414558856,133.88553675942694,17.614993217059236,26.481141373507985,36.991485755824215,38.79299849560031,42.312665709379786,95.2676418915859,68.78874753231715,64.29472524226605,75.74447083335451,73.98297151164854,32.58773745155952,20.25724219961808,6.165247625970778,16.734243556206252,14.091994573647357,15.853493895353267,16.734243556206195,49.32198100776566,44.03748304264792,63.41397558141307,"{'others': ['m1', 'm3', 'm12', 'e1', 'e2']}"
17,181,17,0.5672333333333321,7.105429039799446,131.49843812787813,19.539929859448307,24.93236225571848,35.527145198997005,39.12021064313985,40.85621697884653,92.38765629677768,67.50157587809429,63.94886135819456,74.60700491789362,71.05429039799401,31.97443067909728,19.539929859448307,7.105429039799446,14.21085807959878,16.085599131772373,17.763572599498445,17.763572599498445,46.18528875869606,42.63257423879634,56.954346438141776,"{'others': ['m1', 'm3', 'm12', 'e1', 'e2']}"
18,181,18,0.6005999999999987,3.4777349758716127,132.4396182251433,19.206419165300545,26.083012319037152,36.55759540978149,38.2945840582072,43.50645064833167,92.15997686059792,66.07696454156076,64.338097053625,79.9879044450472,71.29356700536812,32.16904852681239,16.519241135390303,7.8249036957111,14.780373647454326,17.38867487935812,20.86640985522968,19.9969761112618,45.21055468633108,41.73281971045947,64.33809705362489,"{'others': ['m1', 'm3', 'm12', 'e1', 'e2']}"
19,181,19,0.6339666666666652,7.362615249642391,127.09844526056048,19.64266140621476,26.844904598150272,35.89205527277279,37.669308754607485,43.00526638220517,96.42761053959964,69.66505295057758,66.07077018454049,82.1420386078072,73.21355615043683,34.82108158374433,18.74981316047763,8.03563421163335,18.749813160477743,16.170169470118445,19.72366241545568,18.749813160477743,49.99950176127391,55.3565912356961,59.03610905125302,"{'others': ['m1', 'm3', 'm12', 'e1', 'e2']}"
20,181,20,0.6673333333333318,7.496245927112544,125.77829761290602,16.362960222224842,27.271600370374813,34.59183896095431,36.543492228157504,47.270773975316274,98.19459421154116,70.92946619317243,67.26994758025774,81.81480111112432,72.72426765433272,29.998760407412306,20.908226950620588,6.363373419754225,15.453906876545716,21.89290367832628,23.635386987658137,22.72633364197901,50.90698735803289,56.36130743210782,54.66427347738497,"{'others': ['m1', 'm3', 'm12', 'e1', 'e2']}"
21,181,21,0.7006999999999983,10.53203398820948,112.15770903379403,15.58310149734507,22.508924385054,29.889560004529724,31.59610196462834,45.05113369056687,93.49860898407076,70.98968459901675,65.79531743323503,88.30424181828903,70.98968459901675,34.62911443854466,13.851645775417865,5.194367165781728,22.508924385054115,20.84948783457793,22.57542061377984,21.643196524090456,43.28639304818091,53.67512737974431,57.556255118614,"{'others': ['m1', 'm3', 'm12', 'e1', 'e2']}"
22,181,22,0.7340666666666649,14.255534346233388,121.28487260176335,16.011563743708454,22.9863584478112,33.781058578912095,34.01164868637633,44.204535476559954,97.249978048432,74.26361960062081,67.19089392437127,90.17725237218237,74.26361960062081,38.01590050984157,15.029542062030488,4.420453547655939,23.870449157342364,19.76886924787781,23.054265119972456,22.102267738280037,40.66817263843524,53.045442571872,48.55260044694842,"{'others': ['m1', 'm3', 'm12', 'e1', 'e2']}"
23,181,23,0.7674333333333314,9.019164404453166,141.08357691318528,17.77625683321419,24.82634250088125,34.343954854399975,34.34395485439986,47.790443357845696,99.11615667824108,74.31080814048507,69.86774477450138,84.90257592850787,65.44573561155823,27.416456810247382,23.87884947989289,2.653205497765839,15.03483115400661,21.51842531598861,23.264979867354157,22.99444764730424,40.68248429907669,58.37052095084914,53.796063289971634,"{'others': ['m1', 'm3', 'm12', 'e1', 'e2']}"
24,181,24,0.800799999999998,10.800261544635568,136.90185731830115,17.844077367564353,26.69240036179592,37.95696773647499,39.70255105026771,40.99180245918022,96.2899415168926,69.60979334210005,63.91987418055908,90.55315508912544,67.47097830170128,38.17436930227848,16.867744575425263,6.214432211998883,23.969952817709785,23.688819120506693,23.15036652767511,22.194400757138567,33.73548915085064,55.04211387770368,49.10934347601937,"{'others': ['m1', 'm3', 'm12', 'e1', 'e2']}"
25,181,25,0.8341666666666645,7.208532319306796,119.6677669166571,15.831764295937887,24.53892325302404,31.903953673576726,32.23753656794847,45.49008241000789,92.92479578250251,68.38614214783708,64.6880579913344,90.91294636619956,66.436383882992,33.218191941496,13.986607133261488,6.993303566630743,20.97991069989223,23.32557672111094,24.53892325302409,23.602399537378744,34.96651783315366,57.69475442470355,45.89147326846887,"{'others': ['m1', 'm3', 'm12', 'e1', 'e2']}"
26,181,26,0.867533333333331,19.28038881378374,123.45472492066762,17.24490400809873,25.924775297034028,30.116930096841678,32.216139320648104,43.42155879670548,105.70155559081284,79.79379394452467,69.84186123280006,91.39799124292348,65.53063523077537,35.352053216602485,26.72960121255312,4.311226002024682,21.556130010123525,20.765614261571532,24.20437619666381,23.28062041093329,32.76531761538769,58.63267362753584,43.626539757247166,"{'others': ['m1', 'm3', 'm12', 'e1', 'e2']}"
27,181,27,0.9008999999999976,6.318179605890472,124.12016427996188,17.61087676750094,24.5953724944993,31.051680951822718,32.73655724435649,43.8437262867649,91.54235041335576,66.95711288529526,63.96069227592,94.6267776136898,66.58921387630028,36.79930240532383,10.514086401521126,10.514086401521126,22.78052053662907,23.048535880558813,23.04853588055883,21.90434666983566,31.542259204563265,59.57982294195284,47.18340672386911,"{'others': ['m1', 'm3', 'm12', 'e1', 'e2']}"
28,181,28,0.934266666666664,7.905616947507307,130.77763937735693,19.525433512636056,24.81154925249645,31.324604312508853,33.02428953280455,42.57305016440302,94.28919003985504,69.50651510104191,65.40673852519353,91.92298387324502,61.87123914545339,34.471118952466895,16.79362205376583,4.419374224675266,20.3291214335062,23.2511169865922,24.999755862951183,23.864620813246237,31.81949441766176,58.33573976571319,45.89345120066856,"{'others': ['m1', 'm3', 'm12', 'e1', 'e2']}"
29,181,29,0.9676333333333308,14.44343982381234,136.4054060119242,15.860727592267205,22.83708354541409,36.10859955953091,37.81021425525915,42.61642681334008,95.61462190922413,72.85162301103695,64.80640104884526,89.32774198624634,59.551827990830816,32.40320052442269,20.142530055722204,0.8757621763357974,21.89405440839369,21.30821340667003,23.03770599548112,21.894054408393743,31.527438348086942,59.55182799083087,42.10950140437134,"{'others': ['m1', 'm3', 'm12', 'e1', 'e2']}"
