,video_id,frame_seq,time_seconds,m1,m3,m4,m5,m6,m7,m8,m9,m10,m11,m12,m13,m14,m15,m16,m17,e1,e2,e3,b1,b2,b3,label_measures
0,208,0,0.0,2.5366804365629605,148.52041913643546,10.459001378386867,12.934583045783512,36.319736585421744,36.319736585421765,58.83786390442557,84.66586601391727,71.74815753587596,69.7587120054805,63.41701091407327,83.71045440657673,15.22008261937765,10.146721746251728,7.610041309688768,2.5366804365629605,22.970618325455952,25.4933228779881,24.09846414734784,68.49037178719914,32.97684567531809,63.871981353414114,"{'others': ['m1', 'm3', 'm12', 'e1', 'e2']}"
1,208,1,0.0333666666666666,2.5317977011156927,148.23453924999254,10.438869344396304,15.40032419064208,38.31305140884602,38.72905764737597,58.72460970039529,87.00695102612148,71.6100529220585,69.62443678068331,65.82674022900966,86.08112183793565,17.722583907810304,10.127190804462998,10.127190804462998,5.063595402231499,22.926403275454085,25.444251994053136,24.052078160599702,65.82674022900966,30.381572413389108,63.74903721628875,"{'others': ['m1', 'm3', 'm12', 'e1', 'e2']}"
2,208,2,0.0667333333333332,2.5342864042322617,146.66053586765972,10.137145616929388,15.415462380708773,35.84022203803123,39.34270486965968,58.78233473866273,84.58596126217465,69.17255703033045,68.42573291427345,63.357160105808816,88.70002414813223,17.7400048296264,7.602859212697126,12.67143202116165,7.602859212697012,20.274291233858836,25.342864042323527,24.0757208402074,65.89144651004119,32.9457232550206,58.50854501211603,"{'others': ['m1', 'm3', 'm12', 'e1', 'e2']}"
3,208,3,0.1000999999999998,0.0,146.67967025415984,12.774272972443612,15.23878635518921,38.32281891733086,40.78236951430934,55.625378352189365,83.61652479108604,68.37977299639587,67.64150820300654,65.13626715845078,85.1781955148972,20.04192835644642,7.515723133667393,12.526205222779026,5.010482089111633,22.54716940100224,25.177360898712763,23.79978992328012,65.13626715845078,32.56813357922539,65.32869377312235,"{'others': ['m1', 'm3', 'm12', 'e1', 'e2']}"
4,208,4,0.1334666666666664,5.631568953682305,148.22905693594262,10.384100066557112,20.304910623812948,38.52585915443944,38.52585915443944,58.14441540351443,94.03202541563223,73.72840094594204,70.51839760230257,65.48136920213813,90.66651120296046,20.148113600658007,15.111085200493337,10.074056800329004,7.555542600246781,22.66662780074006,25.18514200082234,23.925884900781227,70.51839760230257,35.259198801151285,65.52978426916057,"{'others': ['m1', 'm3', 'm12', 'e1', 'e2']}"
5,208,5,0.166833333333333,17.605606517815062,143.677282704277,12.449043755649086,25.39116681425013,37.677643295984005,40.53114997824131,55.67381618500131,110.9292928858164,85.56397218407,75.93916690945946,72.20445378276474,94.61273254293314,28.632800637992887,26.14299188686323,1.244904375564829,13.693948131213917,22.546177161785483,24.89808751129817,23.653183135733286,72.2044537827648,39.83694001807714,64.78289077253497,"{'others': ['m1', 'm3', 'm12', 'e1', 'e2']}"
6,208,6,0.2001999999999996,5.077957928975479,146.93209688795162,12.94630328452454,20.93695690360857,38.421723643057305,38.838909853573696,56.77329558036593,95.608657088329,74.71676305694925,71.09141100565654,66.01345307668106,91.40324272155834,22.8508106803896,15.233873786926438,7.616936893463162,7.616936893463162,22.99143238106576,25.389789644877283,24.12030016263344,71.09141100565654,38.08468446731598,55.91521151103616,"{'others': ['m1', 'm3', 'm12', 'e1', 'e2']}"
7,208,7,0.2335666666666662,3.6100553730334295,147.7258302024965,13.016239754736198,15.527435275433971,36.54902500926173,39.628477455767,54.15083059550072,85.6199809358572,70.0945962484302,67.64640782036719,63.81736586827088,89.34431221557924,22.9742517125776,7.658083904192495,12.763473173654234,7.658083904192495,23.11563305754476,25.65426357774752,24.25059902994292,66.3700605030017,33.18503025150085,53.66733135714083,"{'others': ['m1', 'm3', 'm12', 'e1', 'e2']}"
8,208,8,0.2669333333333328,0.0,147.1654041982615,13.003800103095069,18.5661367791207,36.06605234430239,39.011400309285335,57.025435809425495,88.52728276358832,70.02760667419957,68.85688549487008,66.30663047654161,89.25892564149831,21.67716765579246,8.925892564149763,11.476147582478347,8.925892564149876,20.402040146628167,23.093541391432456,21.6771676557924,63.756375458213085,28.05280520161375,56.16354083724833,"{'others': ['m1', 'm3', 'm12', 'e1', 'e2']}"
9,208,9,0.3002999999999994,3.610055373033349,142.69996822642864,12.763473173654234,15.527435275433971,36.54902500926171,39.628477455767,59.59325628382845,90.64762060644227,75.12038612671657,72.75179708982876,66.3700605030017,91.89700685031004,20.421557077846728,10.21077853892325,10.210778538923364,5.105389269461739,23.11563305754476,25.65426357774752,24.25059902994292,68.92275513773257,35.73772488623172,53.66733135714083,"{'others': ['m1', 'm3', 'm12', 'e1', 'e2']}"
10,208,10,0.333666666666666,0.0,144.77946916784344,10.49366472266811,18.52851691395758,33.95570287153084,37.05703382791488,61.55745503539264,90.37748813014304,71.98594611589732,71.26245090815257,68.7173633757186,94.16823870005884,20.3607002594722,7.63526259730213,15.270525194604147,7.635262597302017,20.3607002594722,25.577813145827356,24.178331558123205,68.71736337571866,30.54105038920829,51.155626291654855,"{'others': ['m1', 'm3', 'm12', 'e1', 'e2']}"
11,208,11,0.3670333333333326,2.697657932157199,146.02280600805315,11.122728596069122,19.63924618979305,38.62458356255394,41.87891300955874,64.79996720695732,95.37661085749892,75.96673710849815,75.53442210039935,70.13910623608518,99.81334348981346,20.232434491178424,9.441802762549855,14.83711862686414,6.74414483039277,19.075322171499785,21.74921356579277,21.581263457256966,70.13910623608513,26.976579321571197,62.28026962040074,"{'others': ['m1', 'm3', 'm12', 'e1', 'e2']}"
12,208,12,0.4003999999999992,5.884771488737205,147.61278034321,13.419343667564537,21.70196494456908,40.258031002693855,40.25803100269361,60.58743071226413,100.86848527886976,79.34627495536405,76.32074466904095,68.4254952205194,97.37474319843152,22.36987343747751,17.106373805129806,9.211124356608366,6.5793745404345145,16.00830917094142,18.609281414029574,18.42224871321679,65.7937454043456,23.685748345564438,55.827844242088936,"{'others': ['m1', 'm3', 'm12', 'e1', 'e2']}"
13,208,13,0.4337666666666658,10.511766624552807,140.49913344870666,12.999837503046772,20.554547860851915,36.05506206918074,38.99951250914042,59.5181605874544,103.52889473088608,83.00498632194424,76.48433665565892,66.28642510157101,94.33068187531262,21.670562052436708,21.670562052436598,3.8242168327830086,6.373694721304901,18.027531034590428,20.55454786085197,20.395823108175705,63.73694721304906,25.49477888521966,53.781294976113855,"{'others': ['m1', 'm3', 'm12', 'e1', 'e2']}"
14,208,14,0.4671333333333324,15.38461538461534,137.44137927235226,12.8965176043832,25.7930352087664,36.82592902367498,41.71288550181943,56.55497093029298,110.62244837048186,84.83245639543937,75.87645567939575,63.2303797328297,93.580962004588,22.762936703818696,30.350582271758185,2.529215189313277,5.05843037862644,15.17529113587915,17.88425211443372,17.704506325192256,65.75959492214292,25.29215189313192,53.35385286803943,"{'others': ['m1', 'm3', 'm12', 'e1', 'e2']}"
15,208,15,0.5004999999999991,13.003800103095134,136.6946205667901,15.512595668193685,28.51271790471273,34.68721842154995,39.59060442454572,57.02543580942555,114.05087161885103,85.53815371413832,77.78277805902002,61.20612043988461,94.35943567815542,21.67716765579246,34.42844274743504,1.2751275091643492,1.2751275091643492,15.301530109971168,18.566136779120814,17.851785128299696,68.85688549487014,28.05280520161375,54.0990785164537,"{'others': ['m1', 'm3', 'm12', 'e1', 'e2']}"
16,208,16,0.5338666666666656,16.14465843328204,131.25915103640375,15.527435275434009,26.032479509472285,34.720400792098864,37.16779490923458,52.06495901894457,109.64707502778516,83.61779799032624,74.02814440719419,58.7119765988092,89.3443122155793,22.974251712577484,33.18503025150096,0.0,2.552694634730756,15.31616780838499,20.580482097898805,19.145209760481293,71.47544977246338,28.07964098203917,59.593256283828325,"{'others': ['m1', 'm3', 'm12', 'e1', 'e2']}"
17,208,17,0.5672333333333321,10.570979821921094,124.36602303933056,16.215142842451186,26.14613220426387,34.20588129890617,37.33006220495477,51.85043892703484,104.58452881705529,78.43839661279141,71.7874975539712,56.404462363834455,87.17053274410785,20.510713586848965,30.76607038027339,0.0,2.5638391983561637,15.595225009470376,20.670332442338125,20.510713586848965,66.659819157259,25.638391983561178,55.34568175316591,"{'others': ['m1', 'm3', 'm12', 'e1', 'e2']}"
18,208,18,0.6005999999999987,7.740485788780802,122.6594978687288,13.894597219955712,26.312592054454075,31.91484050073568,32.63675371828317,50.09768272846977,97.67199491323176,71.36375285070847,65.79412920463693,49.02307666227847,79.98501981740168,15.480971577561604,30.96194315512332,2.5801619295936007,0.0,18.78386237957948,18.78386237957948,18.061133507155205,69.66437209902728,25.801619295936007,52.625184108908165,"{'others': ['m1', 'm3', 'm12', 'e1', 'e2']}"
19,208,19,0.6339666666666652,5.682253869781108,115.89569345280836,12.957532442997914,23.428532896682245,29.74376317337137,34.5638009267467,49.3408135488709,91.23512881931852,67.80717135663085,63.52952959120921,50.8236236729673,81.3177978767477,17.788268285538607,22.870630652835302,7.623543550945101,2.541181183648405,15.457401686595173,20.95511686802869,20.329449469186955,71.15307314215426,25.41181183648365,49.92628864573842,"{'others': ['m1', 'm3', 'm12', 'e1', 'e2']}"
20,208,20,0.6673333333333318,2.5572813161463728,119.09904569801036,13.039627332776105,28.591274302466168,31.63182294266917,34.1183882374906,49.65342157572236,93.78635293436972,65.19813666388087,62.65339224558409,48.58834500677949,79.27572080053494,15.343687896877668,28.130094477609305,5.114562632292518,2.557281316146259,18.617288999348904,21.087881961779427,19.17960987109717,71.6038768520961,28.13009447760919,52.71970490444836,"{'others': ['m1', 'm3', 'm12', 'e1', 'e2']}"
21,208,21,0.7006999999999983,5.702543580942535,118.14040889197078,13.003800103095022,29.077380996339357,31.544912438489835,34.02464573239153,47.02437903782825,94.63473731547003,65.56685317502271,61.2061204398845,48.45484534824192,76.50765054985567,16.576657619135403,29.327932710777983,6.375637545821405,1.2751275091643492,18.5661367791207,21.02994162565997,20.402040146628224,71.40714051319861,25.502550183285223,48.38768683315551,"{'others': ['m1', 'm3', 'm12', 'e1', 'e2']}"
22,208,22,0.7340666666666649,5.80637759867602,118.42733071575022,10.706431281364804,29.031887993380607,32.119293844094415,35.318816093990065,51.01688355026299,96.3578815322832,67.41401936037767,62.32058406562459,49.3371290519529,80.49742108476511,15.580146016406047,28.56360103007796,5.193382005468607,2.5966910027342465,15.795054734195078,18.90419584841216,18.17683701914052,72.70734807656208,28.56360103007796,50.41861927609635,"{'others': ['m1', 'm3', 'm12', 'e1', 'e2']}"
23,208,23,0.7674333333333314,5.636822753310993,112.5389933393955,12.853933557929553,28.18411376655474,31.18136278321823,33.63251758016174,48.94632074752094,95.42726391128028,67.26503516032342,63.02159426760403,50.41727541408324,80.66764066253319,17.646046394929158,27.72950147774577,5.041727541408363,2.5208637707041817,15.333815688425569,18.35216526663232,17.646046394929158,73.10504935042064,30.250365248449896,46.48243120957192,"{'others': ['m1', 'm3', 'm12', 'e1', 'e2']}"
24,208,24,0.800799999999998,4.98396419408391,113.65186987336892,10.274705403252067,25.413330680681216,33.247187992550586,36.28380701716981,48.38554008208976,88.9466573823846,63.53332670170337,59.807570329006296,47.34765984379664,77.25144500829975,14.951892582251505,24.919820970419323,7.475946291125751,2.4919820970418414,15.15813532606058,18.14190350858486,17.443874679293458,69.775498717174,27.411803067461165,48.38554008208979,"{'others': ['m1', 'm3', 'm12', 'e1', 'e2']}"
25,208,25,0.8341666666666645,2.550255018328585,121.23773953778648,13.003800103095022,26.007600206190087,34.687218421549986,37.132273558241465,49.51699554959084,91.02660072166542,65.01900051547533,62.48124794904885,51.0051003665705,81.60816058651272,17.851785128299753,22.95229516495658,7.650765054985641,2.550255018328585,15.51259566819376,18.56613677912076,17.85178512829964,71.40714051319861,25.502550183285223,50.10456121137856,"{'others': ['m1', 'm3', 'm12', 'e1', 'e2']}"
26,208,26,0.867533333333331,2.5801619295936007,127.65936200294294,11.538834935056634,26.312592054454075,36.94229682219902,40.05488453965055,55.15756214152646,95.15167046761138,68.84730739137166,65.79412920463693,54.18340052146567,85.14534367658888,15.480971577561604,23.22145736634252,10.320647718374405,2.5801619295936007,16.318376859141566,18.78386237957948,18.061133507155205,69.66437209902733,25.801619295936064,60.23448673885824,"{'others': ['m1', 'm3', 'm12', 'e1', 'e2']}"
27,208,27,0.9008999999999976,5.750427479306799,132.85852161139937,13.84886327211192,23.709619889636343,37.444070914607,37.444070914607,52.4519687657634,95.42937922903435,71.73067656104855,66.86340306574675,51.433386973651295,84.86508850652467,16.715850766436688,24.430858812484416,6.429173371706384,1.2858346743412312,15.642853954482764,18.72203545730349,16.715850766436688,69.43507241442933,23.14502413814313,53.01632179390794,"{'others': ['m1', 'm3', 'm12', 'e1', 'e2']}"
28,208,28,0.934266666666664,10.564688281721644,129.26356225509704,13.798479277268266,21.1293765634434,34.85122845386579,36.68674298983613,55.312741610673456,100.682936759991,79.55559783769,71.74477172019863,53.808578790149,84.55633809880567,15.373879654328334,28.18544603293526,0.0,0.0,15.585943184443703,16.205492060333178,15.373879654328276,69.18245844447728,23.060819481492445,54.776001502324846,"{'others': ['m1', 'm3', 'm12', 'e1', 'e2']}"
29,208,29,0.9676333333333308,10.726112445754474,134.3978037292202,13.264917669359736,26.529835338719423,32.90621084933459,37.877893209768914,56.816839814653385,107.26112445754424,80.77117519620957,72.84100281474912,54.63075211106184,88.44978913219529,16.909518510566727,32.518304828013015,1.3007321931205524,1.3007321931205524,13.264917669359791,16.453105424667402,15.608786317446288,70.23953842850807,26.014643862410367,53.63056222877229,"{'others': ['m1', 'm3', 'm12', 'e1', 'e2']}"
30,208,30,1.0009999999999972,10.683045928679284,134.53354271601535,10.683045928679228,24.58056660463617,35.24167153021433,37.72580931703152,55.93241781589939,101.81090146334228,77.29753385446637,69.95751898330991,51.82038443208137,88.09465353453845,15.5461153296244,28.50121143764477,2.5910192216040286,0.0,13.953065526791349,16.387044403090908,15.546115329624456,69.95751898330991,23.3191729944366,50.30849320675502,"{'others': ['m1', 'm3', 'm12', 'e1', 'e2']}"
31,208,31,1.0343666666666638,3.614031611620885,129.5518177000531,13.030576286847303,24.24366106925308,32.32488142567064,37.20873279108499,55.165798336672815,95.48159348208188,71.27984516348646,67.72091588999365,53.66563145999498,86.88721283999189,16.610790689998453,21.721803209997915,6.388765649999414,1.277753129999951,13.030576286847246,18.604366395542566,16.610790689998453,68.99866901999354,22.999556339997863,52.122305147389056,"{'others': ['m1', 'm3', 'm12', 'e1', 'e2']}"
32,208,32,1.0677333333333303,5.700805865867835,130.64675000040313,10.511766624552696,23.505024736113334,34.676648313404705,37.12095837746145,55.03566368177172,92.80239594365374,69.35329662680924,65.01168615731007,48.440079881917256,86.68224820974666,14.02212838687069,21.670562052436708,8.923172609826793,1.2747389442608892,12.999837503046814,18.56047918873073,16.571606275392753,68.83590299009296,22.945300996697654,51.99935001218723,"{'others': ['m1', 'm3', 'm12', 'e1', 'e2']}"
33,208,33,1.1010999999999969,3.628201865978092,133.92439644493925,10.5779352726532,23.65298233124531,34.89492817268099,38.13928801409026,55.38209788195914,92.71457950898284,69.07890548390363,65.4209166451439,48.74499671598954,87.22788886019174,14.11039378620751,21.80697221504795,8.979341500313808,1.2827630714733689,13.081667865518224,16.225812016837388,15.393156857680935,69.26920585956407,20.524209143574524,49.81350715502887,"{'others': ['m1', 'm3', 'm12', 'e1', 'e2']}"
34,208,34,1.1344666666666634,3.646549020510492,132.1339503819844,10.631425960395964,22.030709729897264,32.615725972586944,38.33215143150664,55.66215504131831,91.3822565307032,69.42822489904557,65.75173827846947,48.99149126631062,87.6689843712926,14.181747471826723,19.33874655249099,9.02474839116246,1.289249770166066,13.147819471943622,16.307862986293525,15.47099724199279,69.61948758896767,23.206495862989243,50.65947802222528,"{'others': ['m1', 'm3', 'm12', 'e1', 'e2']}"
35,208,35,1.16783333333333,5.714518964717982,130.9610164110442,13.762384117191026,23.56156529112782,37.99188246608752,39.67374498720147,53.36271539414254,96.20100327578632,72.73395200108273,66.44587489187074,48.55660088252091,86.89075947398476,16.611468722967743,24.2783004412604,6.389026431910679,1.2778052863820903,13.762384117190887,16.163100444685004,15.33366343658554,69.00148546463498,20.44488458211407,57.65720257182847,"{'others': ['m1', 'm3', 'm12', 'e1', 'e2']}"
36,208,36,1.2011999999999965,8.03138371453422,124.55119995811305,16.062767429068657,24.094151143602875,34.544287528426445,39.42746881704552,53.03146445777055,101.20818222836417,77.11801389378485,69.84302957695786,50.79493060142386,86.35138202242058,17.778225710498305,27.93721183078321,2.5397465300710564,1.1368683772161605e-13,12.950217116412617,17.03713766057515,15.238479180427134,68.57315631192222,17.77822571049836,55.46890148951149,"{'others': ['m1', 'm3', 'm12', 'e1', 'e2']}"
37,208,37,1.234566666666663,7.218494012681196,129.1283464602421,13.01332514717584,24.211564961295323,34.712626170199364,34.712626170199364,53.28989342929553,96.84625984518148,72.63469488388616,66.35519886217719,48.49033763005252,89.32430616062311,17.864861232124554,22.969107298446037,7.656369099481935,1.1368683772161605e-13,15.523958358820655,17.12016176727066,15.312738198963984,71.4594449284985,20.416984265285294,50.14126187967578,"{'others': ['m1', 'm3', 'm12', 'e1', 'e2']}"
