,video_id,frame_seq,time_seconds,m1,m3,m4,m5,m6,m7,m8,m9,m10,m11,m12,m13,m14,m15,m16,m17,e1,e2,e3,b1,b2,b3,label_measures
0,142,0,0.0,13.757440414656989,132.48915294907474,13.757440414657102,21.75242324218388,36.49376078016579,38.01175145532861,47.31693243051144,96.48167294403456,74.8300632952024,67.60685372440844,77.48201213359175,86.5975429728378,34.942868217110004,13.673296258869186,9.115530839246048,21.269571958240817,10.634785979120409,12.52809882792896,11.394413549057615,66.84722615447129,54.69318503547652,51.74396553067951,"{'others': ['m1', 'm3', 'm12', 'e1', 'e2']}"
1,142,1,0.0333666666666666,12.200720177734716,124.50256750181376,14.795546471001558,20.92406248201166,31.070647589103142,32.58381112717628,44.77944918866432,92.49287688939653,71.57130550568581,65.10040447240658,73.97773235500745,81.37550559050817,33.289979559753306,14.055769147451429,8.137550559050737,19.97398773585201,10.356882529701068,10.462031241005889,9.61710520615094,73.97773235500745,62.14129517820624,66.64568466277613,"{'others': ['m1', 'm3', 'm12', 'e1', 'e2']}"
2,142,2,0.0667333333333332,11.981204252421268,124.97263292737432,14.934974331909698,23.962408504842596,32.693880769179714,34.21225721181188,44.80492299572896,95.6766721328419,71.71806077462755,65.38776153835954,74.30427447540853,80.24861643344116,32.693880769179714,17.833025874098098,7.430427447540751,19.319111363606112,10.402598426557232,11.981204252421296,11.14564117131124,77.27644545442485,65.38776153835948,68.37608371252564,"{'others': ['m1', 'm3', 'm12', 'e1', 'e2']}"
3,142,3,0.1000999999999998,13.990200005483242,133.75099488257598,15.250186234363628,21.45998718235582,34.93432813361687,37.9665930270723,45.75055870309076,96.36705152989572,74.91041878555947,67.52653595064987,77.3899625501831,84.97721378059316,35.660080782927594,14.415777337779105,8.345976353451192,20.48557832210736,10.622151722574188,11.047204542992924,9.863426599533112,66.76781082760891,56.14565910503478,56.16616144608884,"{'others': ['m1', 'm3', 'm12', 'e1', 'e2']}"
4,142,4,0.1334666666666664,18.24650579256097,127.62863527163692,13.581751429049705,20.01054203710204,34.49663135282117,35.99648488990033,46.59212391107336,98.22609405653272,78.35209612134247,68.99326270564234,76.49253039103826,82.4919445393549,32.99677781574201,17.998242444950165,2.999707074158323,20.997949519108488,10.498974759554244,12.36810911266744,11.248901528093882,68.99326270564234,56.99443440900888,54.077988336250144,"{'others': ['m1', 'm3', 'm12', 'e1', 'e2']}"
5,142,5,0.166833333333333,14.1441117773967,133.6907973072681,15.41795961747617,23.21581627087873,33.75117507639811,36.85141119966086,49.30788537398004,101.99464051859592,78.78096238759463,71.33771095693237,79.77550472603173,87.44622633430401,34.51824723722518,17.642659699026353,6.903649447444991,20.710948342335087,10.848038531607004,12.65087816624579,11.506082412408318,75.17307176106834,64.43406150948715,61.38494667475936,"{'others': ['m1', 'm3', 'm12', 'e1', 'e2']}"
6,142,6,0.2001999999999996,13.64081984593407,130.5030942170295,16.34221522187829,25.54107323937632,34.06190592862492,35.54012221865615,47.43813074374665,102.773150320845,77.29168552825818,70.27884573725714,78.41639629630788,87.29372417890875,35.50931153040358,19.23421041230199,5.918218588400578,19.23421041230188,10.462031241005851,10.77132041808471,10.35688252970101,73.97773235500739,63.62084982530638,65.11721542284084,"{'others': ['m1', 'm3', 'm12', 'e1', 'e2']}"
7,142,7,0.2335666666666662,10.815059742848447,134.10443691392183,17.88854381999828,26.90468488879795,35.684440731848724,37.168767014515375,50.70536936813123,106.14238972508446,79.2377478835383,73.5353539181126,80.22038609248636,90.61932503040134,34.91072357728581,20.055096523121502,8.170594879790315,18.56953381770529,9.036325160915414,10.504514628777825,9.656157585206644,68.33588444915506,63.87919633290579,59.44107484989093,"{'others': ['m1', 'm3', 'm12', 'e1', 'e2']}"
8,142,8,0.2669333333333328,12.29434822103535,133.10066156944336,19.43907136285547,28.48377100770753,34.323296203684734,37.302524134103805,49.29026288086767,109.33556470337795,80.8534518204898,74.54543575507853,80.5090706154848,90.94543162119578,36.52726351998842,23.10908508407431,6.709089217957057,17.145450223668036,9.068843668314882,10.853979280825438,9.69090664816025,80.50907061548475,68.5818008946722,70.07270960977371,"{'others': ['m1', 'm3', 'm12', 'e1', 'e2']}"
9,142,9,0.3002999999999994,9.473328311352292,132.1181219129801,19.52976662692984,25.8571541791683,34.4834355619384,36.07335948830792,49.52023237502856,104.04500893204543,78.24820087790377,73.39537149175351,79.38683038903935,88.37401873496833,34.45088865939442,19.47224141617949,8.987188345928985,16.476511967536453,9.473328311352292,11.407397883709905,9.736120708089686,79.3868303890394,65.90604787014593,64.47781363442398,"{'others': ['m1', 'm3', 'm12', 'e1', 'e2']}"
10,142,10,0.333666666666666,9.525294591964592,137.35098276485672,18.135620594728728,24.51722752570287,33.16800038286122,34.77058719483958,51.29528121423656,103.11983797440176,78.67743417697126,73.79798442199638,79.82230968093484,88.85879756934253,33.133788924161536,18.072975776815497,7.530406573673076,15.060813147346153,9.161134988850018,11.469973572000136,10.542569203142309,81.3283909956694,66.26757784832324,67.92410032300533,"{'others': ['m1', 'm3', 'm12', 'e1', 'e2']}"
11,142,11,0.3670333333333326,4.246198368656548,138.51493492962263,21.071157761969207,24.207055150191227,33.16386943263517,34.65922841093003,49.63241032893452,98.14598648472912,73.94361586843652,72.06037585776721,78.06540717924781,88.57421199183887,33.77830118332838,14.261949388516427,11.259433727776129,12.760691558146275,9.13179487889235,10.070743681384512,9.007546982220902,82.56918067035821,66.05534453628655,69.20456654478332,"{'others': ['m1', 'm3', 'm12', 'e1', 'e2']}"
12,142,12,0.4003999999999992,4.2169266503137655,137.68120212584876,20.92590100719356,22.56154282090146,32.935250003935224,34.42030053146219,49.29026288086767,95.98719947260834,73.43387597664902,71.56361832487539,77.52725318528167,89.45452290609421,34.29090044733607,11.927269720812546,11.927269720812546,13.418178435914117,10.542316625784414,12.294348221035404,11.18181536326182,83.49088804568788,68.5818008946722,70.21531108829872,"{'others': ['m1', 'm3', 'm12', 'e1', 'e2']}"
13,142,13,0.4337666666666658,9.46430811319988,138.32953221259504,21.00351531775793,22.891107425379214,33.05740707241433,34.54796566254758,50.966858975081685,103.94594062505894,81.15333782863024,76.31836379407218,77.81480229983822,91.28274885173334,33.66986637973764,18.705481322076597,5.237534770181355,12.71972729901188,10.894236764528094,11.396536126792766,10.475069540362824,85.29699482866886,67.3397327594754,70.58686314340271,"{'others': ['m1', 'm3', 'm12', 'e1', 'e2']}"
14,142,14,0.4671333333333324,17.88681690035173,140.26794795178708,19.367498049396584,24.18087417333681,34.29356737053597,37.40190210322014,50.7004743862127,112.03843327349918,87.95388271237573,78.72722250492188,78.72722250492188,92.09599613783314,34.907353374823856,25.994837619549685,0.7427096462728286,15.596902571729856,10.503500546643863,12.249081282992286,11.140644694092714,84.6688996751048,68.32928745710211,68.474446026728,"{'others': ['m1', 'm3', 'm12', 'e1', 'e2']}"
15,142,15,0.5004999999999991,19.590256836285,140.51156844385133,19.41965628583485,25.71136953561358,35.77708763999672,37.50262844630074,50.83701485849375,115.46605134034732,89.81089318003418,79.68395109676544,80.42866092009956,92.34401809344764,35.7460715200441,28.298973286701766,1.1368683772161605e-13,16.38361611335347,10.843138699000123,10.843138699000068,10.425937526679547,83.40750021343655,64.04504480674592,70.25578422192567,"{'others': ['m1', 'm3', 'm12', 'e1', 'e2']}"
16,142,16,0.5338666666666656,16.713857077567813,144.01099988095055,19.49153931932348,25.80654172662281,36.002749970237744,37.64144669605954,50.91557729063764,112.75599573347291,87.02769119719692,78.48397324248094,80.72637247798048,92.6858350673109,35.8783877679914,25.41385800232706,2.989865647332749,16.444261060329495,9.093321365110262,10.883275233383154,10.464529765664224,83.71623812531311,64.28211141765115,72.14503059118667,"{'others': ['m1', 'm3', 'm12', 'e1', 'e2']}"
17,142,17,0.5672333333333321,18.04367925394019,141.28421020514213,17.859867881038213,23.915579828785507,35.71973576207665,38.818569436482456,49.14681868116508,108.92045600493628,85.00841675131448,75.6422462135663,78.60860881017675,88.99087789831333,34.854760510172696,24.472491422036114,0.741590649152613,15.573403632204872,10.487675537606927,10.797722837387738,10.382269088136582,81.5749714067872,63.77679582712455,72.81196673884104,"{'others': ['m1', 'm3', 'm12', 'e1', 'e2']}"
18,142,18,0.6005999999999987,16.66886617606987,137.56006428781333,14.98344714921592,21.084633251568828,32.935250003935224,35.905836602482466,49.40287500590294,102.08098568900154,81.00451572630188,72.30907268242618,76.0363444701801,86.47270547589108,32.05453737468372,20.12726765387117,2.2363630726523525,17.145450223668036,10.542316625784414,12.29434822103535,11.18181536326182,80.50907061548475,64.1090747493675,71.81167320496493,"{'others': ['m1', 'm3', 'm12', 'e1', 'e2']}"
19,142,19,0.6339666666666652,10.576164677919548,139.6133857645993,15.0315542700958,21.41510128641322,34.530813255396765,36.02111891399101,46.5831732529331,93.50190942679198,72.1818396685521,66.55845208805272,73.28908207448501,85.2546464948091,32.90530215589115,13.461259972864582,8.974173315242979,17.94834663048607,9.097960863727154,10.888827983403012,10.469868867783587,82.26325538972804,64.31490875924192,73.66964898089185,"{'others': ['m1', 'm3', 'm12', 'e1', 'e2']}"
20,142,20,0.6673333333333318,7.999227698055717,141.89447868516928,14.928279135297716,21.267967634607828,32.81398469612427,34.454043527151114,44.78483740589285,88.65352689410452,67.43541835184688,63.13031993319214,71.30012604219348,86.1543189676504,34.16464372855114,8.912515755274171,13.36877363291137,17.825031510548456,9.035452814479076,10.814015681389984,9.655225401547,80.21264179746771,63.87302957946503,71.54726760140693,"{'others': ['m1', 'm3', 'm12', 'e1', 'e2']}"
21,142,21,0.7006999999999983,8.028789143215088,139.04672205510278,16.467625001967612,21.34656420450352,32.935250003935224,32.935250003935224,43.46708498681442,88.98114931871713,67.6846284627045,63.36362039181677,73.05452703997696,83.49088804568794,35.036354804886855,9.690906648160194,11.181815363261762,18.636358938769604,10.542316625784414,12.738329645754348,11.181815363261762,81.99997933058631,64.1090747493675,70.32602343943475,"{'others': ['m1', 'm3', 'm12', 'e1', 'e2']}"
22,142,22,0.7340666666666649,12.30024505769105,142.20581619444516,16.47552350077343,21.094746243001524,34.436809815746514,35.92305840632455,43.66663425497367,93.44996394587992,72.3552871164311,65.63144770967745,73.08956676759533,85.02255726026397,35.7989714780058,13.42461430425226,8.949742869501392,19.39110955058652,10.547373121500762,10.859185261795956,9.69555477529326,79.05606201392965,62.64820008651032,69.01883768581706,"{'others': ['m1', 'm3', 'm12', 'e1', 'e2']}"
23,142,23,0.7674333333333314,13.745499180644323,140.53346988978896,16.467625001967612,21.34656420450352,34.42030053146219,37.3918003466762,43.64570011843444,95.10314923303066,73.79621638049102,66.3454378220199,74.54543575507853,84.9817967607895,36.52726351998842,14.1636327934649,8.199997933058626,20.12726765387117,10.542316625784414,11.35442249576864,9.690906648160194,80.50907061548475,62.618166034265926,70.4681123060269,"{'others': ['m1', 'm3', 'm12', 'e1', 'e2']}"
24,142,24,0.800799999999998,16.60749256610917,140.4173072011566,15.148363917115438,19.8179651955168,35.92749960239605,35.77363380070346,44.78483740589285,96.22032067969089,76.46663820168534,67.58657781082923,72.78554533473914,87.63973826019617,35.6500630210968,14.854192925456914,7.427096462728514,19.310450803094117,10.503500546643863,11.31261629910087,10.397935047819884,81.69806109001337,63.87302957946503,71.54726760140714,"{'others': ['m1', 'm3', 'm12', 'e1', 'e2']}"
25,142,25,0.8341666666666645,16.35452658666512,141.29340290923997,16.554385651454112,21.199957600127156,34.34386747608061,35.81261178007367,44.64162586878168,98.62857903168184,77.505646502637,68.85112085486105,75.51413255049272,88.84015594175617,37.757066275246416,15.54702728980726,6.663011695631781,19.98903508689523,10.469912784681018,12.65084375168258,11.10501949271952,82.91747887897236,65.14944769062117,73.09468963649577,"{'others': ['m1', 'm3', 'm12', 'e1', 'e2']}"
26,142,26,0.867533333333331,19.81796519551691,141.89447868516953,16.406992348062136,21.00700109328765,35.92749960239605,37.40190210322014,44.784837405892986,101.88936933413638,80.88377437649379,70.55741639592065,74.27096462728491,89.12515755274194,37.135482313642456,19.310450803094,4.456257877637086,19.310450803094117,10.503500546643863,10.814015681390046,9.655225401547,83.18348038255908,63.87302957946503,71.54726760140714,"{'others': ['m1', 'm3', 'm12', 'e1', 'e2']}"
27,142,27,0.9008999999999976,22.55042401535008,143.68399234942498,16.459509408023496,22.795278359416077,37.37337287650866,39.00158500537858,45.10084803070028,106.84661628491612,84.09916609885123,72.27343724183879,77.48904611496118,90.90061178870452,39.48961003935528,21.607522474364146,2.2352609456239634,23.097696438113417,9.064374350319913,11.348826796180257,10.431217746244783,83.44974196995821,64.07748044121792,73.3976862092051,"{'others': ['m1', 'm3', 'm12', 'e1', 'e2']}"
28,142,28,0.934266666666664,22.550424015350053,143.83073874479027,16.459509408023518,24.25827461285297,37.521621665084425,40.344929274434215,46.41120434732409,109.6063217725038,85.40920080849477,73.76361120558806,77.48904611496118,92.39078575245378,38.74452305748071,23.842783419987995,1.4901739637493847,20.86243549248968,9.06437435031995,11.348826796180257,10.431217746244783,83.44974196995821,64.07748044121792,73.56389837229626,"{'others': ['m1', 'm3', 'm12', 'e1', 'e2']}"
29,142,29,0.9676333333333308,21.074242298294585,143.83073874479027,16.660651406218275,22.550424015350195,37.52162166508421,39.001585005378566,47.89466411647496,108.12749926995164,85.5780323593319,74.50869818746264,77.48904611496118,92.39078575245378,37.25434909373132,22.35260945623884,1.4901739637491571,19.372261528740296,9.42468767065766,12.288289306167009,11.176304728119362,83.44974196995821,65.56765440496719,71.91536937239523,"{'others': ['m1', 'm3', 'm12', 'e1', 'e2']}"
