,video_id,frame_seq,time_seconds,m1,m3,m4,m5,m6,m7,m8,m9,m10,m11,m12,m13,m14,m15,m16,m17,e1,e2,e3,b1,b2,b3,label_measures
0,184,0,0.0,39.58642187403107,156.46881066361664,13.647412999742745,23.295910543875205,41.94948339431213,45.93238775479672,50.30364398424163,125.50350174927247,102.9109680047509,82.43168346294328,103.93560088805884,50.17580732526983,26.87989678139445,46.59182108775053,32.255876137673454,23.295910543875262,22.66711922651625,23.295910543875213,22.39991398449547,26.879896781394564,96.76762841302036,79.9196786946073,"{'others': ['m1', 'm3', 'm12', 'e1', 'e2']}"
1,184,1,0.0333666666666666,23.0689108682125,146.24807359103528,18.311220335823258,24.42895584039994,35.29649253902514,40.03343919791824,47.48495456623155,112.4820943972622,88.55007986397271,76.29451146175518,103.47991209755298,47.35521401074459,28.0623490434042,35.07793630425522,19.292864967340392,19.292864967340392,24.428955840400043,22.185234867951145,21.923710190159568,24.554555412978686,96.46432483670196,74.9265047903916,"{'others': ['m1', 'm3', 'm12', 'e1', 'e2']}"
2,184,2,0.0667333333333332,25.793689182098746,158.040742429756,17.090618756876626,25.79368918209868,40.28297472553795,44.31127219809181,48.94008424432654,116.66772915579163,91.52306041777284,77.46490404709982,109.89207318309492,45.03773491110451,28.824150343106908,36.030187928883606,21.61811275733021,21.618112757330096,21.08612687172067,19.402850002906675,19.81660336088595,27.022640946662705,102.68603559731828,76.960515152219,"{'others': ['m1', 'm3', 'm12', 'e1', 'e2']}"
3,184,3,0.1000999999999998,31.22922867485612,156.9116744728924,19.047619047619065,27.12211696016447,38.356465645333934,44.875069577707706,47.749929352702914,124.51658171375912,97.79018339900443,81.18718036636426,111.29029218760049,49.25963752565917,32.839758350439524,41.961913447783786,23.71760325309515,23.71760325309515,23.07742982153833,23.71760325309513,22.805387743360825,29.19089631150177,102.16813709025617,81.99797595365621,"{'others': ['m1', 'm3', 'm12', 'e1', 'e2']}"
4,184,4,0.1334666666666664,33.78025931365504,150.55813253426223,16.504925133986987,24.23221808842103,38.15617589727864,42.04348692435445,45.534187311389445,119.45025826866272,95.5450017237021,77.41984811703855,104.38631206791727,46.973840430562745,30.446007686475923,40.88463889326749,23.48692021528132,23.48692021528143,20.36350762569504,20.36350762569504,20.00737647968413,27.83634988477797,99.16699646452145,76.49062878408124,"{'others': ['m1', 'm3', 'm12', 'e1', 'e2']}"
5,184,5,0.166833333333333,44.10773925825039,166.34182179220255,15.64812230448696,25.50948358200432,43.53364442663851,47.6183288355456,42.48072691620446,126.79569727305488,101.7910879032144,78.75338999724829,100.73108022903864,42.12390627759794,29.30358697572035,53.11275139349311,34.79800953366782,23.809164417772763,23.16651961403033,23.16651961403042,22.8934273247815,25.64063860375529,97.06813185707358,77.03085499035484,"{'others': ['m1', 'm3', 'm12', 'e1', 'e2']}"
6,184,6,0.2001999999999996,31.37684071076994,155.23987561186422,17.044354093240877,27.365493579757977,38.57533941322761,43.454747059010096,43.45474705901017,118.52330047976704,91.6106505686504,74.56025591712626,104.20469501670664,41.32255147214232,29.64443909958038,42.22086780849315,24.254541081474827,22.45790840877305,23.356224745123956,22.725805457654506,21.559592072422102,21.55959207242205,95.22153165319747,80.12659447819235,"{'others': ['m1', 'm3', 'm12', 'e1', 'e2']}"
7,184,7,0.2335666666666662,39.71067471312726,157.6399785828583,18.67226728339362,28.27833342084983,42.39864371774856,47.98992317408908,41.75245893971323,128.0356000952292,99.97900661268558,78.69306899832088,109.09720929312664,42.92349218090226,34.87533739698313,49.18316812395051,29.509900874370373,27.72142203349938,19.26250662432576,19.262506624325656,18.779027829144752,26.82718261306394,100.15481508877195,77.48469765756434,"{'others': ['m1', 'm3', 'm12', 'e1', 'e2']}"
8,184,8,0.2669333333333328,31.09887392546636,155.66125389283246,20.54036741910839,29.10427500436001,41.15966043420229,44.31127219809181,42.05666032253136,122.34357898336324,93.62650757607324,76.56414934887766,106.28905439020662,43.23622551466031,33.32792383421736,44.13698021288246,24.320376851996457,24.320376851996457,23.41962215377428,23.41962215377433,21.618112757330152,23.4196221537743,95.47999801154153,76.96051515221903,"{'others': ['m1', 'm3', 'm12', 'e1', 'e2']}"
9,184,9,0.3002999999999994,38.03645875129402,151.34238368395177,20.558515295497,27.991656013396238,42.20951387771032,46.880627832900736,47.01912334240868,133.1123413279678,105.33876330467687,85.64730084856865,119.00467065274802,63.10853746736643,44.175976227156525,40.5697740861641,20.73566231070606,33.35736980417937,21.786953129843027,19.41999285708515,18.932561240209907,23.440313916450407,97.36745780679388,79.27495391566323,"{'others': ['m1', 'm3', 'm12', 'e1', 'e2']}"
10,184,10,0.333666666666666,36.511071780337865,159.24134429582307,17.23277247289295,27.004120428320437,40.82061921610468,47.22883655862128,41.9370139224196,121.85410274227428,95.30967858472772,76.29273597931137,99.90715425862196,43.59584913103504,29.972146277586603,48.13708341551785,29.972146277586603,22.70617142241406,22.97702996385717,21.948777054507875,20.889677708620923,27.247405706896927,96.27416683103576,85.08484477553206,"{'others': ['m1', 'm3', 'm12', 'e1', 'e2']}"
11,184,11,0.3670333333333326,32.65554927266154,152.37004217463897,17.105718702767398,26.80502447235993,37.17188083660011,43.573906259686005,45.40092488319063,121.29121960665906,94.86436720990112,77.5333460313359,104.57986208877868,50.48682997389312,32.45581926893135,41.47132462141224,23.44031391645035,23.44031391645035,21.10475693885505,22.807624937023117,21.637212845954195,27.046516057442773,97.36745780679388,79.82668727958082,"{'others': ['m1', 'm3', 'm12', 'e1', 'e2']}"
12,184,12,0.4003999999999992,33.884430244327284,149.49473029401094,16.711698052759306,26.1875857461885,38.63419465806794,41.87198496883455,44.355140005964365,120.57412614993824,94.69962229896925,76.62819265279404,103.93249118424944,49.32389412133875,32.58900147302734,41.39683970898068,23.781163237074,25.542730884264643,24.53579816659736,22.282264070345654,21.13881176628803,22.900379413478674,84.55524706515206,77.98792424620989,"{'others': ['m1', 'm3', 'm12', 'e1', 'e2']}"
13,184,13,0.4337666666666658,36.83148431906943,163.00432274635523,19.13118131835797,27.24110220838734,41.86622376749367,47.64330566854301,44.58506377540895,127.21902356969755,100.31639349467036,80.62713266984224,102.61635067070824,43.97843600173201,29.31895733448812,51.30817533535412,31.15139216789362,20.156783167460503,25.522863852309005,23.17867094957037,22.90543541756881,21.98921800086606,98.95148100389724,83.57188660578362,"{'others': ['m1', 'm3', 'm12', 'e1', 'e2']}"
14,184,14,0.4671333333333324,36.18276879714075,155.16965968573268,17.620815757063667,26.59722210433081,36.88371080079569,42.52696277385488,43.08778210920275,122.46019332699468,96.18095046613838,76.93227913348085,100.1908751505797,44.728069263651605,29.52052571401009,47.41175341947064,27.73140294346399,22.36403463182592,22.630811874385607,22.630811874385497,22.364034631825803,26.83684155819094,101.97999792112569,83.80278558652822,"{'others': ['m1', 'm3', 'm12', 'e1', 'e2']}"
15,184,15,0.5004999999999991,32.03909592172759,139.26246525833466,19.05339300075125,28.58008950112677,34.02860870310373,38.83889362097895,44.54387139907811,123.18828890453582,95.102569773409,77.83877764728504,114.98910334258017,54.840956978768986,40.688451951989805,35.381262566947726,15.921568155126463,31.84313631025293,24.64019813847241,24.64019813847236,23.882352232689755,26.535946925210794,97.2984720591062,81.95174201662778,"{'others': ['m1', 'm3', 'm12', 'e1', 'e2']}"
16,184,16,0.5338666666666656,35.46467645548038,149.99411891552575,18.490006540840923,28.002307485209084,37.2335932849527,42.798666666417496,37.23359328495265,118.22148407721924,90.75512863804472,72.61187854278671,104.49026424449812,46.046557124694,38.07696069926624,41.619003555012,22.137767848410704,29.221853559902,22.40184598816722,20.729274348705896,20.36674642053777,24.794299990219884,97.40617853300672,75.65806856391613,"{'others': ['m1', 'm3', 'm12', 'e1', 'e2']}"
17,184,17,0.5672333333333321,32.242260829212704,145.14252351431858,20.39179622670816,28.27833342084983,35.992442380566764,41.59895673277714,39.5087889380401,119.6678128742896,91.84147951720315,75.11611131657901,107.30873045225576,51.865886385257,40.24077391959588,38.45229507872489,20.567506670015632,29.509900874370373,22.62266673667997,20.933608129065885,20.567506670015742,25.038703772193003,96.57785740703014,84.28651273592793,"{'others': ['m1', 'm3', 'm12', 'e1', 'e2']}"
18,184,18,0.6005999999999987,36.89683394037046,148.76666049346022,18.60561873895141,28.84678727692294,40.0128960467608,44.87506957770786,40.30299852197711,124.1819850383269,95.72614138172972,76.62610281769207,113.11472320706936,54.7329305840658,43.78634446725266,38.31305140884604,18.24431019468864,34.6641893699084,23.07742982153833,23.077429821538384,22.80538774336071,23.71760325309515,100.34370607078728,75.59839847127661,"{'others': ['m1', 'm3', 'm12', 'e1', 'e2']}"
19,184,19,0.6339666666666652,35.767455806634764,157.60611457191192,19.237332769509933,28.85599915426492,39.17314148187231,43.93327210112598,41.12006549423052,123.33433209484387,95.27018274638506,76.8040848065607,108.95463193488844,46.43967918536225,36.61590089615095,43.76046692466832,24.112910346245823,27.6851933605044,19.969669136875456,21.58202994598897,19.647556578422492,23.21983959268113,98.23778289211248,80.27707640821366,"{'others': ['m1', 'm3', 'm12', 'e1', 'e2']}"
20,184,20,0.6673333333333318,21.760708733646343,148.6643502593967,15.031030312511618,24.503503584431723,35.40420381036259,39.33800423373626,47.53229136656934,107.64534167940452,83.59672992500371,72.12921028396318,100.27719478502196,47.49972384553678,26.38873546974264,31.666482563691037,15.833241281845517,21.110988375794136,20.59148197978002,21.25708692439504,19.351739344478005,24.62948643842645,94.99944769107344,76.84515762355241,"{'others': ['m1', 'm3', 'm12', 'e1', 'e2']}"
21,184,21,0.7006999999999983,30.79277978463248,157.67022096167946,18.62318738247526,24.845150341179043,40.75454187821145,44.73692060511306,39.60629553138499,113.37869310463216,88.86723190262877,72.24300247761175,105.24289249824926,46.37822381278784,36.56744569854413,34.78366785959088,18.72966730901044,27.64855650377729,21.553469634752844,22.56320324330273,21.40533406744049,24.97288974534729,96.3240033034823,76.20302268416037,"{'others': ['m1', 'm3', 'm12', 'e1', 'e2']}"
22,184,22,0.7340666666666649,30.47955582992438,164.1374313924001,18.68628136575546,26.607604209509617,39.61937999126901,44.20532139091881,43.28999821969889,118.30433461558344,92.1366827152242,76.06739872692503,102.01980535140548,50.11499210244472,33.11169121054377,40.270975796607445,20.582943184932677,22.37276433144848,20.94931941382862,22.639645709296573,21.477853758190637,23.267674904706496,94.8605207653419,80.40262276995789,"{'others': ['m1', 'm3', 'm12', 'e1', 'e2']}"
23,184,23,0.7674333333333314,27.02922565889104,162.2245263124865,20.365146521783824,28.241376929472622,42.45609895141046,47.15548890630504,41.429243272327824,116.64748530116564,88.67972235411719,74.12487254586665,98.23778289211248,41.08125466397428,28.57826411406916,44.65353767823285,25.00598109981036,17.86141507129321,21.582029945989078,23.219839592681087,21.433698085551782,26.79212260693976,94.6654998778538,78.5293115186077,"{'others': ['m1', 'm3', 'm12', 'e1', 'e2']}"
24,184,24,0.800799999999998,18.647864802717557,151.27469233508668,20.365146521783853,23.96360296425047,39.17314148187231,43.1640598919781,43.20099961623291,105.27633805202818,81.96813359001374,71.44566028517261,103.59620741350034,44.65353767823285,31.257476374762973,27.685193360504517,13.396061303469992,20.540627331987025,23.219839592681087,23.21983959268114,21.43369808555184,26.79212260693976,94.6654998778538,78.01983869823928,"{'others': ['m1', 'm3', 'm12', 'e1', 'e2']}"
25,184,25,0.8341666666666645,11.981801482125286,147.60273991614963,18.647864802717557,23.219839592681087,36.82225048097045,40.80854535978796,46.576872037238914,99.20725818490924,76.36668849583619,69.65951877804343,98.23778289211248,44.653537678232965,25.00598109981047,25.00598109981047,10.716849042775948,16.07527356416381,22.59310154357805,23.219839592681087,21.433698085551782,26.79212260693976,91.09321686359522,76.30399863289993,"{'others': ['m1', 'm3', 'm12', 'e1', 'e2']}"
26,184,26,0.867533333333331,17.39113488735647,143.30222038430992,16.751870657295665,26.250537070621657,35.53608401800132,41.86105931551658,46.21546660364732,105.78614365217388,79.67662749278827,69.74918735503547,100.65072605663352,45.91085749951708,27.36993427855828,29.13573649007799,11.477714374879156,20.306725432478743,24.59477882275937,24.59477882275936,23.83832985551845,26.48703317279825,91.82171499903404,69.85527832294667,"{'others': ['m1', 'm3', 'm12', 'e1', 'e2']}"
27,184,27,0.9008999999999976,20.19413668749615,146.19173147189264,18.062184952065493,24.669166736471183,33.276754911049544,38.84419749778756,46.18575758293315,108.37310971239329,84.16191023613145,73.50243252771588,100.95514829107958,53.13428857425242,30.99500166831388,29.223858715838787,13.283572143563106,20.36814395346346,22.40338316630644,22.40338316630644,21.253715429700947,30.10943019207639,95.64171943365436,76.73363142167676,"{'others': ['m1', 'm3', 'm12', 'e1', 'e2']}"
28,184,28,0.934266666666664,30.513707288374896,155.65022116648902,18.0261721154042,24.04211709324318,40.80848276783461,44.19029008260973,45.99188165483425,117.99386711303003,94.28182470385158,78.65871634704524,95.45102657843688,54.795959702436,29.165591454522318,41.53887267765322,22.09514504130493,20.327533438000387,22.358714739935586,20.68936337538379,20.327533438000387,28.28178565287021,88.38058016521938,70.43882337785355,"{'others': ['m1', 'm3', 'm12', 'e1', 'e2']}"
29,184,29,0.9676333333333308,23.54637227836189,160.33015511112345,18.25650431832137,24.93456634670724,41.32991946961714,45.28881335299461,46.68264027832,112.7255986494918,88.3748559985199,76.08339519590845,98.46086437117572,53.7059260206413,29.538259311352704,34.908851913416925,17.006876573203158,18.797074107224372,20.95372491663058,22.644406676497287,22.377469175267265,35.80395068042759,93.09027176911168,79.91983965922805,"{'others': ['m1', 'm3', 'm12', 'e1', 'e2']}"
30,184,30,1.0009999999999972,12.252082408800346,138.75719983169148,19.37224324594566,26.505306813684,32.87578695840833,36.71538423741843,45.580381341012966,103.6876585832313,77.19784243795797,70.17459749484499,90.100717771159,51.981183329514806,25.990591664757403,31.188709997708884,10.39623666590296,13.861648887870617,17.06517609938285,18.661815939953996,18.193414165330186,41.5849466636119,88.36801166017523,73.12348256066242,"{'others': ['m1', 'm3', 'm12', 'e1', 'e2']}"
