,video_id,frame_seq,gap,time_seconds,m1,m3,m4,m5,m6,m7,m8,m9,m10,m11,m12,m13,m14,m15,m16,m17,e1,e2,e3,b1,b2,b3
0,72,151,1,5.033333333333319,60.13854251062312,190.68227904979582,14.50757728422343,29.015154568446974,53.885287055687286,58.06730646876003,31.36278305689447,134.85662284378995,105.88077377424838,75.6466529820226,49.740264974480624,51.812776015083955,19.68885488573187,83.93669714443604,50.77652049478229,7.253788642111772,24.956337711016587,24.956337711016605,23.833876966938533,70.46537538051416,66.3203532993075,93.26299682715126
1,72,152,0,5.066666666666652,58.94655199246836,195.83203059107478,14.73663799811709,29.548367266971358,54.77655430093305,58.984133476676575,30.142363704474196,132.89680440698876,103.34962296318494,73.68318999058545,44.20991399435127,48.420381993813294,16.841871997848102,86.31459398897164,50.52561599354431,4.2104679994620255,21.157339850651518,21.15733985065154,21.052339997310128,71.57795599085455,67.36748799139252,96.86364426295792
2,72,153,0,5.099999999999985,56.58016975190556,186.4830697835148,12.738071376067937,29.31776448228493,54.60812592230746,58.78491908940199,27.939126059558486,125.8045234798725,96.5344403688815,68.05909611958998,37.69426862008061,43.97664672342739,13.611819223918019,84.81210439518145,51.30608784399874,1.0470630172244455,25.216616703728047,23.41304083239927,23.035386378938142,67.01203310236565,62.82378103346775,106.80042775689526
3,72,154,0,5.133333333333319,54.205980752891854,185.46096177890826,14.583135538239958,27.082965999588623,54.205980752891975,58.36973217404945,27.40160009029548,123.07379311401596,96.03561887252252,68.74906753741709,37.49949138404577,41.66610153782858,12.499830461348552,83.33220307565716,49.999321845394206,0.0,25.34450012179053,23.292058848998277,22.916355845805583,68.74906753741709,64.58245738363428,106.26898151827272
4,72,155,0,5.166666666666652,52.39717088025441,184.2906678900663,14.659484945800727,29.318969891601455,50.26109124274535,54.48977394029517,31.69118020697596,127.90133799686834,98.62827620665526,72.25031866144639,46.07266697251657,46.07266697251657,14.659484945800727,81.67427326946108,48.16687910763085,2.0942121351143896,23.414003467103747,23.13132907891297,23.036333486258172,69.10900045877486,64.92057618854608,94.33257625687806
5,72,156,0,5.199999999999985,47.713427702471876,176.16580310880818,16.58031088082896,31.088082901554458,45.64293377315081,49.78409181125099,31.703748271043246,126.69638727940254,95.6965503056182,71.50259067357513,49.74093264248711,49.74093264248711,18.652849740932652,76.68393782383419,41.45077720207246,4.145077720207269,25.21352344165061,22.89193993199423,22.79792746113992,66.32124352331607,64.2487046632125,89.14326701598569
6,72,157,0,5.233333333333318,37.16865659320595,171.13734688374112,16.49396888454362,33.052304538134926,47.42016054306282,51.543652764198896,35.29140870185738,121.92225881468059,88.87058496157988,70.09936775931044,51.543652764198896,49.48190665363086,15.4630958292596,71.13024081459434,36.08055693493918,1.0308730552840188,26.881880405863583,25.082223976701655,25.771826382099448,63.914129427606554,63.914129427606554,66.00808246005282
7,72,158,0,5.266666666666652,30.83590919964441,168.20878851660484,16.409393348490312,32.81878669698051,45.12583170834819,47.17700587690956,37.14834416344236,117.07875042261365,84.32296925462533,68.71433464680297,53.33052838259334,51.27935421403208,15.383806264209625,64.61198630968045,27.6908512755773,1.0255870842805734,26.978983974025848,24.953610751280344,24.614090022735468,65.63757339396102,65.63757339396102,61.671818399288576
8,72,159,0,5.299999999999985,26.74228118517201,166.14684672087685,18.459354051844798,32.81662942550179,45.122865460064986,47.17390479915889,39.18505155332022,117.07105450590049,84.31742646785962,70.76085719873834,55.378062155534394,53.32702281644049,15.382795043204055,62.55669984236283,27.68903107776714,1.0255196695469522,24.95197048001549,26.977210569262663,26.6635114082203,65.63325885100369,65.63325885100369,73.86589737187421
9,72,160,0,5.333333333333318,26.47255418371381,166.538395662364,16.242817779418715,32.549022225079604,44.667748893401495,46.698101115829104,38.78982474434781,113.98940575206349,81.44218321428458,68.01679945131605,54.81951000553829,50.75880556068364,14.212465556991447,60.91056667282032,26.394578891555398,0.0,26.47255418371381,24.44867831462,24.36422666912813,67.00162334010247,64.97127111767509,67.03237919361119
10,72,161,0,5.366666666666651,24.48947717984936,163.31419297377576,16.453373095418463,32.71634876133826,42.856585064736464,46.93816459471145,38.82867338817628,112.41028677144459,79.69538800293425,67.34606224458582,55.1013236546612,51.01974412468621,14.285528354912117,59.18290318463596,24.48947717984936,0.0,28.861125635974446,26.84239847002894,26.53026694483674,69.3868520095732,67.34606224458582,67.37697620639034
11,72,162,0,5.399999999999984,22.540379637693494,167.38799311616893,16.325680692641413,30.61065129870269,44.89562190476386,46.980674308263396,41.01776509779519,110.36827283282072,79.82281262852868,68.36378790043591,55.099172337664754,51.01775216450437,12.244260519481145,57.13988242424489,24.488521038962062,2.040710086580134,26.607604209509606,24.826309699702996,24.488521038962176,67.34343285714579,63.26201268398552,81.65390835477238
12,72,163,0,5.433333333333318,22.655959200888276,166.1957462122908,16.409393348490312,30.76761252841925,43.07465753978704,47.17700587690956,41.228090542593904,110.93420459482387,80.2321174390456,68.71433464680308,55.38170255115472,51.27935421403208,12.30704501136779,57.432876719715864,24.614090022735354,2.0511741685612606,26.744039146348573,24.699407748306307,24.614090022735354,67.6887475625224,65.63757339396113,73.87075310497148
13,72,164,0,5.466666666666651,20.508882548897517,165.3101135088793,16.325680692641413,30.61065129870269,42.85491181818361,44.9419777476802,42.90347264035597,110.273900628447,79.69227646166125,69.38414294372592,53.05846225108462,51.01775216450437,9.183195389610773,58.16023746753501,25.508876082252186,5.101775216450392,24.57340351545056,24.826309699703035,24.488521038962176,69.38414294372592,65.30272277056565,81.65390835477238
14,72,165,0,5.499999999999984,18.273876243158384,164.47741923368633,16.369855592539302,30.456460405264124,42.63904456736964,48.73033664842251,42.687360780680606,107.68941953422654,77.26315722960271,68.01942823842307,52.79119803579101,50.76076734210676,9.136938121579306,55.83684407631745,23.34995297736907,3.0456460405263215,26.706146160031153,26.473577323727554,26.395599017895393,67.004212891581,67.004212891581,75.15336891012687
15,72,166,0,5.533333333333317,22.44781095238193,165.3101135088793,16.452730707562015,28.569941212122444,42.85491181818384,46.936331991344105,42.90347264035586,110.27390062844688,81.73037527493665,70.40449798701604,55.099172337664754,53.05846225108451,11.223905476191021,56.119527380954764,23.468165995672052,3.061065129870258,26.841350464205828,26.607604209509493,25.508876082252073,67.34343285714579,65.30272277056565,79.61385202758032
16,72,167,0,5.56666666666665,22.334737630526888,166.5448322190807,14.357313122334645,28.498452834592204,42.63904456736964,46.74402491210232,42.687360780680606,107.7850839570482,79.29085333649245,68.01942823842307,52.79119803579101,48.73033664842251,8.121722774737123,56.85205942315963,26.395599017895506,4.060861387368504,24.449623233681987,22.700905273400426,22.334737630526888,69.03464358526526,67.004212891581,69.06449640550824
17,72,168,0,5.599999999999984,22.559356847497497,168.18225576679194,14.501703823702396,26.739820621823583,43.06786307249513,47.16956431749463,43.11666519928213,106.82156239386418,80.08827704855881,68.70349585374208,53.32211618499389,51.271265562494136,9.228827801249054,54.34754149624371,25.635632781247068,3.076275933749571,26.739820621823682,24.69551173780592,24.61020746999725,69.72892116499202,65.62721991999251,86.13572614499026
18,72,169,0,5.633333333333317,22.5309985615874,169.30844340006684,16.318886110849803,26.51818993013103,42.83707604098072,46.916797568693255,42.88561665263407,108.18956897845223,81.69635992635074,70.37519635303977,53.036379860261945,53.036379860261945,10.199303819281226,55.0762406241181,26.518189930130916,4.079721527712422,26.59653039602002,24.563176315542297,25.498259548202896,69.35526597111175,63.23568367954306,89.75387360967397
19,72,170,0,5.66666666666665,22.422507319964097,168.4931895536131,16.240307426854315,28.420537996994995,42.63080699549255,44.660845423849196,40.80326742216281,107.7642606157797,79.40538842878412,68.00628734995234,52.78099913727647,52.78099913727647,12.180230570140793,54.811037565633114,24.36046114028136,2.030038428356761,26.468462809594637,24.444899733641154,24.360461140281586,71.05134499248743,69.02130656413067,79.1975205632175
20,72,171,0,5.699999999999983,28.41322065959332,168.44980819616012,14.35084357410577,26.461648066224857,42.61983098939004,46.6788625121892,40.64102145041883,109.76284713132469,83.30908816222214,69.00353588758378,54.79692555778706,54.79692555778706,14.206610329796604,54.79692555778706,26.38370489819374,2.02951576139958,26.461648066224857,26.461648066224857,26.38370489819374,69.00353588758378,66.97402012618431,73.09074969394214
21,72,172,0,5.7333333333333165,24.57180467335807,169.36791672762547,14.284041169799707,28.568082339599414,46.93327812934194,48.97385543931341,41.015096320987816,108.32371543646227,79.81761904300458,67.33905122905583,55.095587369227474,55.095587369227474,14.284041169799707,53.05501005925612,22.446350409685238,2.0405773099713542,24.824694402541425,22.53891307211479,22.446350409685238,71.42020584899865,65.29847391908447,93.88873382692215
22,72,173,0,5.76666666666665,33.052304538134926,171.13734688374112,16.49396888454362,26.802699437383353,45.35841443249478,49.48190665363086,37.33981017649937,113.56459911502914,86.81395696738986,70.09936775931044,57.72889109590278,55.667144985334744,19.586588050395562,56.69801804061865,25.771826382099448,5.154365276419867,12.541111988350902,12.541111988350753,11.339603608123753,72.16111386987836,65.97587553817448,94.86272872284378
23,72,174,0,5.799999999999983,40.8667831963307,171.42634025894563,14.285528354912117,30.67979738300631,48.97895435969872,53.09976534338043,34.93269384701261,120.68299614476234,90.00322478770858,69.3868520095732,55.10132365466109,55.10132365466109,20.407897649874485,65.30527247959844,32.65263623979922,8.163159059949749,8.163159059949862,8.163159059949749,7.142764177456002,65.30527247959844,65.30527247959844,97.95790871939744
24,72,175,0,5.833333333333316,48.52134861076167,173.729178479554,16.159761382685133,32.38258530878051,48.47928414805551,52.55805571862054,32.88273205306416,129.67201631801447,97.29464753015965,72.7189262220835,56.55916483939825,54.539194666562594,23.22965698760993,73.72891130850132,37.36944819745963,7.069895604924795,8.328550383198571,8.328550383198571,8.079880691342623,70.69895604924784,70.69895604924784,92.91862795043994
25,72,176,0,5.866666666666649,53.083186776978806,171.37281830933603,14.281068192444764,30.67021867668215,48.9636623740962,53.08318677697892,35.21849432913136,133.00167729864052,102.333533747433,75.48564616006479,55.084120170858114,55.084120170858114,20.40152598920679,77.52579875898527,42.84320457733395,8.160610395682738,12.40976378480522,12.40976378480522,12.24091559352405,55.084120170858,65.28488316546134,95.97394788843248
26,72,177,0,5.899999999999983,56.54762950929194,171.67432606769896,14.280432959301686,30.36061692527179,48.46939672225017,54.52807131253144,34.86297982689464,135.6866592919194,105.3272692301383,76.74321147689614,58.56718770605232,56.54762950929194,23.224919262744947,77.75299057527627,43.42050123034903,11.107570082182406,18.287877280547924,14.280432959301686,15.146686475703063,70.68453688661498,68.66497868985448,82.82651116394986
27,72,178,0,5.933333333333316,56.88244320340418,168.52061075477613,14.21155020050412,32.48354331543783,46.69509351594206,52.78575788758667,35.047056242572296,138.29370241322442,105.88339685575363,77.1484153741651,56.84620080201637,54.81597934480146,21.317325300756124,82.2239690172022,45.67998278733455,9.13599655746691,20.403473128340156,18.384437210791205,17.256882386326424,69.02752954530558,66.99730808809079,91.3599655746691
28,72,179,0,5.966666666666649,58.61993168510589,167.6867984964864,16.161410043528917,32.385889064272384,46.46405387514551,52.524582641468896,32.57436333671776,139.6261885043801,107.24072876659078,77.7767858344829,58.58511140779228,56.56493515235127,25.252203193013997,81.81713834536504,45.45396574742506,11.110969404926209,22.313576059696665,22.31357605969655,21.21185068213174,66.6658164295568,64.64564017411567,68.6859926849977
29,72,180,0,5.999999999999982,58.9114156782251,172.58076592921813,18.38443721079123,30.520920880043253,48.76759291167321,54.81597934480146,32.73633734838512,140.45259273255334,109.93232078312626,80.1937475599874,60.90664371644607,58.876422259231276,27.40798967240073,80.19374755998729,45.67998278733455,13.19643947189661,24.447103692946374,22.424528939778185,22.33243602936352,69.02752954530558,64.96708663087577,71.05775100252026
30,72,181,0,6.033333333333316,60.638947920015234,169.74289807682504,16.161410043528917,32.385889064272384,48.48423013058664,52.524582641468896,32.57436333671776,141.6430270030416,109.25773611701662,78.78687396220346,60.60528766323341,56.56493515235127,26.262291320734562,82.8272264730856,46.46405387514562,12.121057532646773,24.326143445724703,22.586257168486565,22.221938809852304,66.6658164295568,64.64564017411567,70.70616894043906
31,72,182,0,6.066666666666649,60.94675192716612,170.60451500794943,16.36985559253916,30.52406639390099,48.73033664842251,52.79119803579101,32.55028021502713,140.33493266632604,109.81232966031835,79.18679705368652,58.88249011684388,54.82162872947538,24.365168324211254,83.24765844105514,48.73033664842251,10.152153468421375,22.426840032120765,22.42684003212063,22.334737630527002,69.03464358526526,67.004212891581,71.0650742789494
32,72,183,0,6.099999999999982,63.07502362237187,170.57046125902423,16.243654822334975,30.45685279187819,46.700507614213166,54.82233502538065,32.74013298801442,142.36384278544654,111.97007658040394,80.20304568527911,58.8832487309644,56.852791878172525,25.38071065989834,84.26395939086308,49.746192893401144,11.167512690355238,24.44993823105028,22.427128968908065,22.335025380710476,64.97461928934013,64.97461928934013,71.06598984771585
33,72,184,0,6.133333333333315,70.1324759214056,175.26753166146167,14.432797950073336,30.996075593232273,51.58692704867559,55.6693635217116,33.24598202931605,148.6805515925742,117.68687522605458,82.47313114327619,59.793020078875315,57.731191800293345,25.77285348227383,89.68953011831286,54.638449382420504,13.401883810782351,24.827700221772623,21.026605252333216,21.649196925110004,65.97850491462088,63.91667663603903,96.90592909334964
34,72,185,0,6.166666666666648,68.3901104311791,176.16853537873325,14.654276015752634,31.155418165502002,49.73826213176653,55.95554489823735,33.41689077156172,147.37568677671527,116.22236002093031,81.86088975853261,55.95554489823746,53.88311730941393,21.760489682647858,92.2230277026506,54.9193311038257,9.325924149706225,24.95533281851804,22.89071090053573,22.796703477059737,68.3901104311791,64.24525525353192,93.25924149706248
35,72,186,0,6.1999999999999815,66.01071312006114,177.31723195804375,14.432797950073336,30.996075593232273,49.48387868596569,55.70753244187728,33.24598202931605,144.56342497454142,113.5691250736409,80.41130286469433,53.60753524312952,53.60753524312952,20.61828278581902,90.72044425760384,53.60753524312952,10.30914139290951,24.827700221772492,23.051940944202624,22.68011106440099,68.04033319320274,63.91667663603903,90.74387109963595
36,72,187,0,6.233333333333315,59.51940545359064,178.4521526648316,14.358219179928938,30.76761252841925,51.27935421403208,53.33052838259346,35.1104462039934,139.61551694370732,108.88624795547187,78.97020548960938,53.33052838259334,53.33052838259334,18.46056751705146,86.14931507957385,51.27935421403208,6.153522505683782,22.655959200888276,22.655959200888255,23.58850293845478,65.63757339396102,63.58639922539976,98.45636009094142
37,72,188,0,6.266666666666648,51.58487120562326,179.371911619412,14.432222773975695,30.99484033712565,49.48190665363086,53.605398874766934,35.29140870185727,132.20921815253968,101.21472634407212,75.25373303573019,49.48190665363086,49.48190665363086,14.432222773975695,82.4698444227181,49.48190665363086,2.061746110567924,25.08222397670169,23.051022277878754,22.679207216247505,65.97587553817448,59.790637206470706,96.92399818423209
38,72,189,0,6.299999999999981,51.32306052593559,174.46753784586602,14.358974358974365,28.791115584857867,49.27348574139188,53.372766487210946,33.392452504819914,127.5923818673558,98.80282731316754,72.82051282051282,55.38461538461536,49.23076923076917,19.487179487179446,74.87179487179492,42.0512820512821,9.23076923076917,26.74544576493392,24.95492320122347,23.589743589743648,67.69230769230762,63.589743589743534,90.27971727042201
39,72,190,0,6.333333333333314,53.37206468952807,172.41528028275295,12.477297534661542,28.79073701092329,49.27283784508837,53.49018817896045,35.4101528512106,129.81381988674227,101.03342313478714,73.84518284421631,57.43514221216833,51.28137697515024,19.48692325055697,74.87081038371946,44.101984198629225,9.230647855526968,24.700382039078956,22.656852885960305,22.563805869066073,63.58890744918631,59.486397291174285,84.12646982589273
40,72,191,0,6.366666666666648,53.490188178960445,172.5006736415087,12.30753047403607,28.717571106084165,47.22343826478979,51.32238567980476,35.41015285121048,129.63542614654725,101.03342313478701,73.84518284421631,57.435142212168216,49.23012189614417,18.46129571105405,75.89643792322238,45.12761173813226,10.256275395030002,24.700382039078956,22.656852885960436,22.563805869066073,63.58890744918631,57.435142212168216,88.22781697641462
41,72,192,0,6.399999999999981,54.85921641214248,166.8045465918741,12.350627743910122,28.498452834592204,46.87613264112995,52.9471546474551,34.75537510865868,130.34352961480386,101.84588546165061,74.11072031947594,60.912920810528135,50.76076734210676,21.31952228368482,74.11072031947594,43.65425991421182,13.19779950894781,24.701255487820205,20.40557592883316,21.31952228368482,64.97378219789675,58.88249011684388,85.3022575039746
42,72,193,0,6.433333333333314,59.62769534603883,168.4029200170152,12.307530474035957,28.717571106084165,47.35690090943301,51.32238567980453,35.111831167718314,135.63124429523918,106.98037635792102,76.92206546272541,61.53765237018035,53.332632054156306,22.563805869066073,77.94769300222833,47.178866817138214,14.35878555304214,24.70038203907894,20.61485841120293,20.512550790060118,67.69141760719833,59.486397291174285,86.25033682075436
43,72,194,0,6.466666666666647,58.72501759090353,160.05559691133135,10.101010101010047,28.28282828282829,42.61620830248287,48.86216817150637,36.86522745635285,133.71539994644772,105.53501322512297,75.75757575757564,66.66666666666663,54.545454545454504,24.24242424242425,72.72727272727263,42.42424242424238,18.181818181818244,24.3264536945299,20.302779032567468,20.20202020202032,66.66666666666663,58.585858585858546,86.89217441457195
44,72,195,0,6.4999999999999805,52.67975161362001,156.19503241787632,12.12105753264666,30.302643831616706,42.61566479425615,46.85763877362877,38.85886614567882,133.71369459951973,103.52294616462696,76.76669770676222,74.7465214513212,60.60528766323341,29.292555703896255,65.65572830183612,35.353084470219414,21.21185068213174,26.339875806809932,22.313576059696665,22.22193880985219,66.6658164295568,58.58511140779228,76.79327437285438
45,72,196,0,6.533333333333314,40.60504019984993,152.1717124589679,12.12105753264666,28.282467576175577,40.45399798934941,44.62715211939333,40.60504019984984,121.47963353839134,93.27878110105485,72.72634519588007,72.72634519588007,58.58511140779228,25.252203193013997,55.55484702463059,27.272379448455013,15.151321915808467,26.33987580680995,22.31357605969655,23.232026937572755,68.68599268499781,62.62546391867454,74.74652145132131
46,72,197,0,6.566666666666647,30.066592756745816,146.87409574189726,14.0,28.0,40.19950248448356,42.190046219457976,42.7551166528639,114.43775600735974,86.57944328765345,71.0,76.0,60.0,26.0,46.0,18.0,14.0,28.071337695236398,24.08318915758459,24.0,68.0,64.0,74.0
47,72,198,0,6.59999999999998,14.559491822168399,144.67172152600887,15.999200059995019,31.998400119990038,38.20803599504344,42.42428570993522,48.371127993852426,110.44808790553054,78.63448137956917,70.99645026622784,73.99630027747685,59.99700022498121,18.99905007124414,42.997850161236556,12.999350048745896,6.999650026247878,28.28285713995674,24.081985088431164,23.99880008999253,69.9965002624781,65.99670024747934,75.99620028497634
48,72,199,0,6.633333333333313,14.707105135326477,141.9308611283864,16.161410043528917,30.302643831616706,38.59541316805087,42.615664794256155,50.86673837914602,111.56788029848309,81.43590834179436,73.73643332360064,74.74652145132131,62.62546391867454,18.181586298970046,42.423701364263366,12.12105753264666,6.060528766323387,26.57127008306747,22.31357605969655,22.22193880985219,70.70616894043894,64.64564017411567,72.75439778909157
49,72,200,0,6.666666666666647,16.574461945695102,145.21792738340227,14.069641206740243,32.15917990112064,38.40001683288779,42.399915200254384,50.60921621666247,113.0048883223616,81.02362416773009,72.35815477752135,70.34820603370122,58.28851357078099,14.06964120674013,48.23876985168101,16.079589950560376,4.019897487639923,26.43674817052178,24.202987897233758,23.114410553930384,68.33825728988131,60.298462314601124,76.48376588290392
50,72,201,0,6.69999999999998,24.3264536945299,151.99922671496304,14.141414141414089,32.3863021048109,42.61620830248287,46.63998537622297,45.17309045454122,115.78771620935026,83.44192496187223,70.70707070707067,64.64646464646466,52.52525252525254,14.141414141414202,56.56565656565647,24.242424242424136,4.040404040404155,24.3264536945299,22.313860640782394,21.212121212121247,66.66666666666663,58.585858585858546,68.71657111795929
51,72,202,0,6.733333333333313,38.57818318000113,158.69865005895102,14.357313122334501,30.52406639390101,42.831982405972695,48.77261894414165,36.77266385521318,120.0704079283801,89.54636742832362,70.04985893210733,58.88249011684388,48.73033664842251,17.258660896316314,65.98899754473882,33.502106445790446,7.10650742789494,24.701255487820205,22.426840032120765,21.31952228368482,73.09550497263388,64.97378219789675,81.24260416659567
52,72,203,0,6.766666666666646,42.68571101697991,166.68684768619138,12.182113334564065,30.45528333641016,46.8743209914836,50.920974681713936,36.60269522607028,121.88879296393424,91.45604336782598,70.04715167374331,56.84986222796567,48.72845333825626,16.242817779418715,69.03197556252974,36.54634000369231,8.1214088897093,22.425973288758584,22.425973288758563,22.333874446700747,71.06232778495712,62.940918895247705,75.15046441339148
53,72,204,0,6.799999999999979,42.852123509399235,171.51777584279293,14.284041169799707,30.608659649570882,46.97761756117627,51.055227983912246,34.74977942104551,122.45164222847419,91.84864923147954,70.39991719401291,55.095587369227474,48.9738554393133,17.344907134756795,70.39991719401303,37.75068023447079,7.142020584899797,24.824694402541315,22.53891307211479,22.44635040968535,71.42020584899865,63.25789660911312,87.76854876460375
54,72,205,0,6.833333333333313,48.231463530158976,170.86704587494268,12.057865882539659,30.144664706349317,46.265486509292984,52.2893848817358,32.21704919492602,122.60477452695271,92.46547981253829,68.32790666772519,50.24110784391553,46.22181921640231,16.077154510052992,74.35683960899496,42.202530588888976,6.028932941269886,24.448378261891413,22.197246961579488,22.106087451322992,70.33755098148174,62.2989737264553,82.4199210777569
55,72,206,0,6.866666666666646,50.75553643037165,170.5869341634048,14.21155020050412,28.42310040100824,48.76759291167321,52.82478617971164,32.73633734838515,125.9392043337247,97.53518582334642,72.07286173112789,50.75553643037176,46.69509351594206,16.241771657719028,77.14841537416498,44.66487205872704,6.090664371644721,24.698710016308123,22.424528939778185,23.34754675797103,71.05775100252049,60.90664371644618,89.35281183743015
56,72,207,0,6.899999999999979,52.774882634751634,174.61027167466642,12.17881906955813,28.417244495635487,48.715276278232295,50.74507945649202,32.72959280289021,125.91325754914159,97.51509101276531,71.04311123908883,50.74507945649191,46.68547309997257,16.23842542607747,77.13252077386778,46.68547309997257,6.089409534779065,26.46539552359701,24.442066947347108,24.357638139116148,71.04311123908872,60.894095347790426,89.33440281084545
57,72,208,0,6.933333333333312,50.29080625399723,170.89940235993646,14.070174110687958,30.150373094331485,48.24059695093024,54.30788149639635,32.22315002299082,126.69536124053914,96.56490861947749,71.35588298991775,54.27067156979672,50.25062182388581,20.100248729554323,74.37092029935093,42.21052233206399,8.040099491821707,24.4530079643615,24.120298475465233,24.12029847546512,70.35087055344013,62.310771061618425,80.42611630452575
58,72,209,0,6.9666666666666455,44.70177800825659,168.52256761771397,14.208622247817743,30.4470476738951,46.68547309997257,48.757545506382655,34.566302569369455,123.88452692209894,93.4591568442759,71.04311123908872,54.80468581301136,50.74507945649202,18.268228604337082,71.04311123908872,38.56626038693389,6.089409534779065,26.697892483262432,24.442066947347126,24.357638139116148,71.04311123908872,60.89409534779031,83.24668032564257
59,72,210,0,6.999999999999979,42.679113874441356,166.47552894816275,12.18023057014068,30.450576425351755,44.660845423849196,48.72092228056272,36.59703822301349,121.86995486280203,91.44190869512782,70.03632577830899,54.811037565633114,52.78099913727635,17.25532664103264,68.00628734995223,33.495634067886954,5.075096070891959,26.468462809594637,24.444899733641023,24.36046114028136,71.05134499248743,62.93119127906027,81.30297569616299
60,72,211,0,7.033333333333312,36.352047541687625,161.5772774865461,14.136907377323041,30.293372951406354,42.410722131968896,46.44983852548967,36.40810316101649,117.15178410290629,86.86448252127626,68.66497868985448,54.52807131253144,52.50851311577105,17.166244672463563,63.61608319795346,31.303152049786718,5.048895491901021,28.560865918603454,26.331817307534525,26.25425655788547,68.66497868985448,58.56718770605232,70.79984615884142
61,72,212,0,7.066666666666645,29.994001799400166,159.9805066094053,15.996800959680172,29.994001799400166,39.992002399200146,45.99080275908045,38.04498694423969,113.99474584018482,84.00700642891847,68.98620413862056,55.98880335888043,53.98920323892048,16.996601019660147,58.98820353882036,26.994601619460127,2.9994001799400394,28.278616089703117,26.07159582297362,24.995001499500177,71.98560431856049,61.9876037187604,70.01456408724029
62,72,213,0,7.099999999999978,24.32149113762502,161.59581537641932,16.15831921826043,32.31663843652086,42.41558794793377,44.48125847973348,42.41558794793366,115.14574052229788,82.83601391561429,70.69264657988936,56.55411726391151,54.534327361628925,13.128634364836557,59.58380211733538,25.247373778531937,1.0098949511412911,26.566188400666856,26.334838377928925,25.247373778531937,70.69264657988936,60.59369706847667,68.70255304945006
63,72,214,0,7.133333333333312,24.2014602683688,156.8176321563118,16.078575049183314,32.157150098366515,40.24665180571314,44.261735585733064,42.254085309256084,114.63034559962657,82.50067896563316,70.34376584017696,58.28483455328944,54.26519079099353,14.0687531680353,58.28483455328944,24.117862573774914,0.0,26.43507955259032,26.127684454922814,26.127684454922814,70.34376584017696,60.29465643443734,72.46515847028269
64,72,215,0,7.166666666666645,24.31870103366585,157.53848470126925,16.156465574083427,32.31293114816674,40.441621373913556,44.430280328729395,40.44162137391368,113.16736311198984,80.88324274782734,68.66497868985448,56.54762950929194,54.52807131253144,15.146686475703177,57.55740860767207,23.224919262744947,1.0097790983802497,28.560865918603454,26.331817307534504,26.254256557885583,70.68453688661486,62.60630409957321,68.69467165499985
65,72,216,0,7.199999999999978,26.331817307534635,159.54509754407354,18.176023770843813,32.31293114816674,42.410722131968896,44.43028032872917,38.58360517353599,115.27414575833143,83.02324899733065,69.67475778823473,54.52807131253155,54.52807131253155,16.156465574083427,60.58674590281271,26.25425655788547,0.0,28.34585006822229,24.234698361125083,25.24447745950522,68.66497868985448,60.58674590281282,74.75093962513142
66,72,217,0,7.233333333333311,34.16395333386265,162.79359415344828,14.210331220302894,30.211578583815133,44.212174902645756,48.23146353015886,38.18324196137576,116.62864769000213,86.43807028998563,69.33272882460335,54.26039647142875,52.25075215767208,15.072332353174716,63.30379588333358,29.139842549470927,3.014466470634943,26.202556087688016,24.199322073832466,25.120553921957708,70.33755098148174,62.29897372645519,78.40188867376479
67,72,218,0,7.266666666666644,32.38258530878039,165.64987060591028,14.13979120984959,30.299552592534837,44.4393438023842,48.47928414805551,40.44987118839095,117.22790347490948,86.95261877549727,70.69895604924784,56.55916483939825,54.539194666562594,15.149776296267419,61.60909027148739,27.26959733328124,3.0299552592534837,28.566692140133092,26.337188818375637,26.259612246863526,70.69895604924784,62.61907535790522,86.88220228228289
68,72,219,0,7.299999999999978,26.337188818375523,161.64810519312945,14.13979120984959,28.351632427987365,42.46744092386995,46.45931397521986,42.467440923870065,111.26350704704589,82.91725366930868,69.68897096283001,56.55916483939825,52.51922449372694,12.119821037013935,56.55916483939825,24.23964207402787,2.019970172835656,28.351632427987365,24.32366188253997,25.249627160445698,70.69895604924784,60.59910518506956,88.9016388479155
69,72,220,0,7.333333333333311,20.199734880219488,156.82753069709227,14.069641206740243,26.12933366966047,42.20892362022073,46.27249501567186,42.39991520025438,102.68458120265937,76.61570278601353,66.32830854606118,56.278564826960974,52.25866733932094,12.059692462920225,48.238769851680786,20.0994874382003,0.0,26.43674817052178,24.202987897233736,25.124359297750402,68.3382572898812,62.30841105842103,86.45116432211823
70,72,221,0,7.366666666666644,18.386331927606548,158.58170667298512,14.21301485578988,26.395599017895506,44.853680064241516,46.744024912102546,45.40181054680085,104.04842984721931,77.8214050883513,68.01942823842307,60.912920810528135,52.79119803579101,12.182584162105627,46.69990595473814,18.273876243158384,2.030430693684366,24.701255487820244,20.405575928833183,20.30430693684275,71.06507427894951,62.94335150421239,93.48804982420486
71,72,222,0,7.399999999999977,24.449623233682008,158.58170667298512,12.182584162105627,24.449623233681987,44.85368006424151,46.87613264113016,47.095488694758174,108.09064115110806,83.64290177144899,71.06507427894951,62.9433515042125,54.82162872947538,12.18258416210574,48.730336648422394,22.334737630526888,4.060861387368618,10.152153468421375,8.121722774737009,9.136938121579192,69.03464358526526,62.94335150421239,97.48182132211222
72,72,223,0,7.4333333333333105,24.569566818633266,163.4352290814701,14.427746420619094,26.603449908689136,45.07372072228128,44.93496086282426,43.28323926185703,108.83150472014198,82.2508095417593,69.37330985256563,61.21174398755795,53.050178122550165,14.282740263763571,51.009786656298274,22.444306128771245,4.080782932503894,8.161565865007674,8.161565865007674,8.161565865007674,69.37330985256574,69.37330985256574,87.73683304883298
73,72,224,0,7.466666666666644,22.090445905526412,158.20042451157357,14.141958850350157,29.999625007031113,44.18089181105304,46.04288220045478,44.40665154267404,110.45222952763248,80.62156971966247,68.99913751617157,61.99922501453102,53.99932501265607,13.999825003281217,51.999350012187165,19.99975000468737,3.999950000937474,11.999850002812423,9.999875002343629,8.999887502109232,71.99910001687465,67.99915001593718,70.02769025938882
74,72,225,0,7.499999999999977,22.2210886377992,161.72150801252806,16.286558549611424,32.38465003746959,44.488064925690836,48.52444235449936,44.62544476352909,115.42881558366413,83.04547985373996,71.71351333107918,64.64316694632498,58.58287004510703,17.17084122011761,53.532622627425326,21.211039154262835,5.050247417681703,16.160791736581245,14.284256782850202,14.140692769508632,70.70346384754293,70.70346384754293,72.75161433458447
75,72,226,0,7.53333333333331,36.2348662844879,162.85546905162627,18.089538694380394,30.149231157300505,44.26452944627471,48.2387698516809,38.40001683288768,122.75505873031605,92.65405900264408,74.36810352134125,64.31835980224105,60.29846231460101,24.11938492584045,60.298462314601124,26.12933366966047,10.049743719100206,18.200859983206005,18.089538694380394,18.089538694380394,72.35815477752135,70.34820603370133,72.38606534935104
76,72,227,0,7.566666666666643,46.27424763998581,162.82442179759298,16.080198983643527,30.150373094331485,44.22054720501956,50.250621823885695,36.4030987236943,128.78284419338414,98.67564023434454,75.37593273582866,64.32079593457377,62.310771061618425,27.135335784898416,65.3258083710515,31.1553855308091,11.05513680125489,24.203904613417855,22.201450375318732,22.11027360250978,72.36089542639559,68.34084568048468,84.4210446641282
77,72,228,0,7.599999999999976,48.041648597857254,160.0124995117569,14.0,32.0,44.0,48.0,38.2099463490856,132.13629327327143,100.17983829094555,76.0,66.0,64.0,27.0,67.0,33.0,15.0,24.08318915758459,22.360679774997898,22.0,74.0,70.0,86.0
78,72,229,0,7.63333333333331,48.041648597857254,160.0,16.0,30.0,44.0,48.0,36.05551275463989,130.06152390311286,100.07996802557443,76.0,64.0,64.0,28.0,66.0,32.0,14.0,26.30589287593181,22.090722034374522,22.0,72.0,66.0,80.02499609497022
79,72,230,0,7.666666666666643,44.04488053352481,150.11807557414474,17.999775004218577,29.999625007031113,42.047066498210924,46.042882200455,36.221087791782075,128.13894611031515,98.18227439830905,75.99905001781212,71.99910001687465,65.9991750154685,32.99958750773419,58.99926251382783,26.999662506327923,16.999787503984294,26.305564058436175,24.08288812336447,23.999700005624845,73.99907501734333,67.99915001593718,78.02466151035141
80,72,231,0,7.699999999999976,43.825757211921164,145.39445500826764,15.92020098385592,31.84040196771184,41.83788230329048,45.813818818700675,39.99900993774973,131.4772716357634,99.68019750762762,77.61097979629778,77.61097979629778,71.64090442735176,34.825439652184855,56.7157160049868,24.87531403727496,20.89526379131098,26.174693852788668,23.963075732560398,23.88030147578388,71.64090442735181,67.66085418138778,57.71072856647788
81,72,232,0,7.733333333333309,47.80026918793247,137.53716128312422,16.04349983311578,31.83921989892042,38.01796512920274,41.97806747271682,39.99752498220843,135.550594312102,103.78315947240901,79.59804974730105,79.59804974730105,71.63824477257094,35.81912238628547,59.698537310475785,25.86936616787284,21.889463680507788,25.945789868102253,25.945789868102253,24.874390546031577,71.63824477257089,67.65834228520589,59.73169395691456
82,72,233,0,7.766666666666643,48.03924669556847,134.23188213007367,16.123709331284196,31.998400119990038,38.05069269380735,43.9978001649863,38.20803599504355,134.23188213007367,102.30812922084704,77.9961002924756,79.99600029997498,71.99640026997758,37.99810014248817,57.99710021748183,23.998800089992415,23.99880008999253,26.304577679926812,24.08198508843105,24.99875009374216,71.99640026997758,67.99660025497883,57.99710021748183
83,72,234,0,7.799999999999976,48.28306391744442,136.81637045420416,14.070351758794004,32.2235568681033,38.24381425214166,42.21105527638201,40.65075058523953,135.04785553560455,102.82738140646156,78.391959798995,78.39195979899489,72.3618090452261,35.1758793969849,59.2964824120603,25.125628140703498,23.115577889447195,26.207848865136317,26.207848865136317,25.125628140703498,74.3718592964824,70.3517587939698,64.3530074113854
84,72,235,0,7.833333333333309,48.52629888481857,137.43138947455375,14.284803294144579,32.322820087057835,38.43647462116433,42.42370136426348,40.60504019984984,135.59280963322354,103.34539357744409,78.78687396220334,78.78687396220346,74.7465214513212,36.36317259794009,58.58511140779228,24.24211506529332,24.242115065293433,28.354524935192813,26.33987580680995,26.262291320734448,74.7465214513212,70.70616894043894,60.638947920015234
85,72,236,0,7.866666666666642,44.48976702544438,141.54214677566185,14.141233788087789,32.322820087057835,38.43647462116433,42.47177356253514,40.85553634633454,131.55985872988347,99.31791355574885,76.76669770676222,76.76669770676233,70.70616894043894,33.3329082147784,57.57502328007172,23.232026937572755,21.21185068213174,26.33987580680995,24.32614344572459,25.252203193013884,74.7465214513212,68.68599268499781,64.67719772550667
86,72,237,0,7.899999999999975,40.65986679086452,146.24928410452065,14.213197969543103,30.45685279187819,38.57868020304568,42.68791074442361,42.832534232952256,128.06373223327083,97.65209873227239,77.15736040609136,77.15736040609136,73.09644670050761,32.48730964467006,52.79187817258878,20.30456852791872,18.27411167512696,28.498819995163892,26.473918396762063,26.395939086294447,75.1269035532996,69.03553299492387,67.03583358058563
87,72,238,0,7.933333333333309,35.99820013498868,148.11416616710923,13.999300052495641,29.99850011249066,39.99800014998755,44.04322898469258,42.42428570993513,122.14134496224072,92.19083514640434,73.99630027747685,75.99620028497634,69.99650026247821,30.998450116240406,48.997550183734575,16.999150063744537,16.999150063744764,28.28285713995663,26.07550587810935,25.998700097491792,69.99650026247821,65.99670024747945,54.03432269583009
88,72,239,0,7.966666666666642,36.053710114198985,148.20864826202964,13.999300052495641,27.998600104991283,41.99790015748681,46.041155732647226,40.04796644073704,118.06187419902356,90.08434093199484,71.99640026997747,75.99620028497634,67.99660025497883,31.998400119990038,45.997700172485565,15.999200059994905,17.999100067494396,26.07550587810935,26.075505878109368,25.998700097491792,73.99630027747696,67.99660025497883,62.029148297201175
89,72,240,0,7.999999999999975,33.99957500796859,150.11807557414474,11.999850002812423,29.999625007031113,39.99950000937474,46.042882200455,42.1895188537683,118.06630132562076,88.08976106704952,70.99911251664025,73.99907501734333,67.99915001593718,28.999637506796716,46.99941251101541,14.9998125035155,16.999787503984294,26.305564058436175,23.999700005624845,24.999687505859242,69.99912501640597,63.9992000149997,55.99930001312464
90,72,241,0,8.033333333333308,36.23623872199408,148.9589820874459,14.070174110687958,30.15037309433137,42.258352967615544,46.274247639985916,40.25071671349096,120.66847460541538,90.54040964953764,72.36089542639559,74.37092029935093,66.33082080752922,30.150373094331485,50.250621823885695,18.09022385659887,18.090223856598982,28.21204349227827,26.207517972576362,26.130323348420575,72.36089542639559,66.33082080752922,62.34318238815952
91,72,242,0,8.066666666666642,37.6753751528141,144.76952685186757,13.8612162884599,29.702606332414007,39.652948552172866,45.58702330743477,39.80099990185061,120.936589253489,91.28149985972034,72.27634207554104,73.26642895328814,65.34573393131097,29.70260633241412,51.48451764285096,19.801737554942633,17.82156379944854,26.04511934388188,25.81830701907478,25.74225882142548,71.28625519779376,67.32590768680518,63.489200410801075
92,72,243,0,8.099999999999975,39.80099502487565,143.62866129963095,14.071776740030757,31.902924461455513,39.85071521293691,43.82629959312484,39.999504959685176,125.6255848922319,93.72268130799299,73.6318407960199,75.62189054726377,65.67164179104486,30.845771144278615,54.72636815920396,20.895522388059703,18.905472636815944,28.143553480061627,25.947074249562842,25.870646766169216,71.64179104477614,67.66169154228851,61.72363151948588
93,72,244,0,8.133333333333308,39.848742600560016,143.4974248954139,11.939707462095157,31.901345265114504,37.809073629968,43.824130189124254,42.213240559155544,125.76114015553902,93.86581243306762,73.62819601625347,75.618147259936,67.65834228520589,29.849268655237893,53.72868357942821,21.889463680507788,17.909561193142736,28.142160372770363,27.93029667923404,27.859317411555367,73.62819601625341,67.65834228520589,67.68759994810233
94,72,245,0,8.166666666666641,39.65343444455603,142.79410991936575,13.861386138613966,29.76890371955026,37.67583681275341,43.564356435643504,41.77232298956232,125.00367605613175,95.23496757553315,75.24752475247533,75.24752475247533,67.32673267326732,29.702970297029765,53.46534653465346,21.782178217821752,17.82178217821786,27.79340365864988,25.818623386941212,25.74257425742576,75.24752475247521,69.30693069306926,69.33521346539241
95,72,246,0,8.199999999999974,35.522241666269444,147.89963608406086,11.822516653583762,29.556291633959404,39.457618581956744,43.349227729807126,43.52798819018054,120.34085700054379,90.83184823733441,72.90551936376676,70.9350999215028,65.02384159471092,24.630243028299674,52.21611521999489,20.689404143771526,14.778145816979873,27.865938988133223,25.615452749431483,26.60066247056352,74.87593880603066,66.99426103697476,59.145414474708744
96,72,247,0,8.233333333333308,33.66295384340265,154.6565143208799,13.8612162884599,27.79306309286208,39.652948552172866,43.74346801238738,41.771811133430504,116.98118428106089,89.1957833019761,72.27634207554092,67.32590768680518,59.40521266482813,21.781911310436953,53.464691398345394,23.762085065931274,9.900868777471374,26.04511934388203,25.81830701907478,24.752171943678377,73.26642895328803,65.34573393131097,85.23952283366093
97,72,248,0,8.26666666666664,27.7224325769198,152.67897290092907,11.88104253296558,25.742258821425594,41.63076916249737,45.58702330743477,45.71586112432363,110.96042826214057,85.23952283366081,71.28625519779382,67.3259076868053,59.40521266482824,17.821563799448427,47.52417013186255,19.801737554942747,7.920695021977053,26.045119343881993,25.81830701907478,25.742258821425594,73.26642895328803,65.34573393131097,93.15239111054284
98,72,249,0,8.299999999999974,24.11938492584045,158.9893595891493,12.059692462920225,28.139282413480487,40.24919222874255,44.40121900306851,46.272495015671964,110.5654516615548,82.43240642236682,70.34820603370133,66.32830854606118,58.288513570781106,16.079589950560262,48.2387698516809,18.08953869438028,6.029846231460056,26.43674817052178,24.202987897233758,25.124359297750402,72.35815477752135,64.31835980224116,88.46058210605496
99,72,250,0,8.333333333333307,20.0,156.20499351813308,14.0,30.0,38.0,42.04759208325728,46.17358552246078,110.07270324653611,80.09993757800315,70.0,66.0,58.0,16.0,48.0,16.0,4.0,28.284271247461902,24.08318915758459,24.0,74.0,66.0,88.02272433866155
100,72,251,0,8.36666666666664,22.090722034374522,158.3161394173064,14.0,30.0,40.049968789001575,44.04543109109048,46.17358552246078,112.16059914247963,82.21921916437786,71.0,68.0,58.0,17.0,49.0,19.0,5.0,28.284271247461902,24.08318915758459,25.0,72.0,64.0,82.02438661763951
101,72,252,0,8.399999999999974,20.0,158.2024020045208,14.0,30.0,38.05259518088089,42.04759208325728,48.16637831516918,112.0714058089752,82.09750300709517,72.0,66.0,58.0,14.0,50.0,20.0,2.0,28.284271247461902,24.08318915758459,25.0,72.0,66.0,82.0
102,72,253,0,8.433333333333307,16.080198983643527,158.9064188032437,14.070174110687958,32.160397967286826,40.25071671349095,42.258352967615544,48.407809226835596,110.62443567948976,78.49398056282237,70.35087055344002,64.32079593457377,58.290721315707515,13.065161674210344,49.24560938740797,17.08521142012114,1.0050124364777275,28.42604436040828,24.453007964361426,25.125310911942847,74.37092029935093,66.33082080752922,86.45443876004337
103,72,254,0,8.46666666666664,9.950248756218912,151.36156712283713,15.92039800995019,29.850746268656735,39.85071521293691,41.838400082843066,47.80263542075354,103.50172038961867,73.65872845103183,68.65671641791039,63.68159203980099,57.71144278606971,12.935323383084551,42.786069651741286,12.935323383084551,0.9950248756218798,26.17501778699677,23.96337229610415,24.875621890547336,73.6318407960199,65.67164179104475,85.59527628898158
104,72,255,0,8.499999999999973,9.998000599800093,154.08602467063795,15.996800959680058,31.99360191936023,40.04196119744127,40.04196119744127,46.16435357484828,104.05608551366434,72.09660762939772,66.9866040186605,63.98720383872046,57.98840347884038,14.997000899700083,42.9914025791403,10.997800659780069,0.9998000599799752,28.27861608970323,26.07159582297362,25.994801559480152,69.98600419860054,61.98760371876051,82.08108843070268
105,72,256,0,8.533333333333307,11.880605807535517,152.58345083504844,15.840807743380878,29.701514518838962,39.799536889766465,41.629238891436074,49.6606796303944,106.99876420805323,77.32541471489955,71.28363484521356,65.34333194144574,59.403029037677925,12.87065629149697,44.55227177825839,12.870656291496857,0.9900504839613404,26.04416197285042,23.843573080798095,24.751262099032488,69.30353387729087,63.36323097352306,81.20828366742268
106,72,257,0,8.56666666666664,11.939707462095157,151.3540747177678,15.91960994946021,29.849268655237893,39.848742600560016,41.97806747271682,49.78856421004983,107.47579105391831,77.63360650710224,71.63824477257094,65.66839104152336,59.698537310475785,12.93468308393642,44.77390298285684,14.924634327618946,0.9949756218412631,27.93029667923404,23.962186107988494,24.874390546031577,71.63824477257106,65.66839104152348,79.62292025243788
107,72,258,0,8.599999999999973,13.8612162884599,144.76952685186757,13.8612162884599,29.70260633241412,37.67537515281397,41.77181113343049,51.63661403814967,108.98153908255,79.3058971043456,72.27634207554092,69.3060814422995,61.38538642032245,13.8612162884599,43.56382262087402,13.8612162884599,1.9801737554942065,26.04511934388203,23.762085065931274,24.752171943678377,71.28625519779382,65.34573393131109,73.26642895328814
108,72,259,0,8.633333333333306,21.775508475236848,142.87386668518786,15.836733436535951,27.71428351393797,35.68759652580332,41.75953222829282,49.64790674341704,114.88455891714518,87.19196891086398,76.2142796633292,73.24489214397875,63.34693374614369,18.8061209558864,46.52040446982437,18.8061209558864,4.948979198917527,27.7848932679027,25.81071767750458,26.72448767415449,71.26530046441178,67.30611710527774,77.22945071349498
109,72,260,0,8.66666666666664,35.165651817881226,144.67644001317905,11.703836378260121,25.35831215289693,35.16565181788112,41.14878314531389,47.17967276272292,119.24455032579856,93.9552351223525,76.07493645869056,72.17365766593718,62.420460684053864,20.481713661955155,51.691944003982144,26.333631851085215,10.72851668007172,21.80881144943703,19.603683315244044,20.481713661955155,72.17365766593718,68.27237887318381,83.87749404419742
110,72,261,0,8.699999999999973,37.218698948654264,149.33802013345638,11.915395125859202,27.494175441184588,39.37297844357026,43.49416985336544,45.43585703327306,121.8447865168757,94.35210178733001,75.41683734332571,72.47851900527405,60.72524565306742,21.54766781237879,54.848608976964215,27.424304488482107,11.75327335220652,13.712152244240997,9.988361695248678,9.79439446017227,70.51964011323969,68.56076122120521,90.10842903358389
111,72,262,0,8.733333333333306,25.540655968903163,155.54287855319524,13.71215224424111,27.494175441184588,41.322595496626796,45.43585703327306,49.323310205816576,115.98812886190191,88.49711009053406,75.41683734332582,74.43739789730853,58.766366761033055,17.629910028309837,48.97197230086101,21.547667812378904,5.876636676103203,11.75327335220652,7.83551556813768,7.83551556813768,70.51964011323969,68.56076122120533,84.2545669401213
112,72,263,0,8.766666666666639,19.50306494352518,150.04451891236536,13.584392459321748,29.174028280159767,40.937581837288754,45.01251901756284,48.67068994565214,110.88780143673699,81.71401459505233,71.80321728498643,71.80321728498654,58.21882482566468,16.495333700604988,45.604746113437386,18.43596119479389,6.792196229660931,13.584392459321748,11.64376496513296,10.673451218038508,69.8625897907977,67.92196229660885,95.1105474751682
113,72,264,0,8.799999999999972,21.526327817756314,152.4634508909159,15.591217188291012,27.354145173268304,39.17244838105171,43.05265563551261,49.07210222333272,113.45556915421487,86.10531127102512,75.03273271865078,72.10937949584627,60.4159666046279,17.540119336827388,46.77365156487326,19.489021485363878,5.846706445609129,19.586224190525957,15.591217188291125,15.591217188291125,68.2115751987734,68.2115751987734,64.31377090170054
114,72,265,0,8.833333333333306,25.545864064958383,155.092691002198,15.67422667814185,29.45441189428832,41.19146809893849,45.105974596918216,47.185670748568604,117.81764757715293,88.36323568286461,75.43221588855761,70.53402005163832,60.73762837779964,18.613144180293375,51.92087587134495,20.57242251506125,4.898195836919285,19.690503571572503,19.690503571572503,19.592783347677255,70.53402005163827,68.5747417168705,68.57474171687045
115,72,266,0,8.866666666666639,35.32139249455383,160.95921682763577,15.67422667814185,29.45441189428821,45.10597459691798,47.18567074856862,41.331021750316516,121.72780433955181,92.27348152895331,74.45257672117373,68.57474171687056,58.77835004303188,22.531700849829008,57.798710875648,28.40953585413206,8.816752506454804,23.59283537428431,21.64093654066316,21.552061682445014,72.49329838640608,70.53402005163832,82.31301149760125
116,72,267,0,8.899999999999972,42.70033831770877,163.32622805759055,15.648233338950803,29.17849279031411,44.68343687525744,48.56191469906247,37.08130991380578,124.46154510614548,95.28338042014893,73.7551298214969,67.93235641453668,58.22773406960289,26.20248033132134,61.13912077308305,30.084329269294813,12.616009048413957,25.30655893307036,23.37182556359635,23.291093627841292,71.81420535251027,67.93235641453674,87.34160110440439
117,72,268,0,8.933333333333305,44.69764657010078,163.3781671209862,13.5907918908199,27.25083633663493,44.82397083491011,48.69361807786055,37.34630024602449,122.70174883015935,95.45200329717169,72.80781370082138,66.01241775541132,56.30470926196847,24.269271233607014,61.15856350869001,32.035438028361455,12.620021041475638,25.3146066237835,23.37925799342749,23.298500384262866,71.83704285147707,67.95395945409996,89.33201936102938
118,72,269,0,8.966666666666638,46.40351682821277,164.30555311021016,15.454429456954927,29.0413772981325,42.543562981151545,48.33371268454817,34.986452705725604,125.80477511750497,96.76389024228565,73.40853992053587,65.68132519205847,59.885914145700326,28.011153390730897,62.783619668879396,31.874760754969543,14.488527615895237,27.319829670954878,23.26199674589961,24.147546026492023,71.47673623841655,67.61312887417779,86.95262753144594
119,72,270,0,8.999999999999972,48.29509205298416,164.38502924876047,15.574699204358527,29.0413772981325,42.54356298115178,48.333712684548395,36.90705752537354,129.66130465738803,100.6208279131915,76.30624544371494,67.61312887417785,59.885914145700326,27.045251549671093,65.68132519205847,36.70426996026799,13.522625774835547,25.187638421703763,25.187638421703763,24.147546026492023,71.47673623841649,67.61312887417779,92.8070336564253
120,72,271,0,9.033333333333305,56.06606637343749,162.40527236069087,15.457313956901999,29.04679774095848,44.48176136490998,50.27341363329443,34.992982770213715,135.47213592718768,106.4270022090135,78.2526519068166,67.62574856144636,61.82925582760811,29.948545791497622,70.52399492836548,39.609367014561485,16.423396079208374,23.266338493265312,23.266338493265312,23.18597093535311,71.4900770506718,67.6257485614463,92.76400826887951
121,72,272,0,9.066666666666638,56.33817417384543,165.1337999001966,15.53233358950854,29.123125480328554,46.75851598685499,50.5174077082779,35.1628156867571,136.0326750434157,106.94352885959418,78.63243879688707,67.95395945409985,62.12933435803416,30.093896329672702,70.86627200213286,39.80160482311578,18.444646137541326,25.31460662378352,25.536993969928066,24.269271233607128,71.83704285147707,67.9539594540999,95.15535282330183
122,72,273,0,9.099999999999971,62.12933435803416,165.07672140141213,15.532333589508653,29.187771787354862,46.637432013241394,52.421625864591306,33.06326373252463,139.844923619947,110.68490658249706,79.60320964623133,67.95395945409996,64.0708760567228,33.00620887770572,73.77858455016565,42.71391737114857,19.415416986885702,27.250836336634816,25.31460662378352,26.210812932295653,75.72012624885423,71.83704285147707,99.09473627281935
123,72,274,0,9.133333333333304,62.72626007950248,168.62240374656008,15.681565019875734,27.512656703920978,47.08551475933208,52.925281942080346,33.38092869323221,139.22909538044217,111.74834414222791,80.3680207268626,68.60684696195585,64.68645570698698,33.32332566723585,72.52723821692473,43.12430380465787,19.60195627484461,27.512656703920964,25.55782409872883,26.462640971040173,78.40782509937816,72.52723821692479,94.17102951866437
124,72,275,0,9.166666666666638,62.7636636825992,168.64062914557826,15.683259947556394,29.406112401668338,45.13196978182301,51.00828104160501,35.341748692090924,143.16344674079903,113.77121479491565,82.33711472467132,68.6142622705595,64.69344728367037,31.3665198951129,76.45589224433775,45.089372349224845,17.64366744100107,27.51563038437714,25.560586492882187,26.465501161501606,80.37670723122687,74.49548475089318,96.13995051252292
125,72,276,0,9.19999999999997,63.035069550286835,171.47845365215738,15.758767387571652,29.613277586900278,47.31732282306814,51.25386166284766,35.51190240874961,143.85271066955502,114.26804372845993,82.73352878475134,68.94460732062612,63.03506955028672,30.532611813420203,77.80891397613516,46.29137920099174,16.74369034929498,27.64810506232519,25.683648564021514,26.592919966527234,76.82399101441194,72.88429916751898,100.46214209576965
126,72,277,0,9.233333333333304,62.46281665008862,169.7827680412177,15.608084887044129,29.26515916320784,46.8648830893064,50.72627588289356,35.17234398252014,142.47721691307967,113.22587167203388,81.94244565698182,68.2853713808181,64.38335015905716,31.216169774088257,76.08941382434034,44.87324405025197,17.55909549792466,29.330120750717164,27.591456662410405,27.314148552327197,72.18739260257922,70.23638199169869,93.66883014475052
127,72,278,0,9.266666666666636,62.15966354429667,165.13379990019638,13.590791890820014,31.125281221393777,42.758020550032995,48.5773577812679,36.94035014349793,143.79210395598756,112.67634834769098,81.54475134491986,69.89550115278848,64.0708760567228,30.09389632967293,76.69089709819843,43.68468822049272,18.44464613754144,27.250836336634816,25.5369939699281,26.210812932295653,66.01241775541132,69.89550115278848,91.25245983836271
128,72,279,0,9.29999999999997,62.163325056598836,165.14352709956307,15.654131655533709,31.066497041898515,44.700279483045755,50.5203834340019,33.06521132264997,141.86053338783836,110.82757833969352,79.60789866986488,67.95796227915298,62.13299408379703,32.03732507445784,76.6954145721869,45.62891753028839,18.44573261862729,29.38258795653582,27.252441545974882,27.183184911661215,67.95796227915298,67.95796227915298,95.14114719081408
129,72,280,0,9.333333333333304,62.163325056598836,161.2626895546917,15.654131655533737,29.124840976779865,44.700279483045755,50.5203834340019,33.06521132264996,139.9205375674931,110.82757833969352,79.60789866986488,67.95796227915298,62.13299408379703,32.03732507445784,74.75375850706826,43.68726146516974,18.44573261862729,29.38258795653582,25.31609777959574,26.21235687910189,66.01630621403433,64.07465014891562,93.19949112569543
130,72,281,0,9.366666666666635,56.88560739745788,164.7792178115857,15.805310503845856,27.515630384377026,45.13196978182324,49.04937981525688,35.341748692090924,135.49522002738328,107.9826899897976,79.39650348450448,70.57466976400406,64.69344728367037,32.34672364183518,67.63405852383721,38.22794612216887,18.623871187723353,19.70185147583123,19.70185147583123,19.604074934445634,62.73303979022586,68.6142622705595,92.16000523101853
131,72,282,0,9.39999999999997,49.029951636181586,156.96631975370227,13.717416910667453,27.504731600406714,43.156395806183426,49.029951636181586,37.43869744318914,127.61697161293925,100.11393964896445,75.44579300867156,74.46597751505249,66.62745356609958,33.31372678304979,56.829298629908294,27.43483382133502,21.555940859620478,7.838523948952911,8.079765547616661,7.838523948952911,60.74856060438486,66.62745356609952,82.32782709901053
132,72,283,0,9.433333333333303,37.65922773887357,158.6549734097836,11.87595039755763,25.80724146527508,43.72471985441099,47.54501964708724,39.63595356349293,114.95431959068054,89.15755458550326,70.26603985221607,73.23502745160556,63.33840212030748,28.700213460764303,46.514139057100806,20.782913195725882,18.803588129466334,7.9173002650384205,10.092617136601014,8.906962798168252,57.400426921528606,61.359077054047816,75.2403917613379
133,72,284,0,9.466666666666637,33.648526126413344,158.54381425397153,13.995941765246856,27.781151171809757,43.724719854410985,45.696267611844064,41.61292649312509,116.93104692746648,89.15755458550328,72.24536491847573,73.23502745160545,65.31772718656703,27.710550927634472,47.50380159023064,19.793250662596165,15.834600530076841,9.896625331298083,12.039764348323976,10.8862878644278,63.33840212030748,73.23502745160556,73.34193995736067
134,72,285,0,9.49999999999997,42.01399432153345,164.06380742670882,14.130835473605545,28.04890753768323,44.01023697353211,48.003261337554136,40.017967210748104,124.1585094275007,96.11045961436433,74.94007190413424,71.94246902796885,63.94886135819456,27.977626844210135,55.95525368842016,25.979224926766506,15.987215339548698,11.990411504661438,10.18989037304606,9.992009587217922,63.94886135819456,73.94087094541243,82.03190371335441
135,72,286,0,9.533333333333305,47.5636574446073,158.4575722256527,13.860706775458084,29.701514518838962,43.607200368018184,47.522423230142294,39.65149098218598,130.7466531740393,101.06277055104252,77.22393774898126,69.30353387729087,65.34333194144574,27.72141355091628,63.36323097352317,31.68161548676153,15.840807743380765,11.88060580753563,12.044483973886871,12.87065629149697,55.44282710183268,61.383130005600435,83.18780994347375
136,72,287,0,9.566666666666636,51.999350012187165,159.9980000374992,13.999825003281217,29.999625007031113,41.999475009843536,46.04288220045478,38.05211953235953,134.0132493868599,104.0179287755833,77.9990250182808,67.99915001593718,67.99915001593718,29.999625007031113,65.99917501546838,31.999600007499794,17.99977500421869,17.99977500421869,20.099500000062008,18.999762504452974,59.99925001406223,63.9992000149997,82.02336133203102
137,72,288,0,9.59999999999997,49.78856421004983,157.3194590680386,13.929658705777683,29.849268655237893,43.82413018912448,49.788564210050055,35.87435622385342,129.3468308393642,99.49756218412631,74.62317163809473,63.67843979784084,69.64829352888842,30.844244277079156,62.683464175999575,28.85429303339663,16.914585571301473,19.998762491104216,21.889463680507788,21.889463680507788,59.698537310475785,61.68848855415831,81.5880009909838
138,72,289,0,9.633333333333304,42.25035216863788,158.87633295692424,16.077154510052992,30.144664706349317,42.25035216863789,46.26548650929322,36.173597647619204,124.61415320799664,94.4746595223801,73.35201745211668,64.30861804021185,70.33755098148174,31.149486863227594,57.27486294206369,25.12055392195782,15.072332353174602,22.197246961579374,22.106087451322765,22.106087451322765,60.289329412698635,60.289329412698635,78.40188867376479
139,72,290,0,9.666666666666636,34.226033340760715,158.82680202711728,16.078575049183314,28.137506336070828,42.25408530925607,46.26957441763096,38.18661574181033,116.58699386986197,88.45499870704636,71.3486767807509,64.31430019673314,68.33394395902894,28.137506336070714,50.24554702869784,20.098218811479114,12.0589312868874,24.2014602683688,24.117862573774914,23.112951633200964,60.29465643443723,60.29465643443723,78.38305336476856
140,72,291,0,9.699999999999967,30.060581241588864,158.08226971548908,15.996800959680172,29.99400179940028,44.0366246467175,46.0342518030256,38.044986944239575,113.97720683772081,83.98320503832053,68.98620413862045,63.98720383872046,69.98600419860043,28.99420173942019,46.99060281906043,12.997400779740133,12.997400779740019,24.078373964262862,24.078373964262845,23.995201439520088,61.9876037187604,61.9876037187604,75.98480455848062
141,72,292,0,9.733333333333302,31.998400119990038,158.00475768044154,15.999200059995019,27.99860010499117,43.9978001649863,45.99770017248579,38.050692693807235,114.01184206031847,86.01895183035316,69.99650026247821,65.99670024747945,67.99660025497883,28.998550108740915,46.99765017623531,14.999250056245387,12.999350048745896,24.081985088431164,24.081985088431164,23.99880008999253,59.99700022498132,63.99680023998002,78.02173582325575
142,72,293,0,9.766666666666636,44.21217490264564,156.76513827905143,16.077154510052992,30.144664706349317,44.257825069584406,46.22181921640231,36.229378093470714,126.6235403202061,96.48385858428348,74.35683960899507,68.32790666772519,70.33755098148174,33.15913117698426,57.27486294206369,25.120553921957708,17.08197666693127,26.202556087688016,26.202556087688016,26.125376078836098,62.2989737264553,64.30861804021191,84.4289821251701
143,72,294,0,9.799999999999969,61.99302617681053,160.09445086426496,11.998650227769872,27.996850531462883,44.04047681611106,50.03435546438559,34.054941766383784,135.99940601470226,108.00636689825109,76.99133896152296,61.993026176810645,67.99235129069552,30.996513088405322,70.99201384763796,38.99561324025183,18.99786286063545,26.073876474687303,25.997075493501143,25.997075493501143,59.99325113884896,61.99302617681059,84.0143550670485
144,72,295,0,9.833333333333302,74.00389948704017,164.05845913497237,11.996251756897436,27.991254099427465,45.985631734773506,52.02219292909313,30.05720134850276,144.01054857609134,116.03269047649025,78.97532406624168,59.981258784487295,65.97938466293601,32.98969233146795,80.97469935905804,48.98469467399809,20.993440574570513,26.068664435660867,24.0756666869474,23.992503513794986,57.98188349167111,59.98125878448735,83.9975610127457
145,72,296,0,9.866666666666635,74.34839503271633,165.07814795611202,14.208717377829723,30.141241229479647,46.260232218874826,52.399160618404565,30.141241229479647,148.710366581331,118.57257656298326,81.38135131959496,60.28248245895918,70.32956286878573,35.16478143439281,83.39076740156031,47.22127792618471,21.098868860635662,26.429742097677064,26.199580309202286,26.12240906554905,64.30131462288983,62.291898540924535,84.39547544254287
146,72,297,0,9.899999999999968,73.99373240220203,166.1179230308491,13.993704249313168,29.98650910567096,48.14471806450039,54.01272408491562,27.987408498626223,145.94803614188064,115.96506755396858,78.96447397826705,61.972118818386775,69.96852124656562,37.982911533849915,79.96402428178942,45.97931396202898,21.990106677492008,26.29406320856457,27.987408498626223,27.987408498626223,59.97301821134204,59.97301821134204,87.96042670996826
147,72,298,0,9.933333333333302,71.26530046441178,166.4741268676861,13.857141756968986,29.693875193504823,47.67488087379249,53.59541117162326,27.784893267902586,142.54434743036757,112.85408923865066,77.20407550311279,61.367342066576725,69.2857087848447,37.61224191177291,77.20407550311268,43.55101695047381,21.77550847523696,24.08277218752045,25.734691834370892,26.724487674154375,59.38775038700987,57.40815870744285,89.08162558051481
148,72,299,0,9.966666666666637,71.27315632373029,170.4477200836804,13.858669285169753,27.717338570339507,47.55666570228872,53.491517824575496,27.787956107900033,140.58044438142585,112.86652959662005,77.2125860173744,59.39429693644183,67.31353652796747,35.636578161865145,77.2125860173744,43.55581775339067,21.777908876695392,25.813562896224774,25.813562896224756,25.737528672458097,59.39429693644183,59.39429693644183,87.11163550678157
149,72,300,0,9.999999999999968,65.33932921355472,170.3818239784523,15.839837385104147,29.699695097070276,47.56074384389848,53.49610489941295,29.76562124943774,140.5924996201873,110.89653867658211,78.20919708895178,61.37936986727857,67.31930888669262,34.64964427991538,76.22921741581376,42.56956297246745,18.80980689481123,24.08749233303211,23.75975607765622,24.749745914225173,57.419410521002646,59.399390194140665,85.16214585233
150,72,301,0,10.0333333333333,61.40603094926973,172.42541649309487,13.858669285169753,29.697148468220917,47.680136266735765,53.60131920831916,29.763068967687197,134.62707305593483,104.92992458771391,74.24287117055235,57.414487038560424,65.33372663008606,31.676958366102326,73.25296622161159,37.616388059746555,15.838479183051163,27.998740085043593,27.787956107900165,27.71733857033962,61.37410683432324,61.37410683432324,81.17220581313723
151,72,302,0,10.066666666666634,55.71518763439076,175.20659845039867,15.918625038397295,29.913676017301906,45.80928369506852,51.88836931891937,31.899371599429767,133.3184846965778,103.49019394374636,75.61346893238738,57.70501576419031,63.674500153589406,28.852507882095097,72.628726737688,38.80164853109363,12.933882843697802,26.172102812012824,27.92856869354361,28.85250788209521,61.68467202378969,63.67450015358935,91.5320939707849
152,72,303,0,10.099999999999968,53.98920323892037,176.06703314344813,16.121291560646384,27.994401679440216,48.03204314967618,54.0262201806975,34.0519630201518,131.97360791736094,103.97920623792072,76.9846046184606,57.98840347884038,63.98720383872046,26.99460161946024,70.98580425858052,38.992202339220285,10.997800659780069,28.27861608970323,27.994401679440216,27.994401679440216,65.98680395868047,65.98680395868047,88.00512507339761
153,72,304,0,10.1333333333333,49.26048605659912,181.37494229309186,13.792936095847722,27.585872191695557,49.29987869468695,55.20691923196472,33.5550339852462,124.15206212727104,96.57065689867335,71.9203096426346,53.20132494112704,59.11258326791892,22.6598235860356,67.9794707581068,36.45275968188332,8.866887490187878,27.865938988133337,27.6561547825256,27.585872191695557,59.112583267918865,63.053422152446785,82.85139294123454
154,72,305,0,10.166666666666634,45.98563173477362,182.04199500399437,13.995627049713676,25.991878806611226,50.02435384404318,56.018199951411844,38.04070931609589,123.9773911003936,97.98978901283922,74.9765734806092,53.98313290603858,59.981258784487295,18.994065281754274,66.97907230934425,36.98844291710054,6.997813524856838,28.27543655374415,26.068664435660867,26.991566453019345,59.981258784487295,61.980634077303534,89.971888176731
155,72,306,0,10.199999999999967,45.77057782858594,181.13601772694028,13.930175860873874,29.850376844729908,47.802043829604216,51.778908768893174,35.87568810186559,125.38737560334782,95.5419330827012,72.63591698884272,53.73067832051379,57.71072856647788,19.9002512298199,69.65087930436982,37.81047733665787,5.970075368946027,28.143205183843296,27.931333624616006,28.85536428323894,61.690778812441806,67.66085418138783,95.54193308270122
156,72,307,0,10.2333333333333,43.13518194225833,178.51972890647653,15.685520706275838,27.51959679196814,47.09739211533212,50.97794229539613,33.331731500835986,119.61816553596412,92.15243414937015,70.58484317824104,50.97794229539625,56.86001256024963,20.587245926986952,65.68311795752982,34.312076544978254,4.901725220711114,27.728345144623994,27.51959679196814,28.43000628012487,64.70277291338755,68.62415308995651,94.13354587709156
157,72,308,0,10.266666666666634,45.0980392156863,182.3951037067857,15.686274509803866,27.450980392156907,47.05882352941171,54.93696363185067,33.39095365867926,121.58443919943139,94.13806967966906,71.56862745098044,49.01960784313724,52.94117647058829,17.64705882352939,70.58823529411768,39.215686274509835,3.921568627450938,29.477051722299787,27.520919309055227,27.450980392156794,76.47058823529409,72.54901960784309,92.17771979249545
158,72,309,0,10.299999999999969,45.127092261133605,178.38857208159934,15.68156501987562,29.402934412266745,49.004890687111356,52.92528194208012,31.424326449239345,121.59534458004265,92.21256934547654,69.58694477569816,47.044695059626974,49.004890687111356,16.66166283361781,73.50733603066703,42.14420599091579,2.940293441226686,27.72135241292953,25.557824098728698,25.48254315729787,76.44762947189372,74.48743384440928,74.48743384440922
159,72,310,0,10.3333333333333,51.209163927148666,179.23207374502044,13.787082595770812,27.64441795557136,47.26999747121431,51.209163927148666,29.609328407904243,122.17767855706063,94.5605092086875,68.93541297885406,47.2699974712142,47.2699974712142,17.72624905170528,74.84416266275582,43.33083101527973,5.90874968390176,29.609328407904243,25.905822702569324,26.58937357755792,66.96582975088677,72.87457943478853,94.56050920868752
160,72,311,0,10.366666666666632,48.302177963249996,166.206212303129,13.513803108184447,30.948963496151812,44.44444444444447,50.23123794329234,29.531633893492636,122.00667099028186,91.06354538924234,66.60374389033723,55.98575573390667,48.26358252922989,23.166519614030335,69.49955884209112,36.68032272221478,11.58325980701511,27.096466471198514,27.09646647119853,26.062334565784113,71.43010214326034,71.43010214326034,83.01336195027534
161,72,312,0,10.399999999999968,44.444444444444464,160.52557517163285,15.56453768827719,30.948963496151826,44.44444444444447,48.302177963250124,29.214421322881684,120.08227632094487,89.14010622134973,66.60374389033734,59.84684233624512,50.194125830399116,26.062334565784113,64.67320058916812,31.853964469291782,12.548531457599779,29.214421322881652,27.09646647119853,27.027606216368667,73.36064544442945,71.43010214326023,71.43010214326023
162,72,313,0,10.4333333333333,44.67660000197915,157.3823772323092,11.64376496513296,29.1094124128324,40.79935663060275,44.676600001979146,35.41312862075496,120.56904816261168,91.53921582263831,68.8922760437033,64.04070730823128,56.27819733147601,25.22815742445482,60.15945231985347,29.109412412832285,15.52501995351065,31.110625408352213,27.444617217959557,28.139098665737947,69.86258979079764,67.92196229660885,62.13039471934517
163,72,314,0,10.466666666666631,44.4610181435967,156.7300716285714,11.58757929993817,29.03325232064501,42.6629988943677,46.51097735982043,34.97666445988296,119.9872559164437,90.95409140570811,68.55984419130084,65.6629493663163,56.00663328303449,26.072053424860883,58.903528108019145,29.934579858173606,16.415737341579074,29.225315621054666,27.106570966574612,27.037685033189064,71.4567390162855,69.52547579962913,63.76094099910043
164,72,315,0,10.499999999999966,46.134655807892386,155.81121993829737,13.455941277301918,30.81644982272747,40.41356642316129,44.25414738983137,34.81392304632288,125.08103608826784,94.27001658912349,71.12426103716746,65.35742906118094,59.59059708519442,27.873021217268274,62.474013073187734,29.795298542597266,16.339357265295234,29.089334410457276,27.185106641223438,26.911882554603835,74.9688156878251,71.12426103716746,78.8368092595478
165,72,316,0,10.5333333333333,44.436148894675284,158.47164594503678,13.524045315770763,30.97241993592486,40.618110053786815,46.40838804869682,36.91093185272889,125.71410392929972,94.74714180124603,72.45024276305776,65.68822010517238,61.82420715780927,27.048090631541527,61.824207157809155,30.91210357890452,15.456051789452317,31.15266832440379,29.04442592378968,28.980097105222967,75.34825247358003,71.48423952621692,75.37301771746112
166,72,317,0,10.566666666666633,42.92478649541306,162.04926213541773,11.706759953294409,29.266899883236192,42.924786495412945,46.82703981317786,41.159061959132856,124.93306399791348,95.68481096704406,74.14281303753171,66.33830640200199,60.48492642535484,22.437956577147702,61.46048975479596,32.193589871559766,10.731196623853293,29.525904045962356,29.525904045962385,28.291336553794963,76.09393969641405,70.2405597197668,95.62511366833479
167,72,318,0,10.599999999999966,34.50248808403287,156.9826750840489,15.310829528377326,30.621659056754652,42.148255433723556,45.9723432465,42.14825543372355,122.54642956044425,91.944686493,74.64029395083946,65.07102549560364,61.243318113509304,21.052390601518823,59.32946442246214,26.79395167466032,7.655414764188663,30.85996349950958,27.06597846276709,27.750878520183846,74.64029395083946,68.89873287769797,88.05807008846888
168,72,319,0,10.6333333333333,19.230546985532214,153.9525097086097,15.38443758842584,32.748441464473046,40.42990975927854,44.272043865431044,46.19335903117618,113.52539679337096,80.79118760392608,71.1530238464693,65.38385975080973,59.61469565515006,16.345964937702547,50.960949511660374,18.269019636255507,2.8845820478298947,31.00832528762541,28.909851235173203,28.845820478298492,74.99913324357584,69.22996914791617,86.62288836728139
169,72,320,0,10.666666666666632,9.899959008067093,151.5522231248337,17.473875288197064,33.00620887770572,40.81857667954566,42.758020550033,50.629213247567016,110.82105043049391,77.87978509153771,72.80781370082127,66.01241775541132,60.18779265934563,12.620021041475752,47.56777161786988,14.561562740164163,2.912312548032787,31.125281221393763,29.187771787354862,29.123125480328554,73.77858455016565,67.9539594540999,50.48008416590278
170,72,321,0,10.699999999999966,9.758777316811052,149.39096173406043,17.22468321942449,34.44936643884898,40.23646965409365,44.06022076532829,49.9071983435226,111.15190354568239,76.76915425307477,71.76951341426877,65.07102549560364,59.32946442246214,12.44004899180652,48.80326912170278,14.3539026828538,0.9569268455236397,32.75989825328085,28.771529762354973,29.664732211231126,72.7264402597923,66.9848791866508,47.84634227617926
171,72,322,0,10.7333333333333,21.036636403838063,152.55574355392866,15.23654056837347,30.473081136747055,39.99591899198049,43.846438228456094,47.95578608594396,114.52771507273057,84.14654561535234,73.32585148529733,66.65986498663403,59.04159470244724,15.23654056837347,51.42332441826056,19.045675710466867,1.9045675710466412,32.60094548285398,28.63192876818263,28.5685135657003,72.37356769977407,66.65986498663403,47.61418927616705
172,72,323,0,10.766666666666632,32.27993434379339,153.64425591947506,15.164344105026089,30.328688210052178,41.74500458246945,45.532505669415606,40.21053955841319,117.76799902533259,87.52401742818068,71.08286299230974,64.44846244636085,58.76183340697605,21.79874465097498,55.91851888728365,23.69428766410317,10.4254865722055,30.38786619453842,28.49625991431111,28.43314519692376,73.92617751200214,64.44846244636085,53.1090425631663
173,72,324,0,10.799999999999963,36.24015595514148,156.29319883096736,15.237922473513663,28.57110463783829,43.850414959138085,47.618507729730254,40.40564367081155,120.24026799337696,91.74444232455983,73.33250190378453,64.76117051243318,59.0469495848655,21.904513555675976,58.09457943027098,27.618734483243543,10.476071700540729,30.713014632514632,28.63452559187507,28.571104637838175,74.28487205837934,64.76117051243324,57.173946134149624
174,72,325,0,10.833333333333298,36.917391777263134,160.5707439956127,13.526412211098318,28.98516902378219,42.55547549668682,46.376270438051506,40.625218785875276,119.94553411941818,91.00501992898724,72.46292255945536,63.76737185232082,56.03799344597883,19.323446015854756,59.902682649149824,28.98516902378219,9.661723007927435,31.158120473030877,29.049509100783418,29.95134132457497,79.22612866500464,69.56440565707726,94.86217970749168
175,72,326,0,10.866666666666632,32.5921270161271,158.95540511269752,15.311004784688976,30.622009569378065,42.14873788621082,45.97286947163368,40.37324997077317,118.79911619397897,88.22530581141518,71.77033492822966,63.15789473684208,57.41626794258377,20.09569377990431,58.37320574162686,25.83732057416273,6.698564593301398,30.860316739898842,26.862524110274148,27.751196172248797,76.55502392344494,66.98564593301433,92.04527966630457
176,72,327,0,10.899999999999965,30.53011842902415,154.44570954378105,15.235331709737693,30.470663419475386,40.038063311510435,43.84295947648732,40.173709312662936,116.30980917766081,85.88897138074122,70.46340915753683,64.75015976638531,57.13249391151635,20.94858110088944,55.22807744779914,22.85299756460654,7.61766585486896,29.131970131504307,26.729758832686876,26.661830492040963,76.17665854868852,70.46340915753689,87.68591895297442
177,72,328,0,10.933333333333298,26.8576056978354,155.10180975520623,13.394676229964716,30.61640281134794,42.141020633884246,45.964452037288275,42.48715392739354,113.15714894544496,82.63682039748576,68.88690632553278,61.232805622695764,55.49223009556806,16.264963993528568,54.53546750771352,23.91906469636558,4.783812939273048,30.85466634885233,28.766591093915135,28.702877635638743,74.62748185266054,68.88690632553278,93.84080417582618
178,72,329,0,10.966666666666631,19.326683886770994,155.95904863800303,15.384615384615358,28.84615384615381,42.351376049125534,46.31382530304732,46.313825303047324,109.7671014833103,80.97501258241275,71.15384615384619,63.46153846153857,55.76923076923083,13.461538461538453,50.0,19.230769230769283,0.0,19.32668388677088,17.307692307692264,18.269230769230717,76.92307692307696,69.23076923076923,90.46641143337736
179,72,330,0,10.999999999999964,19.216561050602195,154.16425470853324,13.588160629966081,26.97172872962912,40.537379945197166,44.23984582524057,48.19488992690478,107.88691491851624,80.91518618888712,71.1012758872281,67.25796367710768,55.72802704674643,13.451592735421627,46.11974652144522,17.29490494554193,3.84331221012053,9.608280525301097,7.923191097276391,7.686624420240946,61.492995361927,67.25796367710768,80.70955641252908
180,72,331,0,11.033333333333298,19.408955119042282,156.86090305244696,13.518842516594532,29.033252320644895,40.74004218633549,44.586673650332614,48.62796526705865,110.50471438685472,81.48008437267097,71.45673901628538,67.59421258297266,56.00663328303449,13.518842516594532,48.28158041640904,19.312632166563617,3.8625264333127234,7.725052866625447,7.962802233144304,7.725052866625447,59.86915971634721,67.59421258297266,84.97558153287991
181,72,332,0,11.066666666666633,17.485275488266367,155.06427090198065,15.447405248066843,30.95509311052118,40.732921336664695,46.50284782288234,46.50284782288235,110.33343667124294,79.3795998507356,70.478786444305,69.5133236163008,55.996844024242364,16.41286807607105,47.30767857220462,16.41286807607105,4.827314140020917,11.745362229159143,9.654628280041834,10.62009110804604,55.99684402424225,65.65147230428408,84.98266836863634
182,72,333,0,11.099999999999964,24.935624052683888,157.11422046333834,17.212275561122055,32.56827675190438,42.24795499997842,46.25660066950202,44.35952823109298,118.95840862754545,86.4007044162579,73.63028990035548,66.93662718214136,57.37425187040685,18.168513092295484,56.41801433923331,23.90593827933617,4.781187655867257,17.318198256634386,15.418866889833927,13.387325436428227,74.58652743152885,70.76157730683508,74.5865274315288
183,72,334,0,11.133333333333296,36.52790927968056,157.93956177036387,17.40917299044473,30.820364898341268,42.33914502841509,46.180552148126935,42.46988896811949,127.11924102654433,96.29894854591367,77.86212241195051,69.2107754772893,59.59816777211017,22.10899772191192,62.481950083663946,29.799083886055087,6.728825393625357,21.234944484059803,17.302693869322297,18.26395463984022,74.97834010039679,73.05581855936094,71.13329701832504
184,72,335,0,11.16666666666663,38.27050351418495,153.273247128248,15.308201405673913,30.676142190712106,40.229563014632774,46.083788764406016,40.365857802634736,124.51154076727786,93.8408041758264,74.6274818526606,68.88690632553278,61.23280562269588,24.875827284220122,59.31928044698668,28.702877635638743,11.481151054255406,23.04189438220299,21.04877693280173,21.04877693280173,72.71395667695128,70.80043150124209,63.14633079840496
185,72,336,0,11.199999999999964,34.285325565405856,148.76497382531386,15.237922473513663,30.475844947027326,40.04487177266264,43.850414959138305,40.04487177266275,120.01375551343004,89.54305543393632,72.38013174919013,70.47539144000086,62.85643020324403,26.66636432864891,53.332728657297935,20.952143401081344,13.333182164324512,26.734304220489626,22.936110581140046,23.809253864865127,74.28487205837922,68.5706511308116,68.57065113081171
186,72,337,0,11.233333333333295,30.91787439613529,146.9107463478122,17.39130434782612,30.91787439613529,40.625692834064964,44.612159925082786,40.5797101449275,119.8067632850242,88.88888888888891,73.42995169082133,71.49758454106279,67.63285024154595,28.98550724637687,50.24154589371983,19.32367149758454,13.526570048309168,27.327798306726475,23.26878179476776,23.188405797101495,71.49758454106285,65.70048309178748,69.56521739130449
187,72,338,0,11.26666666666663,35.3485419163137,149.1356617239719,17.64705882352939,31.372549019607845,41.22312949338955,45.26822110045166,39.215686274509835,123.54497256488922,92.17771979249545,74.50980392156873,74.50980392156862,68.62745098039215,32.35294117647061,51.960784313725526,18.627450980392155,16.66666666666663,23.85397070705183,21.568627450980443,22.549019607843093,70.58823529411768,64.70588235294116,58.85620007766124
188,72,339,0,11.299999999999963,35.34684324301843,151.02405522660263,17.64621079456026,33.3317315008361,41.22114851693558,45.138475603606565,41.174491853973905,127.45993707760499,94.13354587709168,76.46691344309443,74.50622335481,70.58484317824104,31.371041412551563,54.89932247196532,19.606900882844798,15.685520706275724,21.65652986792277,19.606900882844684,19.606900882844684,70.58484317824099,62.742082825103125,68.65215723439516
189,72,340,0,11.333333333333297,29.553423205028594,153.72831103749323,17.732053923017133,31.523651418697227,43.389775509430905,47.32650574932466,45.31524891437721,124.12437746112016,92.60072604242293,77.82401443990864,72.89844390573717,68.95798747840001,25.612966777691327,53.19616176905163,19.70228213668588,9.851141068342713,19.800548492592373,17.732053923017247,17.732053923017247,68.95798747840013,65.01753105106297,68.95798747840013
190,72,341,0,11.36666666666663,21.672510350354287,153.72831103749323,17.732053923017247,27.58319499135996,41.42167611963054,45.35805974009361,47.32650574932477,114.29021985670288,86.71242746800122,75.85378622624012,70.92821569206865,66.9877592647315,21.6725103503544,45.315248914377094,15.7618257093485,7.880912854674307,23.724689376695167,21.76188190621745,21.6725103503544,66.98775926473155,66.98775926473155,63.047302837394454
191,72,342,0,11.399999999999965,27.584868150219904,149.79826938320434,15.762781800125708,29.555215875235717,43.34764995034561,47.32937651039608,47.32937651039608,120.20736053220871,90.65740964407536,76.84356127561273,72.90286582558122,68.96217037554982,23.644172700188506,49.258693125392824,17.733129525141408,9.851738625078497,23.726128483884892,23.72612848388491,23.644172700188506,65.02147492551848,65.02147492551848,63.051127200502606
192,72,343,0,11.433333333333296,51.731051027394074,151.22693073902457,15.917246469967381,31.896609082785474,41.78277198366436,47.75173940990226,39.99158681347436,139.40375437838756,107.51507937423042,81.57588815858276,73.61726492359912,71.62760911485327,32.82932084430786,66.65346959298836,32.82932084430763,16.912074374340477,25.94193786780367,23.95862860025743,23.875869704951015,67.64829749736145,67.64829749736145,61.71141294979303
193,72,344,0,11.46666666666663,59.99700022498121,149.9925005624532,13.999300052495641,29.99850011249066,41.99790015748681,47.99760017998506,38.05069269380724,142.00698363693192,112.01225524676957,81.99590030747447,71.99640026997758,71.99640026997758,33.998300127489415,69.9965002624781,35.99820013498868,21.99890008249315,19.99900007499366,19.99900007499366,19.99900007499366,67.99660025497877,65.99670024747945,62.02914829720095
194,72,345,0,11.499999999999964,64.97378219789675,156.39589298126356,14.21301485578988,28.42602971157976,44.669475261054004,50.801359725516555,32.73971118507846,140.15855857149788,111.74749760428371,79.18679705368663,71.06507427894951,67.004212891581,36.54775248631688,71.06507427894951,40.6086138736855,22.334737630527002,12.182584162105627,10.35320572809387,10.152153468421375,73.09550497263376,69.03464358526514,95.45184048566037
195,72,346,0,11.533333333333296,54.544758896910025,151.52668640126893,14.141233788087789,28.282467576175577,42.42370136426348,48.52629888481869,34.40236198117719,131.3269955016149,103.04879277376858,75.75660957904176,70.70616894043894,68.68599268499781,35.353084470219414,61.615375790953976,31.31273195933727,21.211850682131626,8.080705021764516,6.060528766323387,6.060528766323387,72.72634519588007,66.6658164295568,84.87144903841252
196,72,347,0,11.56666666666663,42.42207830852578,151.52088925840155,14.140692769508632,30.301484506089764,42.42207830852567,46.46227624267112,36.417852036461426,123.24259406735364,92.94650748918903,71.7135133310793,68.68336488047021,66.6632659133976,31.311533989626128,55.55272159449805,23.23113812133556,17.170841220117495,8.08039586829068,6.060296901217953,7.070346384754316,72.72356281461555,68.68336488047021,80.82920597572145
197,72,348,0,11.599999999999962,24.2014602683688,148.7403984626047,14.068753168035414,28.2091943664891,40.19643762295823,44.261735585733064,44.21608138525403,110.54020346313507,82.4272035059339,70.34376584017696,64.31430019673314,62.30447831558524,19.093307870905164,47.23081420697588,17.083485989757264,7.03437658401765,12.058931286887514,10.049109405739614,10.049109405739614,68.33394395902894,66.32412207788104,56.27501267214143
198,72,349,0,11.633333333333296,16.12431394393245,148.0116627624057,13.999825003281217,31.999600007499907,40.04946817377816,46.042882200455,48.04104808850923,109.99862502578071,77.9990250182808,69.99912501640586,65.99917501546838,63.9992000149997,16.999787503984408,44.99943751054661,12.999837503046706,4.999937501171871,17.99977500421869,16.12431394393259,15.99980000375001,67.99915001593718,67.99915001593718,59.99925001406223
199,72,350,0,11.666666666666629,19.997750379616264,147.99686418584352,13.998425265731385,29.99662556942451,38.04831498619247,42.042862527245624,47.99460091107926,111.98740212585142,81.99077655642691,71.99190136661878,65.9925762527339,63.99280121477227,16.998087822673824,46.99471339209833,14.998312784712198,4.999437594904066,22.088237247445637,19.997750379616264,20.99763789859719,69.99212632865715,67.99235129069552,62.02527222641739
200,72,351,0,11.699999999999962,29.767444709883467,150.50069997837718,15.964084371047386,29.701514518838962,39.602019358452026,43.56222129429716,43.562221294297046,118.80605807535574,89.10454355651677,74.25378629709724,67.32343290936831,65.34333194144563,22.77116113110992,52.47267564994877,20.79106016318724,8.910454355651723,27.79204147060988,23.761211615071147,24.751262099032488,69.30353387729087,67.32343290936825,63.36323097352306
201,72,352,0,11.733333333333295,40.0,156.01281998605114,16.0,30.0,42.0,48.0,40.049968789001575,126.01587201618692,96.02083107326243,76.0,68.0,66.0,27.0,59.0,27.0,13.0,26.076809620810597,24.0,25.0,70.0,68.0,72.0
202,72,353,0,11.766666666666628,43.99780016498619,156.00501993005113,15.999200059995019,29.99850011249066,43.9978001649863,48.039246695568586,37.99810014248817,127.99360047996004,97.99510036746938,75.99620028497634,63.996800239980075,65.99670024747945,26.99865010124165,62.996850236230216,30.99845011624018,12.99935004874601,26.07550587810935,26.075505878109368,25.998700097491792,73.9963002774769,69.99650026247815,74.0233210197605
203,72,354,0,11.799999999999962,45.997700172485565,159.99200059994996,13.999300052495641,29.99850011249066,44.04322898469258,47.99760017998506,40.04796644073703,130.0088834234919,100.01499737554362,76.99615028872597,65.99670024747945,65.99670024747945,25.998700097491906,63.99680023997996,31.998400119989924,11.999400044996264,28.069934233610407,25.998700097491792,25.998700097491906,73.9963002774769,69.99650026247815,88.01832353250244
204,72,355,0,11.833333333333297,49.49949182845046,156.43092519287885,15.83983738510426,29.699695097070276,41.626688814624124,45.539532482174536,37.67168248414695,132.67341324515036,102.97797950939562,78.2091970889519,67.31930888669274,69.29928855983076,30.68968493363934,64.34933937698565,32.66966460677736,14.849847548535081,29.765621249437753,25.81577649474744,26.729725587363305,71.27926823296872,67.31930888669268,83.18271411874062
205,72,356,0,11.866666666666628,47.51951215531244,156.43092519287885,15.83983738510426,31.679674770208294,39.59959346276037,47.56074384389848,35.69459117937778,130.69365741234404,99.01878147404864,75.23922757924481,65.33932921355472,67.31930888669274,30.68968493363934,64.34933937698565,30.68968493363934,14.849847548535081,27.790339017180543,25.81577649474744,26.72972558736319,73.25924790610674,69.2992885598307,89.09908529121094
206,72,357,0,11.89999999999996,45.31524891437721,157.6182570934859,15.7618257093485,29.553423205028594,43.389775509430905,47.32650574932466,37.48614831434018,128.07998859342575,98.53111099573103,75.85378622624,66.9877592647315,66.9877592647315,29.553423205028594,61.07707462372571,29.553423205028594,13.791597495680094,27.863234607402187,27.6534707612865,26.598080884525757,72.89844390573722,68.95798747840013,86.71242746800111
207,72,358,0,11.933333333333294,45.311401489162336,157.60487474491265,13.790426540179851,29.550914014671093,43.34134055485083,47.322487561277555,37.63796130223419,126.14544917708973,96.61336296902383,73.87728503667779,66.98207176658786,66.98207176658786,29.550914014671093,59.10182802934219,27.580853080359702,15.760487474491242,27.86086892004603,25.686451962717413,25.61079214604831,72.89225456952215,66.98207176658792,88.6746289082017
208,72,359,0,11.966666666666628,40.03745903739575,159.9625190327891,15.995002342530029,29.99062939224359,41.98688114914103,47.985007027589745,38.19801133509802,123.9773911003936,93.99190630563972,73.97688583420108,69.9781352485686,67.97875995575237,30.990317038651824,54.9828205524467,22.992815867386867,14.995314696121795,30.05720134850276,25.991878806611226,25.991878806611226,71.9775105413849,67.97875995575237,93.97063876236348
209,72,360,0,11.99999999999996,35.622182099613156,158.32080933161433,13.853070816516265,29.751045619325264,43.53822256619401,45.51723268283922,39.62964670237889,118.74060699871063,89.07744153630763,71.24436419922642,67.28634396593611,67.28634396593611,27.70614163303253,51.45426303277452,19.79010116645179,13.853070816516265,29.947857328505577,27.776730643318025,27.70614163303253,71.24436419922637,65.30733384929079,91.05597380433998
210,72,361,0,12.033333333333294,29.689875993894134,154.38735516824954,17.813925596336503,27.710550927634472,37.659227738873675,43.59011290640265,39.586501325192216,114.80085384305733,87.09030291542285,72.24536491847573,65.31772718656714,65.31772718656714,25.731225861374924,49.483126656490185,17.813925596336503,7.9173002650384205,27.99188353049357,27.78115117180989,27.710550927634586,73.23502745160556,67.29705225282669,79.27190712698588
211,72,362,0,12.066666666666627,21.88080080404268,155.16751986326224,18.01264349195228,33.815783060793365,39.78327418916865,43.80678654692473,39.83297224001242,113.38233143913067,79.5665483783373,68.62614797631602,61.66407499321144,63.65323870266991,22.875382658772082,50.72367459118993,14.918727820938216,4.97290927364611,30.10150906903268,27.919243109658414,27.84829193241808,75.58822095942048,67.63156612158673,77.60288257742904
212,72,363,0,12.09999999999996,27.574165191541624,153.6779856174133,15.756665823738103,29.609328407904144,41.4081160717961,45.343211054155375,41.40811607179622,114.23582722210097,84.71497783743068,70.90499620682135,61.05708006698501,64.99624652291959,21.665415507639864,51.209163927148666,17.72624905170528,5.90874968390176,27.854113132138778,25.604581963574333,25.604581963574333,74.84416266275588,64.99624652291953,77.0406703020655
213,72,364,0,12.133333333333294,25.600547766692898,155.6846928667048,15.754183241041801,29.53909357695329,41.401591907763326,45.29327681799509,41.401591907763205,112.26582858715318,82.73290241894838,69.90918813212284,59.07818715390658,64.98600586929729,20.67736550386735,50.21645908082064,18.708092598737153,4.923182262825549,29.800506580384244,27.640062366994826,27.569820671823095,74.83237039494844,64.98600586929734,69.03698984839603
214,72,365,0,12.166666666666629,29.53909357695329,157.5910565429767,17.723456146171998,29.539093576953405,41.401591907763326,47.30355845077366,39.43465919374587,116.20378895772824,86.67038303793628,71.87846103725303,61.04746005903678,64.98600586929729,23.6312748615627,53.17036843851599,19.692729051302194,7.8770916205209005,27.849724504490233,25.600547766692898,26.58518421925794,76.8016433000787,66.9552787744276,78.86931838749197
215,72,366,0,12.19999999999996,33.5355091614128,159.62047187300794,15.754183241041801,29.539093576953405,43.36873702123228,45.464195451047544,37.46797232979878,116.18710140268308,86.64800782572968,69.90918813212284,59.07818715390658,64.98600586929729,24.615911314127743,54.15500489108115,20.67736550386735,8.861728073085942,27.64006236699484,27.569820671823095,27.569820671823095,74.8323703949485,64.9860058692974,82.80318381552665
216,72,367,0,12.233333333333292,37.4679723297989,159.62047187300794,15.754183241041687,29.53909357695329,43.36873702123228,49.38911319713616,37.4679723297989,120.12564721294359,90.5865536359903,71.87846103725315,61.047460059036894,66.9552787744276,26.58518421925794,56.124277796211345,24.615911314127743,10.831000978216252,27.849724504490233,25.600547766692898,26.585184219258053,76.8016433000787,66.9552787744276,80.83619412535971
217,72,368,0,12.266666666666628,41.1586722426498,158.86372671144892,13.858845832101084,29.39905160189278,43.16313004915285,47.20152805213169,37.44453948074401,121.53188486838327,92.13787638462894,71.53769223127233,60.75803997724495,66.63785029762346,26.45914644170341,57.81813481705581,24.49920966824402,12.739589027486772,25.77894340311279,25.47917805497366,25.47917805497366,74.47759739146159,64.67791352416401,78.4219663212431
218,72,369,0,12.29999999999996,41.1586722426498,160.9059151528089,15.679494187676141,29.464310398288863,45.248654113974574,49.154964206051055,35.33326266687867,121.51607995449001,92.13787638462894,71.53769223127233,58.798103203785445,66.63785029762346,27.439114828433162,58.79810320378556,25.479178054973772,11.75962064075702,25.77894340311279,23.519241281514155,24.499209668243907,74.47759739146159,64.67791352416401,82.41062195940108
219,72,370,0,12.333333333333291,43.35192824698682,161.7175912417256,15.748077264070616,29.593189112536134,45.446574522930135,47.40799045235873,33.52251153128979,122.06347284211013,92.51995392641459,70.86634768831755,57.086780082255814,66.92932837229989,28.543390041127964,60.03954456926908,26.57488038311908,10.826803119048463,29.593189112536134,27.55913521212358,27.55913521212358,72.83485734632643,62.99230905628235,70.97562508196884
220,72,371,0,12.366666666666626,47.253960540480875,165.5762714270394,15.751320180160292,29.59928307737447,45.455933089393234,49.38013754693562,33.47155538284062,126.02594265115852,96.47683610348179,72.84985583324135,57.09853565308106,64.9741957431612,27.56481031528051,64.9741957431612,29.533725337800547,9.844575112600182,25.897033832112474,25.595895292760474,25.595895292760474,74.81877085576133,63.00528072064111,78.85498520012379
221,72,372,0,12.39999999999996,47.46662388812365,164.45299570337602,17.79998395804637,29.732492707954933,43.69049975928096,49.602369614633,35.59996791609274,130.548197984004,100.86657576226276,77.13326381820093,59.33327986015456,69.22215983684703,28.677751932408114,66.25549584383918,30.655527927746448,10.877767974361745,27.96997635943636,27.688863934738833,27.688863934738833,75.15548782286243,63.288831850831514,75.25950930907932
222,72,373,0,12.433333333333293,45.28504551796084,165.57627142703961,17.72023520268033,31.564108985327053,47.41775292255996,51.343022201809,33.52941464017037,127.97947646380237,96.49692498159716,73.83431334450142,57.09853565308106,64.9741957431612,27.56481031528051,66.94311076568124,31.502640360320584,9.844575112600182,27.844663280079637,25.671511100904507,25.595895292760474,76.78768587828137,64.97419574316115,80.82150349102666
223,72,374,0,12.466666666666626,47.2949618154749,167.6470732008518,15.751320180160292,31.502640360320584,45.32782780952204,51.343022201809,35.44047040536066,129.9633066532566,98.4654383077057,74.81877085576139,57.09853565308106,66.94311076568124,26.580352804020436,67.92756827694132,32.48709787158066,10.829032623860144,27.844663280079637,25.67151110090449,25.595895292760474,76.78768587828137,63.00528072064111,76.8885895826244
224,72,375,0,12.49999999999996,47.244231792211735,167.6125576564493,17.7165869220795,31.557610497853258,43.48579967705454,49.36997105671583,33.52251153128979,129.92163742858224,98.44516602890516,74.8033670043352,57.086780082255814,66.92932837229989,28.543390041127964,67.91358320130439,32.48040935714562,10.826803119048463,27.83893056018508,25.590625554114695,25.590625554114695,78.74038632035285,64.96081871429112,80.80486378393749
225,72,376,0,12.533333333333292,47.507809686664444,166.42723528036709,17.79998395804637,31.64441592541573,45.66050453251571,49.602369614633,31.706161185934338,128.5554396970016,96.91102377158586,73.17771182752404,55.37772786947767,65.26660784617002,28.677751932408,68.23327183917775,30.65552792774656,10.877767974361632,27.96997635943625,25.711087939400386,25.711087939400386,77.13326381820093,63.288831850831514,83.16071828405077
226,72,377,0,12.566666666666626,49.01113422019475,164.83706902032907,17.62991002830995,31.342062272550947,47.17605089366511,51.0813119378063,31.403217574161395,129.28600687427274,97.9439446017218,73.45795845129135,56.80748786899858,66.60188232917085,30.362622826533766,67.58132177518803,32.32150171856813,12.732712798223815,25.765029145390912,25.465425596447744,25.465425596447744,78.35515568137748,64.64300343713643,78.45303848741295
227,72,378,0,12.59999999999996,53.19715450200984,165.6815961323823,17.72023520268033,29.533725337800547,45.455933089393234,51.343022201809,31.564108985327067,131.91730650884244,102.3835811710419,75.80322836702146,59.067450675601094,68.91202578820128,32.48709787158066,67.9275682769412,32.487097871580545,14.76686266890033,25.897033832112474,25.67151110090449,24.611437781500513,76.78768587828137,61.036365698121074,82.78813571351981
228,72,379,0,12.633333333333292,52.88605549575789,162.75878303777858,15.659205853725439,31.318411707450878,45.19010504380064,51.042766232584995,31.318411707450878,131.16045567967365,99.84662567660381,73.40252743933797,58.722021951470424,68.50902561004875,32.29711207330877,67.53032524419086,32.297112073308654,14.680505487867663,25.745586981891535,27.47342847244676,26.424909878161657,76.33862853691147,60.67942268318609,82.30398751065007
229,72,380,0,12.666666666666623,50.898367697853864,164.73803595929178,15.649465443868962,29.407881522598473,45.16199569082984,51.011016380903115,33.255114068221474,129.16735458793966,99.78451862813893,74.33496085837737,58.68549541450852,70.42259449741016,31.298930887737924,64.5540449559594,31.29893088773781,13.693282263385413,25.729572595750703,25.43038134628705,25.43038134628705,76.29114403886115,58.68549541450858,86.27189215645875
230,72,381,0,12.699999999999958,50.86188750990209,164.77077325412404,15.638249063726334,29.386804126726243,43.18252664638683,49.02566140028671,33.23127926041832,129.07477697522344,99.71300046048671,74.28168305269992,56.68865285600782,70.37212078676828,30.299107560969674,65.48516795435398,32.25388869393555,14.66085849724334,25.487227727350554,25.412154728555265,26.389545295038147,76.23646418566568,56.68865285600782,82.47230634875089
231,72,382,0,12.733333333333292,49.350382997471,162.30199822060217,15.91502030811446,27.706625330225304,43.47317787268072,47.54058434909349,37.50629107807799,130.344816033211,102.6677757967092,77.97360513600415,63.168490236762864,75.01258215615599,31.584245118381432,61.194474916864124,29.610229798482578,15.792122559190716,27.91679237733197,25.66219915868487,25.66219915868487,78.96061279595364,59.22045959696527,85.24912633663324
232,72,383,0,12.766666666666625,43.999450010312216,156.203040992324,18.110543895891038,30.06621693138308,42.189518853768305,48.04104808850923,37.99952500890606,130.05989816454658,100.01874777386655,77.99902501828092,67.99915001593718,75.99905001781212,33.99957500796859,57.99927501359343,23.999700005624845,13.999825003281217,28.28391770070027,25.999675006093526,25.99967500609364,81.99897501921834,59.99925001406217,90.35372657008872
233,72,384,0,12.799999999999958,22.1114612553726,152.35327893749343,18.127773037280917,30.028164612680825,40.0875685176291,44.04130809859862,46.08668427133659,116.1261594525745,86.10401305686014,75.07041153170223,68.0638397887434,76.07135035212502,26.024409330990125,44.04130809859862,12.01126584507233,8.00751056338163,28.310825098950065,28.097691640357084,28.026286971835475,82.07698327466113,60.05632922536182,86.45237865917673
234,72,385,0,12.833333333333291,20.219399710948824,151.10736093064295,16.095243740892215,28.23843889610779,40.28837559213169,42.2978902061023,50.29763669028807,114.74918311386153,86.53532619467906,76.45240776923788,70.41669136640337,78.46431323684942,24.14286561133838,40.23810935223037,10.059527338057592,8.047621870446164,28.452639985088027,26.23203792698679,27.160723812755464,80.47621870446096,62.36906949595726,92.89688917186703
235,72,386,0,12.866666666666625,23.99970000562496,152.11647351441638,16.124313943932478,28.07098681009425,37.999525008906176,43.99945001031233,48.04104808850935,116.01578990987521,87.99890002062466,75.99905001781212,71.99910001687465,77.99902501828092,26.999662506328036,40.99948750960914,10.999862502578026,10.99986250257814,30.265113589287704,27.99965000656232,27.99965000656232,77.99902501828086,61.999225014530964,90.19865079414934
236,72,387,0,12.899999999999958,29.98238554772425,153.77576436294223,20.043458067693173,29.98238554772412,41.92982980789544,46.044267618073484,43.876769635092046,123.79738453477404,93.82156477142723,78.77874548118814,69.80395169219196,77.78154617129962,29.915979296653745,49.859965494422795,15.95518895821533,9.971993098884582,28.205055768666856,27.92158067687683,27.92158067687683,81.7703434108534,63.82075583286115,90.10180003292591
237,72,388,0,12.933333333333293,41.849092240847995,159.73618698606666,18.04569752011043,31.947237397213325,42.03845561627945,47.86903294224132,39.90606757366694,131.5408146800062,99.64069581154297,78.71614969111897,67.75567315184924,77.7197427330035,32.881429617809204,58.78801052881033,24.91017395288577,12.953290455500564,28.182644676195174,27.89939482723196,27.899394827231845,77.7197427330035,59.784417486925804,87.88738651073301
238,72,389,0,12.966666666666624,53.88628520714974,160.11148994708265,18.072632082009463,30.003277638837506,44.088405480598844,48.064948134938376,39.91576682011089,141.7571804532755,111.78196521473316,84.8210044927356,69.85259193519403,81.82732198122733,35.92419013809979,65.86101525318293,29.93682511508314,15.966306728044401,28.224709394761373,27.94103677407759,27.941036774077475,77.83574529921611,61.86943857117177,95.88096215428868
239,72,390,0,12.999999999999956,63.26638824973581,156.56229316577074,17.784989737319393,31.67945278100824,45.622041369567,49.56058593211191,31.617759533012304,144.31015771287554,112.65560130073318,81.020508803344,65.21162903683785,77.0682888617174,39.522199416265266,73.11606892009092,37.54608944545214,19.761099708132633,27.946415214648194,25.68942962057247,25.68942962057247,77.0682888617174,63.23551906602455,95.03835834302507
240,72,391,0,13.03333333333329,61.84865596278087,159.92086808219878,18.06656129093991,33.97563414849856,45.931064139646466,52.026310543369405,31.984173616439794,145.6572737529917,111.72660431986219,80.80227633847176,67.83400976563064,77.80959943704693,40.89991765280661,72.82180460133884,34.91456384995695,22.943856244257404,28.21522841197176,25.936533145682233,25.936533145682233,75.81448150276367,63.843773897064125,91.86212827929248
241,72,392,0,13.066666666666624,55.58672043687909,155.16654249719977,17.867160140425426,33.807419254798276,43.72037615325476,49.670689321155315,33.74908026524804,140.96602097801676,107.20296084255256,79.40960062411307,69.48340054609889,79.40960062411295,40.69742031985788,66.50554052269467,28.78598022624101,20.845020163829645,28.075533546312947,27.864171442041577,27.79336021843949,81.39484063971582,63.5276804992904,87.55336117777605
242,72,393,0,13.099999999999955,37.732109701669515,154.95115198698946,17.98309396963523,29.78850765921277,45.71886311108973,47.7029672406158,39.76762673408011,125.1117321686936,95.32322450948084,76.45716965864608,73.47831889272481,77.45011991395313,35.746209191055414,49.64751276535458,15.887204084913378,15.887204084913492,27.873441931296565,25.816706637984453,26.809656893291503,77.45011991395324,65.53471685026813,87.46984409401844
243,72,394,0,13.13333333333329,24.076867719656434,152.50002835700275,18.05765078974241,30.09608464957057,42.13451850939873,46.19092671626128,40.17824169621499,112.37662893327214,82.28709609911942,70.22419751566463,72.23060315896942,74.23700880227409,33.10569311452775,39.12491004444166,9.028825394871092,15.048042324785342,28.16124518341722,28.089679006265897,28.089679006265897,72.23060315896942,64.20498058575055,90.31054459315656
244,72,395,0,13.166666666666623,28.176846196752127,150.57717056415277,20.075171694816504,32.1202747117062,40.15034338963278,44.16537772859601,36.13530905066955,116.4533007264906,84.33961674606267,70.26310093185748,70.26310093185748,72.2706181013391,35.13155046592874,45.169136313336935,11.041344432149003,15.056378771112236,28.390580077777972,26.174821519540558,26.09772320326124,78.293169609784,68.2555837623758,90.4274515947138
245,72,396,0,13.199999999999957,35.92419013809979,147.7018216751808,18.072632082009463,33.98705076359468,37.972462903502695,43.95267892308065,35.979585992343495,123.88364805884133,89.89913328919266,71.84838027619946,71.84838027619946,73.84416861720501,36.92208430860251,50.89260269564136,14.96841255754157,16.96420089854712,28.012224244291104,27.94103677407759,27.94103677407759,81.82732198122721,69.85259193519397,85.91167587807574
246,72,397,0,13.23333333333329,37.795981193136846,147.05561718048534,19.86512668241187,31.78420269185915,39.77988518100789,43.74840342029795,33.82909174828669,123.22784982302666,91.46591207600467,72.50771239080359,69.52794338844183,73.50096872492418,37.74374069658268,51.64932937427102,17.878614014170694,15.892101345929518,28.09353157252658,27.811177355376685,26.817921021256097,79.4605067296477,65.55491805195936,81.66476022146782
247,72,398,0,13.266666666666625,37.424910109368525,143.6455817354967,17.812029544349237,31.533562819910394,39.340192101454704,41.307201706527394,37.424910109368525,123.98403414375356,92.4703747048261,73.76286019022757,70.81234578261842,74.7463649927638,35.40617289130921,51.14224973189107,15.736076840581859,17.70308644565455,27.81771660812014,25.57112486594542,26.554629668481766,78.68038420290924,66.87832657247282,63.22031295715922
248,72,399,0,13.299999999999956,29.4962294348353,143.60218086865672,19.76222914080935,31.46264473049098,37.41360260153889,43.30580470063426,39.328305913113695,119.96745011038503,88.51053466659766,73.7405735870883,68.824535347949,72.75736593926047,31.462644730491093,49.16038239139209,15.731322365245433,11.798491773934188,27.80931180374172,27.52981413917962,27.52981413917962,80.62302712188307,64.89170475663758,71.03632729146526
249,72,400,0,13.33333333333329,19.865720958474277,146.2901261737191,19.865720958474164,29.716514133882146,39.5342623280319,41.51097544443337,47.44111479363801,116.6428244708489,86.9753771216698,77.09181153966188,73.13838530685871,75.11509842326029,26.68562707142155,42.49933200263399,10.871922140208653,8.895209023807297,27.744490708556118,25.6972705132207,25.6972705132207,79.0685246560634,65.23153284125226,67.32442278759403
250,72,401,0,13.366666666666625,17.70308644565455,145.57200077411116,17.70308644565455,29.570638372164687,39.38933664541467,43.274211311600084,49.17524012681838,114.10351281358005,84.58141301812748,75.72986979530015,70.81234578261842,72.77935538769111,22.620610458336387,42.29070650906374,10.818552827900021,6.884533617754528,28.163291555177327,25.571124865945535,25.571124865945535,78.68038420290924,64.91131696740013,68.95764512035667
251,72,402,0,13.399999999999956,17.72990068357733,146.89770167748807,17.621459906786185,31.32703983428644,39.15879979285796,43.07467977214378,46.990559751429714,113.57739693811982,82.25678507193591,73.42274961160899,68.52789963750172,72.44377961678754,23.495279875714914,43.074679772143895,9.789699948214547,5.8738199689287285,27.689452876656397,25.453219865357823,26.432189860179278,80.27553957535912,64.6120196582159,68.63969073895704
252,72,403,0,13.43333333333329,25.722409699934133,150.4942755219031,19.786468999949307,31.72012284968174,41.598668863894325,45.50887869988355,43.5302317998885,120.71367822739577,89.03911049977194,76.17790564980487,67.27399459982769,73.2099352998124,26.711733149931547,50.45549594987074,14.839851749962008,6.92526414998224,27.982292811203056,25.722409699934133,25.722409699934133,79.14587599979723,65.29534769983275,63.34760961339446
253,72,404,0,13.466666666666622,43.286250610263096,149.7412883064092,15.74045476736842,31.48090953473684,41.36551382895426,45.296560236107574,39.40029513486226,129.8736567090974,98.39751589734834,76.73471699092102,64.92937591539476,72.79960329907897,29.513352688815758,60.994262223552596,25.57823899697371,13.772897921447338,25.879169808052776,23.61068215105263,24.59446057401317,76.73471699092102,62.96181906947368,62.992554643220096
254,72,405,0,13.499999999999956,45.25380745618418,151.70616089921523,17.7080116132895,31.5423357580921,41.36551382895426,45.29656023610757,39.35113691842105,133.8083320702786,102.31295598789472,79.68605225980264,66.89693276131584,74.76716014500005,31.48090953473684,62.96181906947368,27.54579584289479,13.772897921447338,25.879169808052627,25.57823899697371,25.57823899697371,78.70227383684215,64.92937591539476,68.97682979546802
255,72,406,0,13.533333333333289,39.75440033178504,151.20440837261864,17.867160140425426,31.825818533456964,41.73728118171341,45.832824821524376,41.6900403276594,131.08598601391796,99.28185119545427,79.40960062411307,65.51292051489327,75.43912059290744,28.785980226240895,60.549820475886236,24.815500195035384,10.918820085815469,26.111755591730503,23.822880187233864,24.81550019503527,79.40960062411307,63.527680499290454,71.71636622845354
256,72,407,0,13.566666666666622,23.814375942920037,149.17023817329644,17.9706954989613,29.834047634659306,37.75828363505189,41.863734238306165,45.644220557263566,117.15460131999305,87.34192703837117,75.41219048591358,65.48953384303024,75.4121904859137,24.80664160720835,46.63648622155188,12.899453635748387,6.945859650018292,28.06551119827424,25.798907271496773,25.798907271496773,79.38125314306694,61.520471185876886,69.57190586832968
257,72,408,0,13.599999999999955,15.960943474265946,147.85425824023156,17.956061408549317,31.984173616439808,40.101374178028536,43.937914746535775,43.93791474653588,109.80401216110133,77.8351736692697,69.8291276999139,63.843773897064125,71.82424563419715,23.94141521139909,41.89747661994829,7.980471737132916,3.990235868566515,26.241679327052754,25.936533145682347,26.934092112824032,79.80471737133007,61.848655962780754,59.98639843177467
258,72,409,0,13.633333333333288,15.892101345929518,149.10759323998292,17.988637292713072,31.84622070730323,37.79598119313673,43.74840342029795,43.7032787013062,109.3304097133988,77.4994579878333,69.52794338844171,63.568405383718186,69.52794338844171,22.844895684773746,42.71002236718573,8.939307007085404,4.966281670602939,28.09353157252658,27.811177355376685,26.817921021256097,79.46050672964776,61.58189271547701,59.72766740212462
259,72,410,0,13.666666666666622,13.981399634375043,148.50589625246235,19.772684983891395,31.698025390922524,37.62009886655513,43.54482169719154,43.49990696456109,108.821644330956,77.13881686807852,70.19303169281443,63.27259194845249,71.18166594200909,23.727221980669697,41.522638466172,5.931805495167396,3.9545369967783017,27.962799268750004,25.70449047905879,25.70449047905879,77.11347143717649,61.29532345006339,59.44972671180858
260,72,411,0,13.699999999999957,12.086913588046155,153.2111896189404,19.870763535221272,33.78029800987622,39.79117296996212,43.76081730089721,43.71567977748691,109.30726228153068,75.5350426502842,69.54767237327462,63.586443312708184,71.5347487267968,23.84491624226564,41.72860342396473,5.961229060566325,3.974152707044368,28.101503286218687,25.83199259578771,24.838454419026675,75.508901433841,59.61229060566393,57.65946401103621
261,72,412,0,13.733333333333288,13.913140093897255,155.08308798402962,17.99840600444314,33.78905451375067,41.73942028169199,45.71460316566254,43.77216094760301,109.31752930919322,75.52847479544255,68.57190474849392,63.60292614353057,67.57810902750123,21.86350586183869,43.727011723677265,7.950365767941321,3.9751828839706604,26.14268377699254,25.91502181830188,24.844893024816656,77.51606623742788,61.615334701545294,57.77706448508842
262,72,413,0,13.76666666666662,17.998406004443115,153.09615808021763,17.888322977867915,31.801463071765284,41.7867170903862,45.75779127464805,43.772160947603005,111.30512075117849,79.50365767941321,70.5594961904792,65.59051758551584,69.5657004694865,23.851097303823963,43.727011723677265,9.937957209926594,5.9627743259560475,25.91502181830199,25.83868874580935,26.83248446680193,79.50365767941321,63.60292614353057,69.82078028404314
263,72,414,0,13.799999999999956,17.878614014170694,153.07752632724834,17.988637292713097,31.78420269185915,39.779885181007884,45.73295603800239,43.74840342029784,111.24470942150685,79.4605067296477,70.5211997225623,63.568405383718186,69.52794338844171,22.844895684773746,44.696535035426905,8.939307007085404,4.966281670602939,25.900956329527034,23.920780176595386,24.831408353014922,77.47399406140659,61.58189271547701,65.82524875781986
264,72,415,0,13.833333333333288,25.838688745809236,155.08308798402962,17.88832297786803,31.86351476603144,39.751828839706604,47.702194607647925,41.73942028169188,117.2847378628697,85.46643200536914,72.54708763246447,65.59051758551584,69.5657004694865,25.83868874580935,49.6897860496332,15.900731535882642,9.937957209926708,24.18009349769964,21.863505861838576,22.85730158283127,75.5284747954426,61.615334701545294,59.66086058688945
265,72,416,0,13.86666666666662,39.54536996778279,152.45496646230538,17.90492777442034,31.698025390922524,43.54482169719153,47.495619191612015,39.59477082398052,128.65926739311536,96.96682767269702,77.11347143717649,67.22712894523079,75.13620293878739,31.6362959742263,57.34078645328509,21.749953482280603,13.840879488724,19.871302478371433,21.749953482280603,20.761319233086056,73.15893444039818,61.29532345006339,69.31729213113701
266,72,417,0,13.899999999999954,33.662211393797136,142.66611098779592,19.767131164015836,33.66221139379701,41.698808871795926,45.507353412538315,41.69880887179581,128.72941043776206,95.06736582105115,78.08016809786261,69.18495907405543,79.06852465606346,32.61576642062619,54.35961070104361,18.7787746058151,12.84863525661035,19.865720958474277,19.76713116401595,18.778774605815215,73.1383853068586,61.27810660844909,67.32442278759426
267,72,418,0,13.933333333333287,23.830806127370238,141.22252241784128,17.98309396963523,31.836407073990287,37.78433409995313,41.75116729411862,47.702967240615905,121.28634352619888,89.45374167925581,77.45011991395313,69.50651787149638,77.45011991395313,25.81670663798434,47.661612254740476,13.90130357429939,7.943602042456632,20.252290911351178,17.98309396963523,17.87310459552782,69.50651787149644,59.57701531842554,63.67281414798078
268,72,419,0,13.96666666666662,21.966800302854267,147.89804481206232,19.96981845714015,32.01405438979293,39.9396369142803,43.93360060570831,45.9739746032364,119.8854583240577,87.88989125729833,76.88380105998965,67.89738275427669,73.8883282914187,24.96227307142533,48.92605521999337,14.977363842855084,6.989436459999183,18.08343972680894,15.975854765712143,15.975854765712143,73.8883282914187,61.90643721713457,70.00838484642306
269,72,420,0,13.999999999999954,31.97443067909728,151.99682609768524,18.09629902324381,32.036819871454774,42.01399432153321,45.963244101202235,41.9664402663152,123.96536669802205,91.94820739661253,75.939272862856,65.94726327563808,71.94246902796885,26.978425885488264,54.9560527296984,18.98481821571397,8.992808628496164,16.11163134312423,15.987215339548698,14.988014380826826,73.94087094541243,61.95045944075093,78.0400896402248
270,72,421,0,14.033333333333289,38.18324196137576,154.86001436872408,18.08679882380966,32.154309020105984,42.25035216863789,48.23146353015886,40.243096021473576,128.63293546846893,96.48385858428348,77.37130607963002,66.31826235396852,72.34719529523841,29.13984254947104,59.28450725582036,25.12055392195782,11.053043725661382,14.210331220302926,12.057865882539772,13.062688039418049,68.32790666772507,60.289329412698635,82.41992107775712
271,72,422,0,14.06666666666662,42.202530588888976,160.8845478795961,18.08679882380966,32.21704919492602,44.257825069584406,50.241107843915415,40.243096021473576,132.63652470793704,100.50231012172614,79.38095039338657,66.31826235396852,72.34719529523841,29.13984254947104,63.30379588333358,29.13984254947104,11.053043725661382,14.210331220302894,12.057865882539772,13.062688039418163,70.33755098148168,62.29897372645519,84.42898212516987
272,72,423,0,14.099999999999952,42.20625950410613,160.83598819044732,18.088396930331214,32.157150098366515,44.21608138525403,48.27757827919615,38.23946921449901,130.6538815282361,98.50177842783405,77.3781424241946,64.31430019673314,68.33394395902894,28.137506336070714,64.31430019673314,30.14732821721873,12.0589312868874,14.211586811367948,14.068753168035414,14.068753168035414,70.34376584017679,60.29465643443723,86.51577047436228
273,72,424,0,14.133333333333288,44.21608138525403,166.92414681586519,18.088396930331214,32.21989581675916,44.261735585733064,50.285727400595654,36.23257923514146,130.6384222746142,98.50177842783405,76.37323148362066,62.30447831558524,68.33394395902894,29.142417276644665,65.3192111373071,29.142417276644778,11.05402034631345,16.203702033984737,14.068753168035414,15.073664108609364,68.33394395902889,62.30447831558513,84.43644206920219
274,72,425,0,14.16666666666662,48.2387698516809,166.8741712085434,16.079589950560262,32.159179901120524,46.27249501567186,50.2889015036383,36.2348662844879,132.67184310274263,100.51753466889318,76.37805226516139,64.31835980224116,68.3382572898812,30.149231157300505,66.32830854606118,32.15917990112064,14.069641206740243,16.204724833546006,14.069641206740243,14.069641206740243,70.34820603370127,62.30841105842114,88.46058210605496
275,72,426,0,14.199999999999951,60.29465643443723,164.85440701186778,18.088396930331214,30.147328217218615,46.22590326640193,52.255368909845856,34.22603334076083,142.7115065348626,112.56796875218403,82.40269712706436,68.33394395902894,72.35358772132474,36.176793860662315,72.35358772132474,38.18661574181033,20.098218811479114,16.203702033984623,16.203702033984737,16.078575049183314,72.35358772132474,64.31430019673309,82.42720350593389
276,72,427,0,14.233333333333286,74.35683960899496,162.89279805915345,16.077154510052992,30.144664706349317,44.257825069584634,52.2893848817358,34.2230094770485,154.75566124746103,124.61415320799664,87.41952764841301,70.33755098148174,76.36648392275163,39.18806411825415,81.39059470714312,47.226641373280586,23.110909608201155,18.19810325173402,16.202270439908453,17.08197666693127,70.33755098148168,62.298973726455245,84.4289821251701
277,72,428,0,14.26666666666662,77.99122648050366,160.09445086426496,15.998200303693011,30.063210835749175,44.04047681611083,52.03259398743873,32.05883266793715,155.9824529610073,126.00169762246915,86.99021415133097,67.99235129069541,73.9916764045804,38.99561324025183,84.99043911336935,50.994263468021586,22.997412936558817,18.1087331583759,17.99797534165475,17.99797534165475,69.9921263286571,63.992801214772214,86.01357668729236
278,72,429,0,14.299999999999953,75.98480455848062,160.0804475884545,15.996800959680058,29.994001799400166,43.9912026391205,52.02804275683212,32.05602851905138,153.98219310583457,123.99133219631155,85.9828051582806,69.98600419860054,75.9848045584805,40.991802459180235,80.98380485838061,46.99060281906043,24.995001499500177,16.121291560646384,15.996800959680172,16.996601019660147,71.98560431856055,63.98720383872052,84.00700642891826
