,video_id,frame_seq,time_seconds,m1,m3,m4,m5,m6,m7,m8,m9,m10,m11,m12,m13,m14,m15,m16,m17,e1,e2,e3,b1,b2,b3
0,152,0,0.0,17.461372848933564,144.75314151147447,14.603199537393834,21.282463436169195,38.704797278804755,39.067379409736525,43.99025751723728,97.23893584900847,75.96169934486647,67.04196151258071,83.63650644143735,63.7230525268094,29.870180871941898,23.232362900399266,4.646472580079887,17.922108523165093,18.633242983868296,20.08968260569949,19.24967211747372,53.102543772341164,75.67112487558614,80.05109401157341
1,152,1,0.0333666666666666,3.024303420114235,159.53881353174705,18.935134489489315,27.185106641223413,42.469663103061364,43.80544560801382,46.163988174994884,93.80217242789054,66.61710518357047,65.59671591001643,77.09304756434926,56.80540346846789,20.963898899077435,26.373937324645794,0.6762548031960591,7.43880283515648,4.876542736404243,3.0243034201142094,2.0287644095881205,66.27297071321252,75.74053795795717,77.28264034390352
2,152,6,0.2001999999999996,13.857120763536823,161.77181655341852,17.403349827403044,23.58523971306888,47.46333665716737,49.48481881886011,51.59983071830517,106.131247204384,82.58130618455694,73.86631574201533,102.70935331746898,66.12793980713752,33.76745862492129,18.29070675516573,0.0,22.511639083280897,13.347760006281105,11.602233218268733,11.959308262992977,33.76745862492129,71.75584957795778,63.18879649490468
3,152,7,0.2335666666666662,11.198425722148164,157.56929408421252,20.2771565451282,25.040441155705437,49.04389874082678,52.19152602488337,48.368563254365526,103.63194288323074,78.59850660332812,71.69057448120657,97.49918129444109,55.918648095341155,29.39313553729471,23.65788957879829,2.150717234436229,16.48883213067745,16.347966246942264,13.219088771967039,13.621209151429298,38.71291021985161,81.72725490857565,72.60241493410014
4,152,9,0.3002999999999994,27.021659557244423,163.5177028580406,15.51640373472024,24.25042130577637,47.118061777035464,51.26999421512982,52.14777281252959,118.83553397378572,94.63317295580686,80.7753783111391,88.50171884524809,63.21551346089154,23.881416196336772,42.143675640594324,19.667048632277442,14.047891880198108,17.08999807170993,14.326094964394368,14.047891880198108,44.953254016633934,78.6681945291094,59.814993250984806
5,152,10,0.333666666666666,29.63991019953393,159.85680556330234,14.328922959924007,25.640057499625783,47.39887228574262,51.52974818961771,53.687515421283585,123.2139975206578,97.5990379715298,82.19639000409768,92.73438872257168,64.63305880664086,25.29119692433767,43.55706136969275,21.075997436948114,18.265864445354964,18.48076436099235,15.709120987542466,14.753198205863725,44.96212786548932,74.46852427721666,59.8268008324604
6,152,11,0.3670333333333326,33.548928814806864,157.0683512031194,12.614544917708981,22.46215063249715,43.54235789979253,49.07389756968993,51.56142897706057,120.09294964937854,97.67211643393443,80.79651986813354,82.1895633141358,64.07999851610595,21.592173413035653,46.66695544107711,25.771303751042637,11.840869291019544,18.163064367459974,17.23099580682573,16.019999629026472,44.57739027207367,71.04521574611744,56.155376581242926
7,152,12,0.4003999999999992,35.18055215205263,147.3945866657602,14.02740475700125,22.618510538130597,42.66268602660699,46.81876181804127,52.203811799540524,123.95019974023063,101.34739264585859,83.46305830415719,86.96990949340744,65.92880235790568,24.54795832475213,46.99180593595406,24.54795832475213,14.728774994851278,19.688400796077335,17.065074410642758,16.83288570840142,49.095916649504204,74.34524521210636,59.51323815674385
8,152,13,0.4337666666666658,29.54690788491849,153.59411476946048,15.407235395926477,25.25071692416218,45.16985561842469,49.3421334431197,49.102994070433795,119.26171108545878,94.0111640973425,79.13716362453152,79.83749250616455,63.02959934697202,22.410524212256632,47.6223639510456,22.410524212256746,11.205262106128316,22.45425210595847,19.808292050540004,19.60920868572458,51.82433724084365,77.0361769796325,61.02111469217464
9,152,14,0.4671333333333324,29.061185757712455,144.9593935808227,11.021058609529291,16.759620588566445,37.828489302770635,40.79745965802738,50.99100932369004,107.67586952076842,91.01761453816773,76.45859410360981,79.90267491908787,57.86055770002906,17.909220240485183,38.573705133352746,23.419749545249942,11.021058609529405,20.71035506005917,19.48266319663148,18.598036403580807,53.72766072145561,79.90267491908781,60.01798753761046
10,152,15,0.5004999999999991,27.047672855168113,145.4305466508235,12.156266936385805,20.439744361537294,42.21871401135932,44.75678564455962,50.43001594988566,109.93871587540212,89.5135712891192,75.63899427084533,83.74317222843587,67.5348163132548,25.663230199036775,33.76740815662731,12.156266936385805,17.55905224144624,20.305418189922616,20.439744361537365,19.585096730843873,51.32646039807355,72.93760161831511,70.70221177766429
11,152,16,0.5338666666666656,21.067055586501073,141.35265135586206,14.455395040040457,21.06705558650118,42.236453104611684,43.68359967692614,43.86113592314307,100.29637677812306,79.24086665813154,68.33459473473675,82.78998977477721,68.33459473473675,32.196107134635554,24.31134620370449,3.285317054554639,20.368965738238785,18.584559740987267,17.532638594405284,17.083648683684203,63.07808744744932,85.41824341842096,81.23174791878265
12,152,17,0.5672333333333321,17.11248623444942,137.9652747363413,13.229104478796826,17.313816527856964,38.377724628567826,38.377724628567826,46.3719811048938,93.91363501593855,76.63118544147373,67.79177239031844,82.9297409823314,65.81725474788198,28.301419541589325,19.087003876885774,0.6581725474787845,16.454313686970522,15.850893959261752,14.717185570868503,13.821623497055157,64.5009096529244,86.87877626720427,85.2682793320229
13,152,18,0.6005999999999987,6.503489041614557,136.02712355503198,16.959024560921,22.15008552324456,43.10003060157236,44.52872030736,43.1000306015723,88.68622752203363,66.53930644140678,63.083843703661046,74.13977507440586,59.83209918285377,24.06290945397376,21.461513837328084,1.951046712484299,9.755233562421722,18.256163708443086,18.20976931652075,16.909071508197826,61.13279699117675,83.24465973266624,81.4884841260462
14,152,19,0.6339666666666652,5.360760897334246,140.63548241948394,16.95221442714424,22.141190846251718,44.37771524029076,45.58037751348352,42.92548644024807,87.15056072546014,65.02177520029811,62.40842375545395,72.80982771469627,65.00877474526459,26.003509898105847,18.202456928673996,5.200701979621158,13.001754949052952,15.656186190930121,14.360907726929076,14.301930443958213,54.607370786022216,78.01052969431748,82.93652245012437
15,152,20,0.6673333333333318,9.326163233808323,136.92637160990418,18.511905450674877,22.42161710126686,42.39046407991708,43.703798024582085,44.86262587228442,95.04453968600902,72.6483572964282,67.92431063030836,77.81620052792607,60.67025803872207,24.399995080790404,25.718913733806062,1.9783779795235432,8.572971244602059,17.196595310013134,18.652326467616493,17.80540181571189,52.756746120627895,72.54052591586333,83.60321458251396
16,152,21,0.7006999999999983,12.11133036098704,140.4762213067298,10.84940744945245,21.57326621791528,41.803533993796925,43.25133349484913,51.136728190834276,95.58283913495023,74.02591819551697,67.95802035887192,82.0879057800235,69.97657541903646,24.89551240869571,19.51269891492359,2.0185550601645446,15.475588794594614,20.230357650344963,19.031119616543304,18.83984722820219,55.173838311163365,75.35938891280847,81.1449091561502
17,152,22,0.7340666666666649,2.568049583738002,129.91513854134365,15.408297502428184,20.584483335670807,37.258850745628976,37.325167352383836,46.24272274613753,84.74563626335504,64.21407855760138,62.917214801581736,70.6213635527958,62.917214801581736,20.544396669904245,17.976347086166243,2.568049583738059,6.420123959345062,19.260371878035187,21.866154284165685,21.186409065838745,57.781115634105674,78.32551230400992,73.73925317570563
18,152,23,0.7674333333333314,1.9667242693130453,153.4864179751438,20.86026101333107,23.682496299339093,46.08182276099967,47.46696256083384,45.91364036503931,91.87991890048353,68.2002583036504,67.44817727643715,75.09693964799192,62.58078303999321,22.946287114664187,22.946287114664187,0.6953420337777061,6.258078303999355,22.25094508088648,20.90656575624157,20.86026101333107,63.971467107548676,82.05035998576895,84.00698744343052
19,152,24,0.800799999999998,7.01808389919424,142.1919913828539,19.269032865397094,24.81267358028217,38.63625204465504,41.382440284303186,48.349218828430175,99.336547213234,74.5270386500235,70.88251375485356,78.45249095197391,67.44161502888983,24.774470826939137,26.150830317324562,1.3763594903854255,8.258156942313121,20.691220142151597,20.82809850445558,20.645392355782633,61.936177067347785,78.45249095197389,85.73294543805252
20,152,25,0.8341666666666645,23.213723366963865,145.01451142722212,19.084194823822997,25.935826427999885,42.45527642692775,43.81229129980632,47.72995675514829,115.87634400788177,89.96834702659402,78.38151445498721,84.51571993407316,72.24730897590126,30.671027395429803,37.48681126108079,11.586832571606806,14.31314611786729,20.447351596953126,20.628305138375943,20.447351596953183,64.06836833711992,81.78940638781265,82.07290604684381
21,152,26,0.867533333333331,36.335879820420985,149.57503055093653,14.793363730653596,22.862471220101042,37.75177353923985,43.22394592043365,48.48930133405516,122.38885265945876,99.52807878779937,81.36350051859466,80.69107489447396,71.27711615678533,27.5694505889453,46.39736806432256,22.190045595980337,14.120938106533004,20.21754739963522,19.01906874637138,18.827917475377262,60.51830617085548,78.00137239799153,81.23836647016309
22,152,27,0.9008999999999976,37.22809469315822,145.22087814180108,17.2734598095779,25.24582587553698,39.950313968814946,43.92846850082051,46.52444666979969,126.22912937768473,100.98330350214775,82.38111601490999,78.39493298193048,67.76511156065186,26.57455355319678,53.14910710639356,26.57455355319678,10.629821421278734,19.930915164897613,19.024485130556325,19.266551326067656,58.46401781703295,78.39493298193054,77.4774716978403
23,152,28,0.934266666666664,35.256870763792904,150.81872519133697,14.977879458554183,23.09241824192938,42.12443340255755,46.18483648385886,47.538596657938214,120.68698069144506,97.64382779104156,80.00597596399172,77.29390898216144,67.8016745457557,25.08661958192954,48.13918892748654,25.086619581929654,12.882318163693526,19.032837024764216,17.83583587409438,18.306452127353964,56.95340661843477,82.7180429458219,82.08204127312675
24,152,29,0.9676333333333308,31.659835359956347,151.0839838971019,18.49923880015563,23.760874802319357,41.04938100274795,45.121606246893116,44.81255051212071,118.68733975192572,94.93377029155732,79.08097149197778,81.71700387504364,65.9008095766481,28.99635621372522,44.812550512120765,22.406275256060326,13.18016191532962,18.499238800155574,18.871119988869985,17.793218585695,55.35668004438446,81.7170038750437,78.47455565119265
