,video_id,frame_seq,time_seconds,m1,m3,m4,m5,m6,m7,m8,m9,m10,m11,m12,m13,m14,m15,m16,m17,e1,e2,e3,b1,b2,b3,label_measures
0,246,0,0.0,3.5712862238898424,150.16398635467652,25.252807064706047,32.14157601500858,39.28414846278838,39.44614563857088,39.44614563857087,99.9960142689157,67.85443825390712,66.06879514196226,78.56829692557665,71.42572447779696,35.712862238898424,24.999003567228897,7.142572447779685,10.713858671669527,28.570289791118853,28.57028979111874,28.57028979111874,67.854438253907,74.99701070168669,78.64942064045061,"{'others': ['m1', 'm3', 'm12', 'e1', 'e2']}"
1,246,1,0.0333666666666666,7.141718566753184,153.54694918519317,28.789187925486743,32.13773355038927,39.27945211714223,42.85031140051888,39.44142992646899,107.12577850129765,74.98804495090837,71.41718566753173,78.55890423428491,78.55890423428491,39.279452117142455,28.566874267012736,3.570859283376535,10.71257785012972,24.9960149836362,24.996014983636087,26.78144462532441,67.84632638415519,71.41718566753173,78.64001825097255,"{'others': ['m1', 'm3', 'm12', 'e1', 'e2']}"
2,246,2,0.0667333333333332,18.046800159784624,155.76803652398198,28.31414959158508,35.39268698948115,38.9319556884293,42.61843877814283,39.09250051671261,120.33513576423616,84.94244877475501,76.09427702738469,81.40318007580686,84.94244877475501,44.24085873685169,37.16232133895517,1.7696343494740177,15.926709145266614,17.69634349474063,17.69634349474063,17.69634349474063,67.24610528001426,70.78537397896241,81.40318007580663,"{'others': ['m1', 'm3', 'm12', 'e1', 'e2']}"
3,246,3,0.1000999999999998,35.08636943311353,157.92764249217964,24.560458603179427,35.08636943311353,42.10364331973642,42.24958359552854,38.59500637642486,133.32820384583135,98.24183441271782,80.69864969616106,84.20728663947239,87.71592358278372,47.36659873470319,47.3665987347033,8.77159235827844,22.80614013152376,14.034547773245436,10.525910829934103,12.28022930158977,66.66410192291562,66.66410192291562,80.69864969616128,"{'others': ['m1', 'm3', 'm12', 'e1', 'e2']}"
4,246,4,0.1334666666666664,41.73755248531097,156.55446293192824,20.868776242655485,31.303164363983228,41.88222381159829,45.215681859087,38.25942311153494,132.16891620348463,100.8657518395014,79.99697559684591,83.47510497062183,86.95323434439774,46.9547465459749,46.95474654597479,15.651582181991555,22.6078409295435,13.912517495103655,10.434388121327745,12.173452808215645,66.08445810174226,66.08445810174226,79.99697559684591,"{'others': ['m1', 'm3', 'm12', 'e1', 'e2']}"
5,246,5,0.166833333333333,38.25942311153506,153.19570765854493,24.3469056164314,31.49580103980957,41.73755248531097,45.34925875825196,34.78129373775903,128.73777999790988,97.38762246572549,78.25791090995801,79.99697559684591,86.95323434439774,48.6938112328628,45.215681859086885,10.434388121327745,24.3469056164314,13.912517495103655,10.434388121327745,12.173452808215757,69.56258747551817,69.56258747551817,76.51884622307034,"{'others': ['m1', 'm3', 'm12', 'e1', 'e2']}"
6,246,6,0.2001999999999996,31.029871051520672,155.30251359228927,20.686580701013668,34.47763450168952,41.37316140202756,44.95333555382269,37.9253979518586,124.11948420608246,89.64184970439294,74.12691417863255,75.85079590371708,82.74632280405501,41.37316140202745,44.82092485219641,10.34329035050689,20.68658070101378,13.791053800675854,13.791053800675854,13.791053800675854,65.50750555321008,65.50750555321008,79.29855935388582,"{'others': ['m1', 'm3', 'm12', 'e1', 'e2']}"
7,246,7,0.2335666666666662,27.5851819014041,151.87515357168627,20.688886426053045,34.48147737675504,41.37777285210586,44.82592058978162,37.92962511443068,120.68517081864286,86.20369344188782,72.41110249118583,75.85925022886124,82.7555457042123,41.37777285210609,41.37777285210609,6.896295475351053,20.688886426053045,20.974263857665267,17.58217260015826,17.24073868837752,68.96295475351019,68.96295475351019,75.8592502288609,"{'others': ['m1', 'm3', 'm12', 'e1', 'e2']}"
8,246,8,0.2669333333333328,31.303164363983228,149.60000097037835,17.39064686887957,31.303164363983228,41.73755248531097,41.73755248531097,34.78129373775914,114.77826933460516,83.47510497062194,67.82352278863027,76.51884622307011,79.99697559684603,43.476617172198985,36.52035842464704,5.217194060663815,22.6078409295435,21.156635030333725,20.868776242655485,19.12971155576747,69.56258747551817,66.08445810174226,73.12348256066201,"{'others': ['m1', 'm3', 'm12', 'e1', 'e2']}"
9,246,9,0.3002999999999994,24.13793103448279,151.72413793103465,20.68965517241384,31.034482758620584,37.931034482758605,41.379310344827445,34.48275862068965,110.34482758620686,79.31034482758628,67.24137931034488,75.86206896551721,75.86206896551721,41.37931034482756,34.48275862068965,3.4482758620690674,20.689655172413723,24.38299245470855,20.68965517241384,20.68965517241384,68.9655172413793,68.9655172413793,75.86206896551698,"{'others': ['m1', 'm3', 'm12', 'e1', 'e2']}"
10,246,10,0.333666666666666,24.13793103448279,148.27586206896558,20.68965517241384,31.034482758620697,41.3793103448279,41.3793103448279,34.654743521106504,110.39869374884228,79.38527195325067,67.24137931034488,75.86206896551732,75.86206896551732,41.37931034482767,34.48275862068965,3.4482758620689538,20.68965517241384,24.13793103448279,24.38299245470855,24.13793103448279,72.41379310344826,68.9655172413793,75.94039843291436,"{'others': ['m1', 'm3', 'm12', 'e1', 'e2']}"
11,246,11,0.3670333333333326,21.157434887993727,153.0434782608695,20.86956521739137,34.78260869565224,41.739130434782965,45.217391304347984,38.26086956521738,114.83529752500304,80.07557866588756,69.56521739130437,76.52173913043487,76.52173913043487,38.26086956521749,38.26086956521738,3.4782608695651334,17.39130434782612,24.347826086956506,20.86956521739125,20.86956521739125,69.56521739130437,66.08695652173913,76.60074972363536,"{'others': ['m1', 'm3', 'm12', 'e1', 'e2']}"
12,246,12,0.4003999999999992,34.48275862068965,151.76331782527848,20.68965517241384,31.034482758620697,37.931034482758605,44.82758620689674,34.654743521106504,120.73890620697657,89.72146090522546,72.41379310344837,72.41379310344837,75.86206896551732,39.65517241379314,46.551724137931046,12.068965517241397,18.965517241379303,24.13793103448279,20.97504320792492,20.68965517241384,72.41379310344826,68.9655172413793,79.31034482758628,"{'others': ['m1', 'm3', 'm12', 'e1', 'e2']}"
13,246,13,0.4337666666666658,35.08636943311353,157.92764249217942,21.051821659868097,31.5777324898022,42.10364331973642,45.74702879963642,38.59500637642486,126.31092995920868,94.73319746940648,77.19001275284973,73.6813758095384,77.19001275284973,36.8406879047692,50.87523567801463,19.29750318821243,15.7888662449011,24.560458603179427,24.56045860317954,24.56045860317954,73.68137580953828,66.66410192291562,73.76486748030143,"{'others': ['m1', 'm3', 'm12', 'e1', 'e2']}"
14,246,14,0.4671333333333324,34.77077944074199,156.6229680416653,20.862467664445266,31.29370149666784,41.72493532889075,45.202013272964905,34.94420086288844,121.74739045153734,90.47086871886576,73.01863682555825,69.5415588814841,76.4957147696324,38.24785738481626,48.67909121703883,17.385389720370995,17.385389720370995,28.033098596050287,24.58665392969053,24.339545608519416,73.01863682555825,69.5415588814841,76.57469849203525,"{'others': ['m1', 'm3', 'm12', 'e1', 'e2']}"
15,246,15,0.5004999999999991,35.06614013304443,154.4503258860531,17.533070066522214,28.052912106435542,38.57275414634887,45.72065301930328,38.73181772487546,119.27643315809154,91.23937431027896,73.6388942793933,70.13228026608886,77.14550829269774,35.06614013304443,45.58598217295776,14.026456053217771,17.533070066522214,28.271225999056018,28.052912106435542,28.052912106435542,73.6388942793933,66.62566625278441,77.46363544975092,"{'others': ['m1', 'm3', 'm12', 'e1', 'e2']}"
16,246,16,0.5338666666666656,38.57275414634887,150.9474127846371,17.533070066522214,28.052912106435542,38.73181772487546,42.22522429252388,35.06614013304443,119.22487645235104,91.17196434591553,71.88558727274108,70.13228026608886,77.14550829269774,38.57275414634887,45.58598217295776,14.026456053217771,21.039684079826657,24.79550547811346,24.5462980931311,24.5462980931311,77.14550829269774,63.11905223947997,77.46363544975092,"{'others': ['m1', 'm3', 'm12', 'e1', 'e2']}"
17,246,17,0.5672333333333321,45.13385579560486,142.7257838997022,13.88734024480152,27.990829122977253,38.19018567320427,41.66202073440445,34.718350612003746,121.5638146679057,93.73954665241013,71.1726187546077,69.43670122400749,79.8522064076086,39.92610320380436,46.86977332620495,15.623257775401612,26.03876295900284,27.99082912297734,27.77468048960293,26.038762959002725,76.38037134640831,62.49303110160679,72.99115221685153,"{'others': ['m1', 'm3', 'm12', 'e1', 'e2']}"
18,246,18,0.6005999999999987,49.15538055322439,136.98835956176532,17.510879277251547,31.51958269905265,38.5239344099532,42.17178179496753,31.71355119258829,129.58050665166104,98.0609239526084,73.5456929644563,73.5456929644563,84.05222053080718,47.27937404857914,50.78154990402925,19.2619672049766,29.7684947713276,28.2354444265082,28.23544442650832,28.01740684360243,80.55004467535684,63.03916539810541,77.36559333825063,"{'others': ['m1', 'm3', 'm12', 'e1', 'e2']}"
19,246,19,0.6339666666666652,56.5288096393208,130.91370870244504,21.490707822276352,31.993133917781577,38.86355662703318,45.92965783194813,28.2644048196604,137.9700366140295,106.05038590279916,77.72711325406613,81.26016385652372,88.32626506143879,56.52880963932091,52.995759036863205,17.665253012287735,35.330506024575584,31.993133917781464,31.993133917781577,30.03093012088925,81.26016385652372,67.12796144669358,78.04763879226942,"{'others': ['m1', 'm3', 'm12', 'e1', 'e2']}"
20,246,20,0.6673333333333318,64.32078094214373,128.64156188428746,21.407249885980264,35.678749809967144,32.308482077650275,39.40846722929877,28.542999847973647,149.8932178860649,114.22773383475148,82.0611245629243,85.62899954392105,92.76474950591444,60.65387467694416,60.65387467694404,21.407249885980264,35.678749809967144,28.76512771050124,32.110874828970395,30.32693733847202,82.0611245629243,64.22174965794079,82.37079028424985,"{'others': ['m1', 'm3', 'm12', 'e1', 'e2']}"
21,246,21,0.7006999999999983,60.27157412721722,131.38268831311723,24.77488089263693,38.9319556884293,35.569210214155014,42.61843877814328,28.314149591584965,152.2297027790726,113.3118859451108,83.17281442528088,88.48171747370304,99.09952357054748,65.47647093054024,58.39793353264406,19.465977844214763,37.16232133895528,28.534496491405115,28.534496491405,26.544515242110947,81.40318007580686,67.24610528001438,81.48008437267082,"{'others': ['m1', 'm3', 'm12', 'e1', 'e2']}"
22,246,22,0.7340666666666649,56.13171323564984,130.2305647687973,24.806946917841728,35.08232077228115,31.76839261326838,42.09878492673761,24.80694691784161,140.3292830891246,105.24696231684344,77.18110569901853,84.19756985347476,94.72226608515916,64.90229342872021,50.86936511980764,12.278812270298433,36.83643681089518,28.06585661782492,28.06585661782492,26.311740579210777,77.18110569901853,66.65640946733413,80.99382692526636,"{'others': ['m1', 'm3', 'm12', 'e1', 'e2']}"
23,246,23,0.7674333333333314,49.11524908119373,129.99408270556611,24.55762454059675,35.08232077228115,35.08232077228104,42.09878492673715,28.28427124746188,136.86602095592494,101.79919902964328,77.18110569901853,84.19756985347476,91.214034007931,59.63994531287801,49.11524908119361,10.524696231684288,35.082320772281264,28.28427124746188,28.06585661782492,26.31174057921089,77.18110569901864,70.16464154456241,84.27062632696196,"{'others': ['m1', 'm3', 'm12', 'e1', 'e2']}"
24,246,24,0.800799999999998,46.001490309107794,131.11845344547552,21.23145706574212,31.847185598613123,32.04317012902058,38.92433795386023,31.847185598613123,130.92731857207616,99.08013297346304,76.07938781890914,84.92582826296837,92.0029806182157,56.61721884197891,42.462914131484126,7.077152355247335,31.847185598613123,24.770033243365788,21.524318583855163,21.231457065742006,74.31009973009725,67.23294737484991,81.46414133450551,"{'others': ['m1', 'm3', 'm12', 'e1', 'e2']}"
25,246,25,0.8341666666666645,35.054019335324824,133.251389201243,24.53781353472732,31.548617401792285,38.55942126885748,38.55942126885748,31.74276457210816,122.73913462845428,91.2078369355954,73.61344060418207,80.62424447124693,84.12964640477946,50.82832803622091,40.31212223562352,5.258102900298695,26.29051450149359,17.874112862068074,17.527009667662355,15.774308700896086,73.61344060418207,63.09723480358468,77.19846965499049,"{'others': ['m1', 'm3', 'm12', 'e1', 'e2']}"
26,246,26,0.867533333333331,28.01616783889902,135.70222673052425,21.13746561984633,34.923096104289414,38.22475736315028,38.22475736315028,34.74977942104556,118.20034160152406,83.3994706105093,69.499558842091,76.44951472630021,83.3994706105093,45.174713247359136,38.22475736315016,3.474977942104601,24.32484559473187,13.899911768418292,17.374889710522666,15.637400739470422,79.9244926684047,69.499558842091,76.52845074601267,"{'others': ['m1', 'm3', 'm12', 'e1', 'e2']}"
27,246,27,0.9008999999999976,20.831010367202225,142.38757066628764,20.831010367202225,34.89151054211038,34.71835061200363,38.19018567320381,34.891510542110424,111.31550015860884,76.45923597386647,65.96486616280708,72.9085362852079,76.3803713464082,39.92610320380436,36.45426814260384,1.735917530600091,19.09509283660213,17.359175306001816,17.359175306001816,15.623257775401726,79.8522064076086,65.96486616280708,76.4592359738668,"{'others': ['m1', 'm3', 'm12', 'e1', 'e2']}"
28,246,28,0.934266666666664,20.831010367202225,145.98230443370397,20.831010367202225,31.438803615258337,38.34767164308671,41.66202073440445,34.891510542110424,107.85064366035982,76.45923597386647,65.96486616280708,69.43670122400749,76.3803713464082,38.19018567320416,34.718350612003746,3.471835061200295,13.88734024480152,17.359175306001816,13.887340244801408,13.887340244801408,79.8522064076086,65.9648661628072,73.23844084918929,"{'others': ['m1', 'm3', 'm12', 'e1', 'e2']}"
29,246,29,0.9676333333333308,20.841218375609287,142.45734613530246,20.8412183756094,34.73536395934889,34.73536395934889,41.682436751218574,38.36646349944031,114.67931832869397,79.96681311493346,69.47072791869778,72.94426431463262,76.41780071056746,36.47213215731631,39.94566855325127,5.210304593902379,15.630913781706909,21.128697036819847,20.8412183756094,19.10445017764198,79.89133710650242,65.99719152276282,76.73292699888063,"{'others': ['m1', 'm3', 'm12', 'e1', 'e2']}"
30,246,30,1.0009999999999972,21.21817702874887,145.03399632730094,21.218177028748755,35.5400066743083,38.89999121937262,42.43635405749728,35.36362838124796,113.21885300576858,77.79998243874559,67.19089392437115,70.72725676249593,74.26361960062081,37.13180980031041,40.66817263843518,5.304544257187217,15.913632771561652,25.00586143574145,21.218177028748755,21.218177028748755,81.33634527687036,70.72725676249593,77.7999824387457,"{'others': ['m1', 'm3', 'm12', 'e1', 'e2']}"
