,video_id,frame_seq,time_seconds,m1,m3,m4,m5,m6,m7,m8,m9,m10,m11,m12,m13,m14,m15,m16,m17,e1,e2,e3,b1,b2,b3
0,170,0,0.0,18.651848299412563,161.6626361746318,14.506993121765277,31.155418165502017,45.6404832774026,49.78141898338413,39.43062403959691,103.70424341239256,72.5645656776401,63.20904145912016,47.665834542943,49.738262131766646,9.325924149706225,54.9193311038257,21.76048968264797,5.181068972059052,12.434565532941633,12.434565532941747,12.434565532941633,60.100400075884636,64.24525525353181,83.00066024985134
1,170,1,0.0333666666666666,18.65059672430732,161.6385049439964,16.578308199384196,31.084327873845496,45.59034754830668,47.707664553818546,39.427978168440525,105.7070293728521,74.63116313239664,65.27708853507545,49.734924598152816,49.734924598152816,10.361442624615165,55.95179017292185,20.722885249230217,4.144577049846021,12.605238991368749,12.605238991368786,13.469875411999624,62.16865574769099,66.31323279753701,78.7742261822512
2,170,2,0.0667333333333332,18.572951148965792,155.93295514916426,14.357275373657103,30.833882268300076,45.16945593758725,49.22494413825257,39.18505155332024,102.63397573785458,71.81567145300527,62.55669984236283,47.17390479915889,51.275983477346585,10.255196695469408,53.327022816440376,18.459354051844684,4.102078678187695,12.306236034563199,12.306236034563199,13.33175570411015,63.582219511909784,65.63325885100369,80.01682528016941
3,170,3,0.1000999999999998,18.65059672430732,157.54845236450262,14.506019674461186,31.15332757666916,45.59034754830668,47.66263607322958,39.591016678567456,103.80076465948576,72.64841835042606,63.20480001015244,45.59034754830668,49.734924598152816,8.289154099692155,55.95179017292185,22.79517377415334,4.144577049846021,12.43373114953829,12.433731149538175,12.433731149538175,64.240944272614,66.31323279753701,82.91744055730867
4,170,4,0.1334666666666664,18.459354051844798,159.99421559718013,14.357275373657103,30.765590086407883,45.122865460064986,47.21847155902674,39.45252941306703,102.73639465939554,72.04959934107949,62.55669984236283,47.17390479915889,49.224944138252795,9.229677025922456,54.35254248598733,19.484873721391637,3.076559008640743,12.475985240007764,12.306236034563199,12.306236034563199,61.53118017281588,63.582219511909784,77.96647757458224
5,170,5,0.166833333333333,18.555714995111543,160.8294124024896,14.432222773975695,30.926191658519315,47.42016054306305,49.481906653631086,39.38960413511871,103.16974241124662,72.27883191529398,62.883256372322535,47.420160543062934,49.48190665363086,9.277857497555829,54.636271930050725,19.586588050395562,3.092619165851943,12.370476663407658,12.5411119883509,13.401349718691677,59.79063720647059,63.914129427606554,82.49561222351022
6,170,6,0.2001999999999996,18.65184829941245,161.66263617463204,14.506993121765277,31.086413832354197,45.593406954119246,49.73826213176676,39.593673490657444,103.70424341239256,72.65329352697839,63.209041459120044,47.665834542943,49.738262131766646,9.325924149706339,54.919331103825584,21.760489682647858,3.1086413832352946,12.606084884052537,12.434565532941633,12.434565532941747,60.100400075884636,64.24525525353192,80.93088451974788
7,170,7,0.2335666666666662,18.555714995111543,160.81619662430035,14.432222773975695,30.926191658519315,45.35841443249501,49.48190665363086,39.38960413511873,103.16974241124663,72.27883191529399,62.883256372322535,47.420160543062934,47.420160543062934,8.24698444227181,55.667144985334744,22.679207216247505,4.123492221135962,12.370476663407658,14.432222773975695,14.432222773975695,61.852383317038516,65.97587553817448,82.49561222351022
8,170,8,0.2669333333333328,18.748982830172622,162.50453795584886,14.58254220124536,31.248304716954294,45.87816840413373,49.99728754712669,37.55578830943395,102.09905054594074,70.86011966214248,61.45499927667686,45.830846918199654,47.91406723266323,9.374491415086368,55.20533833328591,21.873813301867926,5.208050786158992,12.499321886781786,12.499321886781786,12.499321886781786,64.57982974837216,66.66305006283585,79.1897779992355
9,170,9,0.3002999999999994,18.65184829941245,161.66263617463204,14.506993121765277,31.086413832354197,45.59340695411947,47.665834542943,39.593673490657444,103.70424341239256,72.65329352697839,63.209041459120044,47.665834542943,49.738262131766646,9.325924149706339,54.919331103825584,21.760489682647858,3.1086413832352946,10.56734871591967,12.434565532941633,12.434565532941633,62.17282766470828,66.31768284235557,78.77951243994491
10,170,10,0.333666666666666,16.57830819938431,161.6385049439964,16.578308199384196,31.084327873845496,45.59034754830668,47.707664553818546,39.591016678567435,103.69728465703096,72.64841835042604,64.240944272614,47.662636073229805,47.662636073229805,8.289154099692155,55.95179017292185,22.79517377415334,6.216865574769031,12.433731149538175,14.5060196744613,14.5060196744613,62.16865574769099,66.31323279753701,78.85595633688081
11,170,11,0.3670333333333326,18.556454507237163,162.8844340079704,14.432797950073336,30.92742417872853,49.48387868596569,49.52681481437838,37.624835390601795,101.21876011573956,70.37452142408797,60.82393421816619,45.360222128801865,45.360222128801865,8.247313114327653,55.669363521711375,20.61828278581902,4.123656557163827,10.513302626166553,12.37096967149148,12.37096967149148,61.85484835745717,65.978504914621,76.39901519355008
12,170,12,0.4003999999999992,16.579420710588806,163.7348956219945,16.57942071058892,31.155418165502116,47.665834542943,49.781418983384356,37.5332599753986,101.73909881314343,70.58434025096503,62.17282766470839,45.59340695411947,47.66583454294312,9.325924149706339,54.919331103825584,19.688062093824215,5.181068972058938,12.60608488405265,12.434565532941633,13.470779327353398,62.17282766470828,66.31768284235557,80.93088451974788
13,170,13,0.4337666666666658,14.431264299940153,160.8583695732405,12.369655114234433,30.992781905090347,45.35540208552629,47.41701127123201,39.65584447211927,97.24591079811238,66.2607735008248,58.75586179261347,43.29379289982046,47.4170112712319,6.1848275571172735,51.54022964264334,18.554482671351593,4.12321837141144,12.54027910692949,14.431264299940153,14.431264299940153,59.78666638546633,63.90988475687789,78.3682707986923
14,170,14,0.4671333333333324,10.305856047009797,165.00959690085344,14.574681393545884,28.929916533410335,43.28459539744108,45.34576660684297,37.32939827355027,91.06552050430787,62.143542864974705,56.68220825855349,37.101081769235066,43.28459539744085,3.091756814102837,50.4986946303477,19.581126489318535,9.275270442308852,12.367027256411689,12.367027256411575,13.39761286111252,61.83513628205844,63.896307491460334,78.35162193729946
15,170,15,0.5004999999999991,10.253040317020236,158.01661616914006,14.499988671888318,30.827398773034687,45.159958075749,47.16398545829338,37.13809156298782,92.64119812487934,61.82506795463522,56.3917217436117,41.012161268081286,47.163985458293496,7.177128221914245,48.18928948999553,13.328952412126455,7.177128221914245,12.30364838042442,14.35425644382849,14.35425644382849,59.4676338387178,63.56884996552594,77.95008342467166
16,170,16,0.5338666666666656,6.582367076198516,160.39919870832856,14.570690649263497,31.22290853413608,43.76160405653996,47.92035564630778,37.984307623674255,89.89209784383748,58.8744809409464,55.1604717436403,37.46749024096323,43.71207194779049,3.1222908534136877,48.91589003681304,13.529927031458897,11.44839979584981,12.48916341365441,14.71862023523661,14.570690649263497,60.36428983266296,62.44581706827205,81.28623708653295
17,170,17,0.5672333333333321,4.142354041184831,163.8325898171433,14.6454331629864,29.07035478583164,43.544003247042966,45.61294236897654,39.83988545080324,87.60368790397573,58.58173265194575,55.921779555995045,35.210009350071005,43.494717432440666,0.0,47.6370714736255,16.569416164739323,12.427062123554492,12.598477974474239,14.498239144146964,14.49823914414685,60.064133597179875,64.2064876383647,76.74542361675417
18,170,18,0.6005999999999987,4.077336391857784,159.02918713137015,12.23200917557324,30.64790320656179,40.773363918577616,42.86054434776386,39.21456572300671,86.01150541237863,55.38277704902344,53.005373094150855,34.657359330790996,36.69602752671983,3.05800229389331,49.94737080025766,17.328679665395498,13.251343273537714,14.415561059306599,16.309345567431023,15.290011469466549,63.198714073795486,67.27605046565316,79.6125380826739
19,170,19,0.6339666666666652,4.140578207421754,153.32723794746278,14.639154642505888,29.05789227851827,43.52533586362358,45.54636028163941,37.77923096081171,85.51070948040653,56.50789542040377,53.82751669648303,37.2652038667959,43.47607117792859,3.105433655566344,44.511215729784,11.386590070409852,11.386590070409852,12.59307698693731,12.421734622265376,13.456879174120786,62.108673111326425,66.24925131874818,76.60069683730285
20,170,20,0.6673333333333318,4.630361617291301,157.50037382135284,14.49532467133713,28.990649342674146,41.4669500481067,43.48597401401116,37.78783618942136,85.3042813176266,56.5207666024256,53.839777350680606,37.27369201200963,43.485974014011276,3.1061410010008785,44.521354347678084,11.389183670336251,11.389183670336251,12.59594539647375,12.595945396473788,13.459944337670208,60.052059352682136,64.19358068734982,74.57613904303427
21,170,21,0.7006999999999983,4.119280975320635,156.54622674211308,14.563857556310005,33.018548835030664,41.1928097532068,43.30146153165151,39.34937626595307,90.99789100729645,58.0000027427492,55.61029316682925,37.07352877788617,39.133169265546485,1.0298202438301587,52.520832435338775,17.506944145112925,13.387663169792177,12.357842925962018,12.528303984225555,13.38766316979229,63.848855117470634,65.90849560513095,76.31794875674133
22,170,22,0.7340666666666649,6.209287329196741,155.2873670863468,16.686958293742858,33.18081612432507,39.32548641824587,43.51426345763377,37.48499213282197,93.50654373277462,60.34342619636434,56.91846718430338,39.32548641824599,43.46501130437707,4.139524886131198,51.74406107663947,16.558099544524566,10.34881221532794,12.589873435297788,16.55809954452468,15.523218322991852,64.16263573503295,68.30216062116403,78.75983236656526
23,170,23,0.7674333333333314,14.715233507201734,160.29476164356313,12.486289679622928,31.28501556999846,45.78306215861744,47.86411043855492,40.40664861966277,98.6030454042828,67.40155249441567,59.30987597820911,41.62096559874328,45.783062158617554,4.162096559874271,54.10725527836621,20.810482799371584,6.243144839811521,10.405241399685792,10.405241399685792,11.445765539654417,60.35040011817773,64.512496678052,77.02690349805265
24,170,24,0.800799999999998,14.639154642505856,157.396443745138,12.421734622265262,31.12326968500169,45.59338802806657,47.616649385350456,38.17424486222306,96.03999524039715,65.0083964986277,56.93295035204926,39.33549297050672,43.476071177928475,4.14057820742164,53.82751669648303,20.702891037108884,6.210867311132802,8.281156414843622,10.351445518554442,10.351445518554442,60.038384007615605,64.17896221503736,76.62866860994838
25,170,25,0.8341666666666645,14.724203476646212,158.2697775736888,12.666238760423159,31.23475237772118,45.81097015399109,47.938533363358154,37.998716281269175,96.35075938822881,65.38607461369392,57.26371269248898,41.64633650362839,43.72865332880974,5.205792062953606,53.09907904212605,19.782009839223406,5.205792062953492,12.493900951088449,14.724203476646212,15.61737618886059,64.55182158062382,68.71645523098664,77.04572253171227
26,170,26,0.867533333333331,10.35380333666933,159.50234830744577,14.642489100861523,31.130358840707288,43.48597401401139,45.60377313959735,37.50307074322926,93.5516409377754,62.43266144344393,56.94591835168126,41.41521334667732,45.55673468134512,6.21228200200153,49.698256016012806,18.636846006004816,6.212282002001643,12.59594539647375,14.49532467133713,14.49532467133713,62.12282002001598,66.26434135468367,78.68890535868695
27,170,27,0.9008999999999976,10.407636178045323,158.20976357174695,14.718620235236644,33.36942009645441,43.71207194779049,45.8408822101236,37.98430762367421,96.31422433555056,62.99844569071062,57.24199897924939,41.630544712181404,43.71207194779038,5.203818089022661,53.07894450803121,17.69298150267707,7.2853453246317486,12.661435874557947,12.48916341365441,13.52992703145901,62.445817068271936,66.60887153949011,77.04463132910546
28,170,28,0.934266666666664,8.584100245001107,158.2419054379468,14.721610467391459,33.31120189273395,43.720952484213285,45.85019523524429,37.70572031911975,94.05715155288489,60.9481785197628,56.21265319398856,41.63900236591746,43.7209524842134,5.2048752957397255,51.00777789824883,15.614625887219063,7.2868254140355475,12.664008169520015,12.491700709775273,13.532675768923127,62.45850354887625,64.54045366717207,77.06028370210508
29,170,29,0.9676333333333308,10.61590427951756,158.2419054379468,14.721610467391459,31.2985731733303,43.770494655897004,47.93009113686592,37.70572031911975,94.2643007977994,63.011244443243164,57.253628253136526,41.63900236591746,43.7209524842134,5.2048752957397255,51.00777789824883,17.696576005514885,7.2868254140355475,12.664008169520015,14.721610467391427,13.532675768923127,62.45850354887625,66.62240378546801,74.97911465674052
