,video_id,frame_seq,gap,time_seconds,m1,m3,m4,m5,m6,m7,m8,m9,m10,m11,m12,m13,m14,m15,m16,m17,e1,e2,e3,b1,b2,b3,label_measures
0,47,218,1,7.273933333333343,16.339465755180118,161.5046884514206,20.667971014676368,31.001956522014552,41.65762736367133,46.78910939043905,31.42958991634077,98.7152579519055,67.96117893436798,59.42041666719479,72.33789855136774,51.66992753669092,31.001956522014552,36.1689492756841,5.166992753669547,15.500978261007276,21.304056890178728,20.667971014676368,20.667971014676368,41.335942029352736,62.00391304402956,51.92763450960759,{}
1,47,219,0,7.3073000000000095,10.62050875446812,154.3631669490468,15.930763131702406,32.3010163521919,42.48203501787288,48.08639856733489,33.58499757387725,91.66920345556792,59.37044882655608,53.10254377234105,63.72305252680917,53.10254377234105,26.551271886170525,31.86152626340481,0.0,10.62050875446812,21.241017508936693,21.241017508936693,21.241017508936693,42.48203501787293,53.10254377234105,58.41279814957522,{}
2,47,220,0,7.340666666666676,10.922074230593807,158.7462528268925,16.38311134589094,27.30518557648429,43.68829692237534,49.4517943326765,34.538631342107536,88.05657759309685,61.05625108726639,54.61037115296904,65.53244538356284,54.61037115296904,27.30518557648429,27.305185576484742,4.547473508864641e-13,10.922074230593353,21.84414846118761,21.84414846118761,21.84414846118761,43.688296922375685,49.14933403767236,54.61037115296927,{}
3,47,221,0,7.374033333333343,12.745059757543238,160.0,17.09929199709859,22.799055996130846,45.95296646467522,45.59811199226215,36.04847272474672,87.18962356182527,64.98730840561979,56.997639990328025,62.69740398936074,51.297875991295314,22.7990559961313,28.49881999516356,0.0,11.399527998065878,17.099291997098135,17.099291997098135,17.099291997098135,45.59811199226215,51.29787599129486,45.59811199226215,{}
4,47,222,0,7.40740000000001,12.053607087251748,168.85808641716767,18.08041063087785,30.73078887353872,48.214428349007335,48.214428349007335,32.455330342647834,92.19236662061614,61.46157774707742,54.24123189263355,60.2680354362592,54.241231892633095,27.12061594631677,33.14741948994242,3.0134017718128234,9.040205315438923,18.08041063087785,12.053607087251748,15.067008859064572,42.18762480538135,54.241231892633095,48.214428349007335,{}
5,47,223,0,7.440766666666676,6.135719910778789,153.51566312115972,19.40285000290659,30.67859955389485,42.950039375452775,49.08575928623179,31.286155555001763,86.77218312746231,56.568542494923626,52.15361924162107,61.35719910778971,55.22147919701047,27.61073959850546,27.61073959850501,3.0678599553898493,9.20357986616864,25.298221281347253,18.407159732336822,18.407159732336822,42.95003937545289,49.08575928623168,55.22147919701069,{}
6,47,224,0,7.474133333333343,12.46202676686562,155.89990504521958,18.6930401502982,24.924053533730785,43.61709368402933,49.84810706746214,33.55503398524621,88.11983634178854,63.54411766316293,56.07912045089461,62.31013383432765,56.07912045089461,28.03956022544708,28.03956022544753,3.1155066917162912,9.346520075148874,18.6930401502982,18.6930401502982,18.6930401502982,49.84810706746248,56.07912045089506,49.84810706746214,{}
7,47,225,0,7.50750000000001,6.421612990679478,160.6687056949507,19.26483897203798,32.74392994821509,51.77269909067928,51.77269909067934,34.58144428244395,91.9435057381578,59.2043464550976,54.58371042077442,64.21612990679341,57.794516916113935,28.897258458056967,28.897258458057426,3.2108064953395115,16.054032476698012,14.359163172354986,19.26483897203798,19.26483897203798,44.95129093475544,51.37290392543491,51.37290392543491,{}
8,47,226,0,7.540866666666677,6.633581268066791,152.71650936694235,19.90074380419992,33.82476033087476,39.80148760839938,46.43506887646595,35.72292839005895,94.97842960487937,61.15859741200568,56.385440778566135,59.70223141259976,53.06865014453297,23.217534438233088,36.484696974366216,3.316790634033623,9.95037190209996,19.900743804199465,13.267162536133128,13.267162536133128,46.435068876466175,53.06865014453251,46.435068876466175,{}
9,47,227,0,7.574233333333344,6.871067372240759,151.3195622331398,20.613202116723187,35.03570661026727,41.22640423344592,48.09747160568668,37.00183020044211,98.37871314946246,63.34811110743017,58.40407266404827,68.71067372240987,61.83960635016865,30.91980317508433,30.91980317508433,3.43553368612038,10.30660105836114,13.742134744481971,20.613202116723187,20.613202116723187,41.22640423344592,48.09747160568668,48.09747160568668,{}
10,47,228,0,7.60760000000001,9.717156665802303,151.3195622331398,15.364173722311698,35.03570661026771,48.58578332901208,41.22640423344569,28.33013653648477,83.59014231004424,48.58578332901211,44.6619379195663,54.96853897792789,48.09747160568668,24.048735802843566,30.91980317508433,3.4355336861208343,10.306601058361592,20.61320211672273,13.742134744481518,17.177668430602353,41.22640423344592,48.09747160568668,48.097471605686906,{}
11,47,229,0,7.640966666666677,14.229110075920744,156.68182183412847,14.2291100759212,29.33406190078132,42.687330227762686,49.80188526572306,29.33406190078088,86.55229760930045,57.35937648049294,49.801885265723286,56.91644030368343,49.80188526572283,24.900942632861643,32.01549767082224,3.5572775189803,10.671832556940444,22.498198458580696,21.34366511388089,17.78638759490059,42.687330227762686,42.687330227762686,49.80188526572306,{}
12,47,230,0,7.674333333333344,7.229834011694493,144.77731325901345,21.68950203508348,36.865064705667024,43.37900407016696,51.12264656522317,22.86274258190703,87.95472685322184,51.12264656522317,46.993921076013976,57.83867209355594,50.60883808186145,32.534253052625445,32.53425305262499,3.6149170058474738,10.844751017541968,22.86274258190703,14.459668023388986,14.459668023388986,43.37900407016696,43.37900407016696,43.379004070167184,{}
13,47,231,0,7.707700000000011,7.387168551530522,147.92793496395888,22.16150565459384,29.54867420612481,44.93439207025119,44.323011309187,26.63481499304061,82.59105521236148,53.7793988257837,48.01659558495294,59.097348412249175,51.710179860717744,33.24225848189008,25.8550899303591,3.693584275765716,18.46792137882767,23.36027808240532,14.774337103061953,14.774337103061953,44.32301130918722,51.710179860718654,51.7101798607182,{}
14,47,232,0,7.741066666666677,7.499267685396262,127.70792687611336,22.49780305618788,30.920272781668185,38.23891226548955,38.23891226548955,33.53774465202557,92.76081834500592,61.84054556333775,56.24450764046969,67.49340916856318,59.99414148316782,33.74670458428227,26.2474368988851,3.749633842698131,18.74816921349065,22.497803056187426,14.998535370791616,14.998535370791616,37.49633842697949,44.9956061123753,44.995606112375526,{}
15,47,299,1,9.976633333333298,28.83043930525795,179.77426799822877,11.274920110291736,24.423433314215487,42.24479739252062,44.27912045756211,30.956712584310765,95.10703958878322,70.75820019271032,56.38544077856608,24.3231313162442,39.80148760839956,1.105596878011113,63.01902204663264,32.06230946232188,9.950371902099905,22.54984022058342,22.11193756022197,21.006340682210865,88.44775024088794,44.22387512044398,67.25083263180606,{}
16,47,311,1,10.377033333333287,37.94019091105736,188.06470142506785,11.997741814056052,21.18424478064618,47.36941138151996,49.8091191335172,38.27349328048874,109.07198409216667,88.06894381885323,68.38217553257067,43.64819714844936,69.837115437519,18.914218764328098,50.92289667319096,24.733978384121315,4.364819714844998,17.70010787531052,14.837533932872592,14.549399049483211,78.56675486720894,29.098798098966256,65.64988087265965,{}
17,47,340,1,11.3446666666666,8.384436163006614,150.10248402932947,11.857383334574934,18.748169213489508,41.92218081503214,41.92218081503169,36.06282352746797,73.33386589783723,54.659836400139454,50.39387917194404,35.572150003725255,59.28691667287535,11.857383334574934,23.71476666915009,0.0,0.0,17.786075001862628,18.74816921348965,20.75042083550602,59.28691667287535,35.572150003725255,41.50084167101295,{}
18,47,341,0,11.378033333333263,0.0,144.62030521243702,13.427658241846016,18.989576396529507,36.030187928883606,36.030187928883606,36.030187928883606,67.13829120923009,48.41411030038245,48.04025057184481,48.04025057184481,60.05031321480601,18.015093964441803,12.010062642961202,6.005031321480601,6.005031321480601,18.989576396529507,18.989576396529507,18.015093964441803,54.04528189332541,42.03521925036421,42.03521925036421,{}
19,47,342,0,11.411399999999931,0.0,142.88625565752045,17.860781957190056,18.82691725878688,35.72156391438011,35.72156391438011,35.72156391438011,71.69076506289701,53.58234587157017,53.58234587157017,53.58234587157017,53.58234587157017,17.860781957190056,17.860781957190056,0.0,5.953593985729867,17.860781957190056,18.82691725878688,17.860781957190056,47.62875188584008,41.67515790011021,47.62875188583985,{}
20,47,365,1,12.178833333333246,25.947067696111844,167.4602546360851,15.283214398017478,30.566428796034955,48.18741143563693,48.329767466414445,41.44243370378238,112.735607966444,82.30262831609451,68.5743931968675,48.187411435636704,33.36051560928695,0.0,70.42775517516111,37.06723956587416,11.120171869762316,5.242099291379376,5.242099291379376,5.5600859348810445,44.48068747904927,74.13447913174878,78.19342752559831,{}
21,47,366,0,12.212199999999912,13.745684176978784,138.52656095189042,14.16872693951618,31.682236591391224,34.53560407646168,37.80063148669251,38.42035527120987,97.74186708367242,66.10087858365652,58.41915775215989,48.10989461942586,30.92778939820232,1.7182105221222628,56.700947230037855,25.773157831835302,8.591052610611769,7.684071054241978,7.684071054241978,6.872842088489279,41.23705253093658,68.72842088489438,66.10087858365684,{}
22,47,367,0,12.245566666666578,14.666450985149831,136.33629019929506,14.228547426992236,28.678554185075377,35.74878297762324,39.28986077032531,39.76999908479277,97.09094113324052,68.42289359947513,60.47132656471672,49.79991599447271,32.014231710732474,1.7785684283742285,55.13562127959472,23.12138956886224,8.892842141870005,7.953999816958667,10.061102372060452,7.114273713496004,39.12850542422848,67.58560027821295,67.95900422634898,{}
23,47,368,0,12.278933333333244,15.062986431212437,135.96011113001208,14.613243316031683,25.83280860973764,32.879797461071576,40.35213701439211,40.84525678298938,96.1036033103644,70.27283689263052,62.10628409313472,47.49304077710326,32.87979746107135,0.0,54.79966243511899,25.57317580305562,10.959932487023709,7.306621658015956,11.55278322022308,10.959932487023934,36.533108290079326,65.75959492214292,66.16427317199017,{}
24,47,369,0,12.31229999999991,15.673695795325468,141.47243854211283,15.205718425394023,30.648105298394736,34.42340916100371,41.81572566983414,38.76712748464092,99.99999999999996,69.36958071318955,60.82287370157633,45.6171552761823,30.41143685078828,0.0,60.82287370157633,26.610007244439657,11.404288819045632,8.500255011475476,8.500255011475476,7.60285921269724,41.81572566983368,68.42573291427334,65.06999343970085,{}
25,47,370,0,12.345666666666576,8.73287511199136,133.7014302464729,15.621841911543244,31.486828998508628,35.365448769029705,39.2493920459552,43.66437555995724,98.87836168704573,67.41870081965183,62.48736764617274,50.77098621251548,35.14914430097224,0.0,54.67644669040124,23.43276286731475,7.810920955771735,5.523155175138142,8.73287511199136,7.810920955771508,39.054604778857765,66.3928281240585,66.85071512323644,{}
26,47,371,0,12.379033333333242,16.301090617651653,139.5148627478394,12.225817963238796,28.81652929119484,36.90316342862845,36.90316342862845,41.559789576124885,98.56769560340916,69.75743137391923,61.12908981619376,48.90327185295496,32.602181235303306,0.0,57.0538171617809,28.52690858089045,8.15054530882594,5.763305858239186,9.112586682113257,4.075272654413084,36.67745388971616,65.20436247060661,66.34063242137887,{}
27,47,372,0,12.412399999999908,17.325923272968204,135.51538266302774,12.606460891022834,29.713713276017508,33.87884566575716,38.05211953235958,42.85372672044648,102.24281059677791,72.5404187307343,63.03230445511417,50.42584356409134,33.61722904272756,0.0,58.830150824773,25.21292178204544,8.40430726068189,8.40430726068189,11.88548531040636,8.40430726068189,42.02153630340945,71.43661171579606,67.75769133151432,{}
28,47,373,0,12.445766666666572,22.64340622408295,134.63393311947684,10.9836653630191,27.45916340754775,33.405514057753486,44.27657058885957,21.9673307260382,82.56034836156749,55.19223538117779,43.9346614520764,10.9836653630191,38.44282877056685,2.745916340754775,57.66424315585027,24.71324706679297,8.237749022264325,12.280111196910308,10.9836653630191,10.9836653630191,76.88565754113392,38.44282877056685,72.23378110616578,{}
29,47,374,0,12.47913333333324,13.442477945923656,126.7368974868418,13.442477945923429,31.68422437171036,36.12557399195208,36.12557399195208,41.31117434620728,99.49048261016615,67.80720123326869,60.491150756656,53.76991178369417,35.846607855796265,4.480825981974476,53.76991178369417,22.40412990987261,4.480825981974476,4.480825981974476,12.67368974868377,8.961651963948952,35.84660785579604,67.2123897296176,63.368448743420906,{}
30,47,375,0,12.512499999999903,18.928070824074524,133.84167234482328,13.77219446414665,27.5443889282933,32.13512041634203,36.725851904390765,37.85614164814905,97.38412097417933,70.22468831767839,59.679509344635335,45.90731488048891,32.13512041634226,2.2953657440245934,57.38414360061097,29.839754672317667,11.476828720122056,10.265187673726135,6.492274731611897,6.886097232073325,36.72585190439099,68.86097232073325,64.92274731611924,{}
31,47,376,0,12.545866666666573,14.117647058823422,141.88059700406035,14.11764705882365,28.624764848462267,37.94003646258173,37.64705882352882,38.80570000581305,95.17058078191369,66.55122646461606,58.82352941176464,47.05882352941171,32.94117647058829,2.352941176470722,54.11764705882342,25.88235294117635,7.058823529411711,9.411764705882431,10.52267283529332,9.411764705882431,37.64705882352951,65.88235294117658,66.55122646461632,{}
32,47,377,0,12.579233333333235,10.773104045814872,136.27018501899985,14.453635785072038,28.90727157014408,34.06754625474996,38.5430287601921,39.72924467737283,92.67374513779242,64.27851771655534,57.81454314028815,48.178785950240126,28.90727157014408,0.0,52.99666454526414,24.089392975120063,9.635757190048023,9.635757190048023,6.813509250949991,4.817878595024013,38.5430287601921,62.63242173531216,63.36929910497327,{}
33,47,378,0,12.612599999999905,19.98439328673749,141.3110001095104,11.171615469558816,25.475202834096866,35.32775002737761,39.96878657347497,40.279832405261416,96.1018700274708,70.65550005475515,59.953179860212686,49.96098321684394,29.976589930106456,0.0,54.9570815385282,29.97658993010623,4.996098321684258,4.996098321684485,7.06555000547614,4.996098321684485,39.96878657347497,64.94927818189694,70.6555000547552,{}
34,47,379,0,12.645966666666569,15.3985421264897,139.43972952119688,15.398542126489474,31.22189168940985,36.29471186009193,41.06277900397163,37.367692938519895,98.73229059761758,67.51206660415977,59.02774481821007,46.19562637946888,30.79708425297917,2.566423687748284,59.02774481821007,28.23066056523089,7.699271063244851,5.132847375496567,7.258942372018391,5.132847375496567,41.06277900397231,66.72701588145492,72.58942372018392,{}
35,47,380,0,12.679333333333236,20.79500979640148,136.0643726826149,10.39750489820085,26.50854018430086,36.39126714370286,41.913682214245945,36.76073110469028,94.15341132887777,67.78343894045652,57.18627694010411,46.78877204190326,31.192514694602096,2.5993762245502694,54.58690071555384,23.394386020951515,7.798128673650581,7.352146220938165,7.352146220938165,5.198752449100084,41.59001959280295,67.58378183830473,68.37891250726159,{}
36,47,381,0,12.712699999999902,21.6275467064429,141.51176672132934,10.813773353221675,27.56982067182315,37.84820673627564,43.59171400267705,38.23246234138655,97.9228825099486,70.49717725363794,59.47575344271809,48.66198008949687,32.44132005966458,2.703443338305533,56.77231010441301,24.330990044748432,8.110330014916144,5.406886676610611,7.646492468276956,5.406886676611066,43.255093412886026,70.28952679593976,71.11649085361317,{}
37,47,382,0,12.746066666666566,16.702144855500592,145.1795505520285,11.134763237000245,28.38818751235008,38.97167132950108,44.88566559148755,39.36733295894759,95.29822274943994,67.040152315399,58.45750699425116,44.53905294800097,33.40428971100073,4.547473508864641e-13,55.673816185001215,27.83690809250038,11.134763236999788,5.5673816185001215,7.873466591789383,8.351072427750296,38.97167132950108,72.3759610405018,67.04015231539896,{}
38,47,383,0,12.779433333333232,11.313708498984852,136.8210510118967,11.313708498984852,34.409301068170336,33.941125496954555,39.59797974644698,41.1825205639479,97.65244492586952,63.24555320336765,56.56854249492381,45.25483399593895,28.28427124746213,2.828427124746213,59.39696961967002,25.45584412271592,14.142135623731065,5.656854249492199,8.000000000000064,5.656854249492199,39.597979746446526,67.88225099390843,68.11754546370526,{}
39,47,384,0,12.812799999999898,18.1034398672357,132.7859856477057,11.449620692872486,28.62405173218121,34.34886207861746,40.48052216971976,40.48052216971931,97.99296850427696,69.645323736731,60.11050863757964,51.52329311792573,34.348862078617,2.862405173218121,54.385698291143854,25.76164655896264,8.587215519654364,5.724810346436243,8.096104433943951,8.587215519654364,40.073672425053246,68.69772415723423,68.93584523225981,{}
40,47,385,0,12.846166666666564,11.78255631879756,130.14258824646228,11.782556318798015,35.8352460435555,35.83524604355565,35.347668956393136,42.889152388741735,101.69922904683264,65.86649219387833,58.91278159398826,47.130225275190696,35.347668956393136,4.547473508864641e-13,58.91278159398826,23.56511263759512,5.891278159398553,8.331525472734159,8.33152547273448,5.891278159399008,41.23894711579192,70.69533791278604,70.94038314637473,{}
41,47,395,1,13.179833333333224,3.1391140590640134,173.67558115367947,12.942898836383096,28.42588679736817,50.61669329096626,50.323826647864834,57.28345613042416,99.11848951929734,70.82164126585585,69.0605092994123,43.94759682689877,62.782281181283935,3.139114059064184,43.94759682689869,12.556456236256736,15.69557029532092,9.926750261699285,9.926750261699285,9.41734217719258,72.19962335847653,50.22582494502715,63.0954117082142,{}
42,47,396,0,13.213199999999889,4.652263713483115,171.56700853402683,13.15858887868768,26.52198378596869,49.4542416336184,49.4542416336184,53.55157691349723,96.8073368432848,70.32462531192104,67.43776800327424,49.3447082950787,62.503297173766384,3.289647219671906,39.47576663606304,9.868941659015777,9.868941659015777,13.158588878687652,13.158588878687652,13.158588878687652,49.34470829507873,26.31717775737532,60.03042853715996,{}
43,47,397,0,13.246566666666554,3.516627904604775,176.70836523521672,14.066511618420009,28.3519605717846,49.358224729329294,52.86650954238372,57.24655476230296,100.0231848219816,71.72541723050331,70.3325580921001,49.23279066447003,66.8159301874951,1.758313952302501,40.441220902957525,8.791569761512505,12.308197666117508,11.120553861857092,14.066511618420009,14.066511618420009,45.716162759865085,28.13302323684005,56.70392114356914,{}
44,47,398,0,13.27993333333322,3.8284962657703545,184.4047995153051,15.785294491053843,27.07155671273559,53.735505770694665,53.73550577069511,57.93566136203971,101.36481610287208,74.3359511857856,72.74142904963594,49.77045145501404,65.08443651809523,0.0,42.113458923473445,11.48548879731095,11.48548879731095,11.48548879731095,11.48548879731095,11.485488797310891,49.77045145501404,26.7994738603922,54.14311342547138,{}
45,47,399,0,13.313299999999886,3.980148760839711,171.56241828074295,15.920595043359867,28.14390178921169,47.76178513007926,47.92733774131708,56.28780357842332,100.76931797697428,72.63089924235051,71.64267769511923,51.74193389091943,63.68238017343924,1.9900743804199688,41.79156198881958,9.95037190209996,9.95037190209996,15.92059504335981,15.92059504335981,13.93052066293984,51.74193389091943,31.84119008671962,59.834755951720695,{}
46,47,400,0,13.346666666666552,0.0,178.43463908142712,17.067926839341773,25.180083964661243,49.67496364864974,49.67496364864974,54.447678014883074,96.63947524730096,71.46023564141477,70.37286516892084,49.67496364864997,62.09370456081251,2.0697901520270534,39.32601288851458,10.348950760135494,10.348950760135494,8.279160608108327,12.418740912162548,12.418740912162548,45.5353833445958,28.977062128379146,53.973523749439,{}
47,47,401,0,13.380033333333218,4.322367230736745,177.69082932643565,12.967101692210347,30.563751796324823,47.74210651234776,51.8684067688414,53.46472993510853,97.5170496116942,67.10118399134721,64.83550846105152,47.54603953810442,60.51314123031466,2.161183615368373,41.062488691999306,6.483550846105118,10.805918076841976,8.644734461473547,12.967101692210347,12.967101692210347,43.22367230736762,25.934203384420584,52.58386686662871,{}
48,47,402,0,13.413399999999884,4.516387521771321,176.659466368558,13.549162565314418,27.09832513062861,49.8851306714853,54.384507497888535,54.94422557947559,95.80704729332687,69.08744431337877,67.74581282657175,49.6802627394859,63.22942530480032,2.2581937608857743,38.38929393505725,6.774581282657209,11.290968804428644,14.28207136476111,9.03277504354287,9.03277504354287,40.64748769594303,22.581937608857288,58.88648878951902,{}
49,47,403,0,13.44676666666655,4.854998214271404,185.5092212922124,15.352852393147476,24.75573063302744,53.62520801442588,58.46192017701545,54.280530188753474,99.02292253210985,74.26719189908242,70.39747410693371,48.549982142712906,67.96997499979807,4.854998214271291,38.83998571417044,4.854998214271291,9.70999642854258,10.856106037750695,14.564994642813986,12.13749553567834,48.549982142712906,24.274991071356453,53.62520801442588,{}
50,47,404,0,13.480133333333216,0.0,184.0342716416862,16.10992248880497,25.97646948197088,50.94404799339191,56.03845279273082,56.95717718111732,98.91544883304458,72.94077634083409,71.32166719074792,50.94404799339145,66.22726239140877,2.5472023996695725,38.208035995043474,7.641607199008717,7.641607199008717,15.283214398017437,10.18880959867829,12.736011998347864,45.84964319405219,25.47202399669561,61.3447572138957,{}
51,47,405,0,13.51349999999988,0.0,133.5178778276524,14.03508771929819,14.035087719298303,42.10526315789457,42.10526315789457,35.0877192982457,63.1578947368422,49.12280701754389,49.12280701754389,56.140350877192986,49.12280701754389,17.543859649122737,10.526315789473756,3.5087719298245474,3.5087719298245474,21.0526315789474,21.0526315789474,21.0526315789474,42.10526315789474,42.10526315789474,63.54656237289413,{}
52,47,406,0,13.546866666666547,5.381382351970387,173.544366254925,17.01742519246076,22.188007849009143,48.73048977266856,53.81382351970569,48.73048977266853,92.89706267365852,70.78103383768284,67.2672793996312,43.05105881576401,64.57658822364601,5.381382351970615,37.669676463793394,10.762764703941002,10.762764703941002,12.03313675192369,10.762764703941002,8.072073527955695,48.43244116773451,26.906911759852505,53.81382351970478,{}
53,47,407,0,13.580233333333211,5.758526005989552,184.63238927930385,17.275578017968655,28.79263002994776,52.145670812215606,52.145670812215606,52.145670812215606,98.57008763395612,70.05549243796222,69.10231207187462,51.826734053905966,63.34378606588507,5.758526005989552,40.30968204192686,5.758526005989552,11.517052011979104,5.758526005989552,5.758526005989552,8.637789008984328,51.826734053905966,28.79263002994776,58.72567294814449,{}
54,47,408,0,13.61359999999988,8.275173319825413,176.41846639040867,11.702862339884405,23.40572467976904,46.81144935953762,52.98696285312924,53.94752981007188,95.2543982459158,72.37820632411031,67.29145845433595,46.81144935953808,64.3657428693648,2.92571558497093,38.03430260462483,8.777146754913474,8.777146754913474,5.851431169942089,11.702862339884632,11.702862339884632,52.66288052948039,29.25715584971136,59.67312343596096,{}
55,47,409,0,13.646966666666543,6.107760067161507,184.14668699584533,18.32328020148225,24.4310402686433,54.9698406044472,55.3081197394771,56.31076547366732,99.4271303773328,75.54881967850093,73.29312080592968,48.8620805372866,67.18536073876885,3.053880033580299,39.70044043654525,9.161640100741124,9.161640100741124,6.107760067160825,6.107760067160825,9.161640100741124,48.86208053728637,30.5388003358039,55.30811973947798,{}
56,47,410,0,13.68033333333321,6.212948073464759,174.95820627941845,18.638844220394503,24.851792293859265,49.70358458771807,49.70358458771807,51.23328230674657,95.03983039060762,70.8385071078164,68.34242880811325,43.490636514253765,62.12948073464827,3.10647403673238,40.384162477521386,9.319422110197138,9.319422110197138,8.786435427813654,13.892574232943558,9.319422110197138,49.70358458771875,31.064740367324248,56.2606376484732,{}
57,47,411,0,13.713699999999877,6.525884661473356,177.2831969301124,13.051769322946484,20.636659277812463,52.61336417646622,52.207077291785936,53.81382351970515,93.4364488625544,72.96160858188746,68.52178894546955,45.68119263031304,65.25884661473287,3.2629423307364505,35.89236563810323,9.788826992210032,9.788826992210032,13.051769322946484,13.051769322946484,13.051769322946484,45.68119263031304,26.103538645893195,59.09439897670385,{}
58,47,412,0,13.747066666666544,9.53869154222897,176.5302323844059,13.489746946313517,20.234620419470275,47.21411431209799,53.95898778525407,54.37890842025156,95.38691542228824,75.40997792806822,70.82117146814608,47.214114312097536,67.44873473156781,3.372436736578265,37.096804102362285,10.117310209735251,10.117310209735251,6.744873473156986,6.744873473156758,10.117310209735024,47.214114312097536,26.97949389262726,47.69345771114382,{}
59,47,413,0,13.780433333333209,0.0,171.71853311366382,15.310058472095598,20.540598889861485,48.414655882179,47.92806407634271,55.20120085149264,90.0564656673631,69.8246097068571,68.46866296620465,47.92806407634339,61.62179666958423,0.0,34.23433148310232,13.693732593240838,13.693732593240838,13.693732593241066,13.693732593240838,10.270299444930744,47.92806407634316,27.387465186481904,48.41465588217989,{}
60,47,414,0,13.813799999999874,6.990699817187533,168.35834604121936,13.981399634375066,22.10653386083524,56.36082376714944,55.92559853750026,49.43171245972872,91.94830025936574,70.25566366732733,66.41164826328145,48.93489872031273,62.9162983546878,6.990699817187533,34.953499085937665,6.990699817187533,6.990699817187533,6.990699817187533,6.990699817187533,10.486049725781411,41.94419890312497,27.962799268749905,48.93489872031296,{}
61,47,415,0,13.84716666666654,10.411584125906874,177.3028887614179,7.36210173832319,22.086305214969343,51.53471216826256,58.89681390658552,59.355161783557655,96.8333298350194,75.07900084952963,69.93996651406951,51.53471216826165,66.25891564490803,0.0,36.810508691615496,7.36210173832319,7.36210173832319,14.724203476646151,14.724203476646151,11.043152607484672,51.53471216826188,29.448406953292533,52.057920629535296,{}
62,47,416,0,13.880533333333206,0.0,178.39817699341327,16.492917297411495,23.324507325097294,44.86558564475192,51.63099791401237,51.63099791401214,89.73117128950251,66.79122445396433,66.38271160373006,44.2551410691533,66.38271160373006,3.68792842242965,33.1913558018648,11.063785267288267,11.063785267288267,14.751713689717915,14.75171368971769,11.063785267288267,51.63099791401214,29.503427379435607,52.155183920609474,{}
63,47,662,1,22.08873333333301,19.87023936759517,174.98419650513782,13.201068504724958,24.75200344635914,44.58415376014034,47.8823154559603,44.58415376014023,102.36149718617196,77.62646415606196,67.65547608671511,57.75467470817148,52.804274018899605,10.72586816008902,47.02880654808246,20.62666953863265,0.8250667815452744,18.15146919399672,19.87023936759517,18.976535975542102,51.154140455809,61.05494183435269,59.4277223736653,{}
64,47,663,0,22.12209999999968,30.492348705491395,174.9592344448374,12.93879866393001,20.92482031801237,43.3312323709614,46.54095328732899,41.75722320861012,106.03015608262298,85.11814351153427,69.81142993099354,64.19441832735038,60.98469741098279,20.86318595638886,43.33123237096152,19.258325498205068,9.629162749102534,17.726263142848154,17.72626314284821,17.653465040021388,56.17011603643152,62.589557869166526,70.61386016008532,{}
65,47,664,0,22.155466666666342,16.207368806844958,170.95311488898673,14.603560497144544,20.96501513373812,43.57257819857869,46.795907482248126,43.54272373930212,95.14891483773442,74.1838997039963,66.12043234486634,62.89504540121425,61.282351929388255,18.54597492599908,33.06021617243323,10.482507566869115,7.25712062321702,16.126934718260088,17.81278160637937,16.933281454173084,58.05696498573627,61.28235192938831,67.73312581669234,{}
66,47,665,0,22.18883333333301,11.42819065388528,163.29251519282704,14.693387983566708,21.22378264292968,44.1103868983377,45.7419068726396,45.7419068726396,93.07244383505416,71.852891115472,66.1202459260503,66.93654525847057,63.671347928789146,19.59118397808902,27.754177302292646,6.530394659362969,6.530394659362969,16.40741352085755,14.693387983566708,15.509687315987094,57.14095326942612,62.038749263948375,78.36473591235585,{}
67,47,666,0,22.22219999999968,4.938229790437845,159.70336600807735,14.814689371313191,21.3989957585635,44.474540567375,46.11952956850991,46.11952956850991,87.25758727373334,65.8636366159744,63.37394897728439,65.84306387250331,62.55091067887804,18.106842564938347,23.045072355376192,1.6460765968126907,4.938229790437731,18.106842564938404,18.106842564938404,18.106842564938404,57.61268088844031,62.5509106788781,75.73741347688969,{}
68,47,667,0,22.255566666666343,1.7543184716556652,166.69718373635033,17.543184716556766,22.87351439981821,47.39907498036632,49.15223433877614,50.87523567801463,92.99542769931423,70.17273886622706,69.29557963039917,70.17273886622706,66.66410192291573,17.543184716556766,24.560458603179427,0.0,3.508636943311444,21.051821659868097,19.29750318821243,20.174662424040264,63.155464979604346,66.66410192291568,82.45296816781672,{}
69,47,668,0,22.28893333333301,3.433191830334181,159.79101604647315,13.732767321336269,22.315746897171493,46.37986762871108,48.1871436209174,51.49787745501135,90.97958350385328,68.6638366066818,66.94724069151471,73.81362435218284,66.94724069151471,18.882555066837423,20.59915098200452,1.7165959151669767,6.866383660668134,22.31574689717155,20.67055206605247,21.457448939588065,61.79745294601349,66.94724069151465,78.963412097684,{}
70,47,669,0,22.322299999999675,1.7699115044247264,157.5618921660608,14.159292035398266,23.00884955752213,42.477876106194685,44.24778761061941,54.895796174409966,93.82200552706948,70.81858061501785,69.91150442477874,72.56637168141594,69.02654867256638,15.929203539823106,23.00884955752201,1.1368683772161605e-13,3.5398230088495666,23.07682267328371,21.238938053097343,21.2389380530974,65.48672566371681,70.79646017699116,83.18584070796464,{}
71,47,670,0,22.35566666666634,1.754116038614029,150.94573655660307,12.278812270298433,21.12235418114765,38.63039855227609,40.38278384125135,56.13171323564984,91.2308989491878,70.1646415445623,69.28758352525529,71.91875758317644,66.65640946733424,13.155870289605446,21.926450482675705,0.8770580193070145,4.385290096535073,22.870874995874647,22.87087499587464,22.80350850198284,64.90229342872016,70.1646415445623,84.21583991333046,{}
72,47,671,0,22.389033333333007,2.5026408974675256,150.51257707210254,12.513204487337562,21.235612193688667,38.93195568842941,38.9721538980932,56.65594297255533,92.03800031464232,70.80749095309353,69.90055680422552,72.55500832843654,67.24610528001438,13.272257621055587,22.120429368425675,0.8848171747370088,2.65445152421114,23.073209014841105,23.07320901484105,23.0052465431628,65.4764709305403,69.0157396294884,83.17281442528099,{}
73,47,672,0,22.42239999999968,1.723737659420749,153.56751623431876,12.188665879630616,20.68485191304944,37.96138414856789,39.68342103206179,55.159605101465104,87.91062063046002,67.22576871741057,67.22576871741057,70.67324403625219,63.77829339856908,12.066163615945584,20.68485191304933,1.1368683772161605e-13,3.447475318841612,17.23737659420783,17.32334908062092,17.23737659420783,62.05455573914833,67.22576871741069,79.31066639914229,{}
74,47,673,0,22.45576666666634,4.010722964635336,166.89620183599172,14.34919870055046,23.31744788839444,46.669376295937056,48.5612268098858,53.83938099169914,95.1311022120904,71.83562001302825,69.95234366518321,71.74599350275207,66.3650439900457,15.246023619334892,26.007922644747623,0.8968249187843185,2.690474756353183,5.380949512706422,7.395407735668139,6.277774431490855,68.15869382761446,71.74599350275207,82.52738641916999,{}
75,47,674,0,22.489133333333005,3.975192699031068,160.08728311007758,16.098303472995124,24.95205373472357,42.703265883971824,46.255940775707806,53.36242770335927,97.77681208563718,72.90984578865992,71.1104087895543,71.1104087895543,65.7771281303377,15.110961867780247,29.33304362569117,4.444400549347165,0.888880109869433,12.444321538172003,12.444321538172003,12.444321538172003,63.99936791059884,69.33264856981538,85.35100687415532,{}
76,47,675,0,22.52249999999967,8.64209562988761,154.38067617981818,13.558835155425186,20.338252733137665,44.09879556402292,45.886441675324775,49.17999038449502,91.52213729911966,71.183884565982,66.94674857991163,72.87873896041015,66.09932138269755,20.33825273313778,22.033107127565813,3.3897087888562965,10.16912636656889,10.16912636656889,8.642095629887589,8.474271972140741,61.014758199413166,66.09932138269755,79.73024538232222,{}
77,47,676,0,22.555866666666336,14.283437133506368,162.56236389436856,14.283437133506368,23.2791544288288,46.4554931807724,48.3386734506882,51.80823373328756,103.554919217921,80.36416953455861,73.20261530922005,69.6317560258434,64.27546710077854,15.17615195435053,36.60130765460997,11.60529267097388,2.6781444625324866,5.6460242697133145,7.361514999789516,7.141718566753184,62.490037459090274,69.63175602584346,83.99113452616686,{}
78,47,677,0,22.589233333333,14.38771592111657,157.13396450973858,14.276612204964977,28.55322440992996,46.43329576299762,50.095450293688295,49.96814271737753,107.08946197568665,78.54164378797532,71.383061024825,69.59848449920435,64.24475492234251,16.953476993395952,40.152971826463954,9.81517089091335,4.461441314051626,12.492035679344326,12.492035679344385,11.599747416534058,64.24475492234251,74.95221407606624,82.16807382851256,{}
79,47,678,0,22.622599999999668,25.047725146844147,152.06644541665344,12.49203567934444,24.98407135868865,42.86699916992558,46.7068374268734,51.78347866279726,114.2686520475512,89.30018081165144,76.73679060168683,78.52136712730749,67.8139079735837,21.414918307447465,41.04526008927439,16.06118873058574,10.707459153723676,14.387715921116625,16.16002774797385,15.168900467775243,60.67560187110121,71.38306102482494,82.26491307700309,{}
80,47,679,0,22.65596666666633,21.19810972457072,146.49507469824596,12.322850358484516,22.952901627424165,42.396219449141554,44.1507878133264,47.53099423986873,103.92368213705323,80.9978635277879,70.41628776276855,73.93710215090687,63.37465898649168,21.124886328830485,35.20814388138433,12.322850358484516,10.562443164415184,17.691873342921994,17.952701268856114,17.60407194069211,61.61425179242247,72.17669495683771,82.81401518465033,{}
81,47,680,0,22.689333333333,17.681814190624095,152.32038833805123,10.75542768264223,21.291723790103013,42.58344758020615,44.52167052655275,51.30773798233709,100.80185005659344,79.56816385780803,70.72725676249593,70.72725676249593,61.886349667183936,15.02954206203026,34.47953767171691,13.261360642968157,7.956816385780712,19.449995609686425,17.770003337154186,18.565904900155203,60.118168248121606,74.26361960062081,83.2736485758338,{}
82,47,681,0,22.722699999999666,17.021314741525018,141.22725897372848,13.549472955269492,25.461655338414467,44.068345916545184,46.01088601077859,42.342102985217366,98.29206447553992,72.84810847389119,64.35999653753038,71.13473301516512,57.58526005989563,22.01789355231301,33.87368238817385,8.468420597043405,10.162104716452175,17.021314741525018,18.935964117048545,18.630525313495585,57.585260059895575,71.13473301516512,81.36737730040377,{}
83,47,682,0,22.75606666666633,18.01201945397234,158.08531136555436,14.338103381990663,23.368249513479483,46.73649902695885,48.52367751585535,46.63328984903537,102.17470699172868,78.85956860094859,69.89825398720438,73.48277983270214,62.72920229620911,21.50715507298605,34.05299553222778,10.753577536492912,10.753577536493026,21.58170349434278,19.79619101948008,20.611023611611586,60.93693937346029,73.48277983270214,82.52198212980349,{}
84,47,683,0,22.789433333333,14.005309557442075,149.55596499525114,10.422869122782116,20.84573824556435,39.99207782585136,40.105103235849946,48.763979816478425,93.82190540084652,72.98076122530321,66.01150444428708,69.48579415188112,62.53721473669293,17.37144853797031,27.794317660752423,6.948579415188078,8.685724268985155,22.582883099361368,20.917994054059243,21.71431067246283,59.062925029099006,71.2229390056782,83.54565158180878,{}
85,47,684,0,22.822799999999663,15.741207228676895,161.67362046274786,8.691627682615945,20.859906438278244,43.49289102832007,45.229880933058936,48.79712315999534,93.88567319936952,73.03036395355724,65.18720761961947,62.57971931483473,60.8413937783115,13.037441523923915,32.15902242567904,11.299115987400796,6.084139377831093,19.20043311629434,19.200433116294352,19.990743670016684,60.84139377831156,71.27134699745068,81.71979094902443,{}
86,47,685,0,22.85616666666633,15.644929828708769,146.27779573758156,10.429953219139064,20.859906438278244,41.86442271354763,45.32998407490856,48.70414665794873,95.62370616238444,74.76820842589431,66.92553315614282,69.53302146092756,60.84139377831161,16.514092596970272,30.420696889155806,7.822464914354327,9.560790450877562,20.859906438278244,19.4350703334482,20.859906438278244,62.57971931483473,73.00967253397386,74.82880674065798,{}
87,47,686,0,22.889533333332995,9.052058682580244,147.7306387510569,12.552946818673965,23.146490252959595,40.98493883189275,42.753796281225206,49.73882426404517,94.3560849735394,71.20962665207875,66.57205364518836,74.56070008261099,63.90917149938082,19.527802402588577,24.853566694203664,0.0,8.876273819358403,21.30305716646029,19.60832976444438,19.527802402588577,63.90917149938088,74.56070008261105,83.51248249108954,{}
88,47,687,0,22.92289999999966,3.552714519899723,146.19107279083784,12.434500819648974,23.09264437934803,39.24101446329522,41.01039193036924,47.99453025015315,83.65869509511818,60.6307971162153,60.39614683829484,69.27793313804409,56.84343231839512,15.099036709573738,20.428108489423263,2.664535889924764,6.217250409824487,21.390173951410425,19.620507231647604,19.539929859448364,62.1725040982447,72.83064765794376,81.73173990810014,{}
89,47,688,0,22.956266666666327,2.5005861435741323,141.99498655796737,12.377269933436764,19.530202117426715,42.58344758020615,42.58344758020616,47.87169554147784,81.64327597230387,62.113271246211376,61.00225895765277,70.72725676249604,58.34998682905916,16.797723481092817,16.797723481092817,4.420453547656052,7.956816385780826,22.9863584478112,21.29172379010308,22.102267738279977,60.118168248121606,72.49543818155843,83.17973442779123,{}
90,47,689,0,22.989633333333,1.791921191605411,156.26744619533594,14.335369532843629,23.2949754908708,44.94115485060023,46.72758776899128,48.51442549619431,86.1800460731299,62.9472099560025,62.71724170619064,69.88492647261239,59.1333993229797,16.12729072444904,21.503054299265383,1.791921191605411,5.375763574816347,21.5775885064592,21.577588506459207,22.399014895068035,62.71724170619064,73.46876885582333,82.506247646347,{}
91,47,690,0,23.02299999999966,5.331438047796155,146.25598601848984,12.440022111524172,23.171149162920884,41.02860177626914,42.7993436623391,44.46417911281387,85.37702440448898,62.22549317877888,59.53439153372324,71.08584063728154,58.64581852575725,20.437179183218404,20.437179183218404,0.8885730079661016,9.774303087626208,23.10289820711648,23.171149162920884,23.10289820711648,60.42296454168928,72.86298665321351,85.37702440448898,{}
92,47,691,0,23.056366666666325,3.920513652301043,142.4069583160226,14.026456053217771,24.6088365335793,40.47823550939314,42.22522429252398,47.46898610534096,89.69326422708575,65.08524996721938,63.11905223948008,73.63889427939341,63.11905223948008,21.039684079826657,21.039684079826657,5.259921019956664,10.519842039913328,22.86032650965164,21.329900328346927,21.039684079826657,57.85913121952336,70.13228026608891,82.48000437706828,{}
93,47,692,0,23.08973333333299,2.5346425326898223,143.78372748367104,12.545840459241845,21.581703494342847,39.59238203896015,41.37760267113939,50.31121774313382,86.32681397737113,64.74511048302828,63.625333757583576,75.27504275545095,64.52146521895793,19.71489215023724,16.130366304739482,3.584525845497751,8.961314613744207,23.299417995734814,21.58170349434278,21.507155072985995,60.93693937346035,71.69051690995332,82.46357326407112,{}
94,47,693,0,23.123099999999656,7.13262951621482,157.17093466255994,12.608826746517282,25.02780647558506,44.72135954999585,44.61458337006604,51.74229895158224,96.438980436003,71.41539737697964,67.7599804040417,71.32629516214911,62.41050826688047,15.156837721956665,29.422096754386644,4.457893447634319,6.241050826688024,21.397888548644744,21.693045781865667,22.2894672381716,60.62735088782682,73.10945254120293,82.04461929248599,{}
95,47,694,0,23.15646666666632,2.5341592518721296,149.2574622655211,14.446930511361431,25.15081244640341,43.04342410108119,44.9411548506001,52.08914873177864,93.6096611939572,68.46921259303366,67.19704468520422,77.05261123903415,64.50916289779605,18.8151725118571,22.39901489506815,2.68788178740806,6.271724170618995,23.36379388449564,21.57758850645916,22.399014895068035,62.71724170619064,73.46876885582327,84.29651348350257,{}
96,47,695,0,23.189833333332988,9.09633207508084,148.33523369253342,14.27149992398688,24.97512486697701,41.185395142124925,43.1476915657519,53.54784875207424,101.747012002457,76.79224110169154,72.24946836518347,78.49324958192767,69.57356212943591,20.51528114073119,27.65103110272446,4.459843726245822,9.811656197741058,21.407249885980264,21.70253624719527,21.407249885980264,64.22174965794079,74.92537460093092,80.45538304545768,{}
97,47,696,0,23.22319999999965,17.911305641108697,150.97647663494686,14.32904451288698,23.3534853631672,43.02443257694819,44.92132601391404,53.76376081172721,109.31767422929929,85.99292266332367,77.01861425676748,82.39200594910017,69.85409200032404,22.3891320513859,33.135915436051164,11.642348666720636,9.851218102609778,21.49356676933047,21.790043764491127,21.493566769330528,64.48070030799147,75.22748369265673,78.89111783669152,{}
98,47,697,0,23.25656666666632,21.393760552779632,152.95752050027093,12.436585776871311,24.87317155374251,44.5582834963845,44.73503263730849,51.52299821846657,110.16694381294602,85.29795014350653,74.61951466122753,72.84285955024586,65.73623910631943,17.766551109816078,40.86306755257692,15.989895998834411,8.883275554907982,23.16474854545376,21.393760552779742,21.319861331779293,65.73623910631943,78.17282488319069,81.80334450839628,{}
99,47,698,0,23.289933333332986,15.946725798445591,158.84372770608945,15.849191392375246,22.893276455653226,47.67784174775489,47.84017739533677,45.820406189802846,100.37821215171004,77.48493569605682,69.56033999986914,70.44085063277896,59.87472303786217,19.371233924014177,35.22042531638954,14.088170126555838,7.044085063277862,22.893276455653165,22.960908143486662,22.01276582274346,59.87472303786211,72.20187189859843,81.08350821947117,{}
100,47,699,0,23.32329999999965,10.66648729181203,151.0607978066523,12.27491796215554,21.115655084030305,45.62626227090746,45.72724268717116,49.13097543602188,92.95520611466716,71.89594806405387,66.63526893741573,73.64950777293325,64.88170922853647,20.16593665211269,23.673056069871336,2.630339563319012,11.398138107715909,21.11565508403036,21.11565508403035,21.919496360992014,59.621030101898384,71.89594806405393,80.73995233787765,{}
101,47,700,0,23.35666666666632,14.255534346233356,154.0856230810288,14.255534346233356,21.291723790103013,45.9727168956224,47.87169554147782,49.509079733747285,99.03394554323724,77.7999824387457,70.72725676249615,76.03180101968326,67.19089392437127,22.10226773828004,27.406811995467137,6.188634966718382,9.72499780484327,21.29172379010307,23.054265119972523,22.986358447811256,60.118168248121606,74.26361960062081,77.88031284985951,{}
102,47,701,0,23.390033333332983,9.05768033159651,158.34508796803115,14.21085807959878,23.09264437934803,44.408931498746256,46.32173008625696,53.29071779849539,99.49186562569513,76.40401470280588,71.94246902796874,71.0542903979939,62.17250409824464,13.32267944962382,32.86260930907224,7.993607669774406,0.8881786299748455,23.160865043128474,23.160865043128474,23.98082300932299,63.948861358194506,74.60700491789356,81.7896304170048,{}
103,47,702,0,23.42339999999965,2.523772325625381,164.52982615400614,17.845765256206164,23.26803115618832,44.75695156482179,46.7068374268734,48.315576209526895,91.29290719688248,68.02491113578792,66.92161971077337,66.02933144796305,55.32187229423937,12.492035679344326,30.337800935550604,5.353729576861838,1.7845765256206505,23.199494833068115,23.47243945593937,22.30720657025779,62.46017839672186,73.16763755044559,82.1099154582472,{}
104,47,703,0,23.456766666666315,2.4678901351232025,159.1454310642359,14.069138419560325,19.195680347459074,43.66143353188304,43.93953464632044,54.12505618341193,85.66814151971165,66.51868135254519,67.18488121610676,64.56728844145323,54.09691734283922,5.235185549307062,26.17592774653508,5.235185549306948,5.235185549306948,24.43086589676608,22.952705040949496,21.813273122112605,61.07716474191528,73.29259769029835,80.34868152110998,{}
105,47,704,0,23.49013333333298,1.74590940689302,152.38498937761776,17.459094068930312,22.763873609365813,43.68263940435076,43.78718516074961,52.49354712722406,92.79635785548948,70.0325156497878,69.83637627572091,69.83637627572091,57.615010427469656,11.348411144804686,28.807505213734885,4.364773517232607,2.6188641103395867,24.44273169650228,24.50500627309193,24.44273169650228,59.36091983436268,73.32819508950683,78.64348100262552,{}
106,47,705,0,23.523499999999647,2.5233454422225234,160.83234561785054,17.84274673471714,23.19557075513228,46.42544180442211,46.52819097135587,48.20844698376604,91.06795302175556,67.89628184111746,66.9103002551891,67.80243759192501,58.88106422456645,15.166334724509513,27.656257438811625,2.676412010207628,0.8921373367359138,21.411296081660566,21.485512235153383,21.411296081660566,62.44961357150987,74.93953628581187,82.09602697878319,{}
107,47,706,0,23.55686666666632,2.521765349303412,148.52748349895043,14.265259032429867,21.47205822874692,42.94411645749372,42.94411645749372,57.17237484267233,94.77611473197452,73.30490367649811,72.21787385167613,74.89260992025663,62.41050826688058,11.590522963849253,25.85578199627912,2.6747360685806143,0.8915786895269093,24.96420330675221,23.453773497157343,22.2894672381716,62.41050826688058,73.10945254120293,78.5399354636806,{}
108,47,707,0,23.59023333333298,12.606347318024063,150.00591208560024,16.20816083745956,25.276930904835083,43.25926485393232,45.345673549555976,54.05720957129128,108.11441914258243,82.86128370829204,76.53853728800345,75.63808390814461,63.03173659012043,15.307707457600712,38.71949533393104,13.506800697882907,2.70136013957665,23.48095135899507,23.68723015033803,23.41178787633044,64.83264334983824,77.43899066786236,81.22069520595535,{}
109,47,708,0,23.623599999999644,16.22963103429461,157.97351486663013,14.44968563591998,23.29941799573476,46.73649902695885,46.73649902695897,53.797750438270384,107.67011117666318,84.40778258128276,76.17117421682542,69.8982539872045,60.93693937346029,11.649708997867492,42.11817868459752,17.026497766113835,0.8961314613744662,25.155608871566965,23.368249513479427,23.299417995734814,62.72920229620911,73.48277983270214,80.67174309825684,{}
110,47,709,0,23.65696666666631,10.742316355201616,146.75027284494803,12.362181510762298,21.26576826600601,42.42139857449813,44.29170499629613,55.00256501512028,99.03926321108509,77.78537340969102,72.40706313446537,70.6410372043564,63.57693348392081,12.362181510762412,31.78846674196029,10.59615558065343,3.532051860217848,22.95833709141584,23.22844446678143,22.95833709141584,63.576933483920754,74.17308906457424,81.256386451618,{}
111,47,710,0,23.690333333332976,7.226571216099408,145.99062706294254,14.02160773412993,21.03241160119489,40.46424399214033,42.21062891931277,50.94906057694581,93.0418464624898,72.05285245808518,68.35533770388338,70.10803867064965,57.83913190328588,13.145257250746909,28.91956595164288,7.887154350447986,2.6290514501494044,21.105314459656388,21.322527534926305,21.90876208457803,61.344533836818414,73.61344060418207,82.39558908325316,{}
112,47,711,0,23.72369999999964,2.500073245406286,152.28914572387276,14.142549962318869,24.74946243405805,40.81326501192525,42.57471323913963,54.91631549122064,92.0794319826408,67.38613409178491,68.06102169365965,67.17711232101476,58.33801859456537,7.955184353804384,29.16900929728274,4.419546863224696,2.6517281179347947,23.049536432511985,21.506443248415938,22.09773431612325,60.10583733985521,72.48056855688424,81.3388754347614,{}
113,47,712,0,23.757066666666308,3.5165599550382467,148.07181303513445,14.066239820152871,22.92516611692443,40.47864491373972,40.59304545720448,53.01148524352271,90.29071569121422,67.39053877331148,66.814639145726,68.57291912324513,58.0232392581305,10.549679865114626,26.374199662786623,3.5165599550382467,1.1368683772161605e-13,21.09935973022931,23.126562367256685,22.857639707748376,59.781519235649625,73.8477590558025,80.89998844729517,{}
114,47,713,0,23.79043333333297,2.510589363734745,151.27212410073895,12.426783347101832,24.916887985859685,40.86943384271482,42.93768442568536,53.52326871813852,92.73900981666496,67.83238928349593,66.57205364518836,69.2349357909959,58.583407207765845,10.65152858323006,28.404076221947093,3.5505095277434293,1.1368683772161605e-13,23.078311930332006,21.59690631882428,22.19068454839612,62.13391673550922,74.56070008261105,81.68101310626729,{}
115,47,714,0,23.82379999999964,1.7607312074275114,153.43638511852612,14.195468819753517,24.7130401571195,40.64963649410991,40.64963649410991,51.182490708871576,90.22781131396688,65.52664742652917,65.14705467481792,66.90778588224543,58.10412984510788,11.44475284827888,27.29133371512637,2.6410968111412103,0.8803656037138126,24.65023690398516,22.95712624475365,22.889505696557706,61.62559225996296,72.18997950452803,81.16569822110463,{}
116,47,715,0,23.857166666666306,1.767421787102876,154.26261476689947,15.906796083925997,24.80694691784164,40.804100520527896,40.99504260464885,53.28710739132968,94.08927610611411,69.29104929144462,68.92944969701261,70.69687148411549,58.324918974395246,11.488241616168692,29.16245948719768,4.418554467757303,0.8837108935515516,24.80694691784169,23.24680409905828,23.860194125888995,61.85976254860111,72.46429327121842,81.32061104390739,{}
117,47,716,0,23.89053333333297,1.7756570244843033,153.21152480061858,17.84513224183697,23.15173508966622,42.76348399964953,44.70990146145142,51.52465939102947,92.60694035866484,69.45520526899863,69.25062395488817,71.02628097937247,58.59668180798224,13.317427683632332,27.52268387950687,4.439142561210815,0.8878285122420948,23.083541318296056,21.38174199982476,22.195712806053905,62.1479958569509,74.57759502834108,81.75738915494433,{}
118,47,717,0,23.92389999999964,8.679587653000908,141.13340475885843,13.99541456148867,22.633595481444363,39.96382272398216,40.07676827955339,53.84143483850831,99.084250588985,76.45923597386646,72.04057751990774,76.3803713464082,64.22894863220688,16.49121654070177,28.642639254903088,4.339793826500454,6.0757113571006585,22.63359548144436,23.160028536295453,23.43488666310253,60.75711357100653,72.90853628520784,83.32404146880901,{}
119,47,718,0,23.957266666666303,16.079258229944465,142.4515245348841,10.653942146905932,21.30788429381176,40.99422573929223,42.7634839996494,53.29929680220021,101.27473498635952,79.98344525831808,71.91410949161468,76.35325205282538,65.69930990591956,17.756570244843147,30.18616941623327,7.102628097937213,8.87828512242163,23.15173508966616,23.35512173524007,22.195712806053848,60.37233883246665,71.02628097937253,81.68022312627829,{}
120,47,719,0,23.99063333333297,15.946725798445703,144.67194309925202,8.805106329097384,22.960908143486595,40.54175410973558,40.656333012093896,52.83063797458419,100.43998336503438,77.50494471787427,69.56033999986926,75.72391443023741,66.91880810114003,18.490723291104587,29.056850886021262,6.163574430368158,11.446638227826613,22.960908143486662,23.49495413834596,22.01276582274346,59.87472303786211,70.44085063277896,82.7867316425598,{}
121,47,720,0,24.023999999999635,15.984220903459343,144.25212034405442,10.65614726897286,21.386167530812767,40.88715553119622,41.00271060532137,51.53532381569529,99.5207837451054,78.16525946408186,70.15296952073822,78.1450799724679,67.48893270349504,21.31229453794583,26.640368172432204,3.552049089657544,12.4321718138018,21.38616753081271,21.60627110834939,22.20030681036025,60.38483452417972,72.81700633798141,83.49204534729053,{}
122,47,721,0,24.0573666666663,2.5125697536096663,142.3099634872669,14.213240887852749,23.1647485454537,39.12677013168695,40.90167225419814,55.0763084404299,94.229740620675,71.08840915920602,70.17787688377348,72.84285955024586,65.73623910631943,14.213240887852749,24.87317155374251,0.0,3.553310221963216,21.393760552779742,21.39376055277976,22.20818888727007,58.629618662393,69.28954932828265,81.74544429268971,{}
123,47,722,0,24.090733333332967,2.458363549570645,149.85939005061238,12.291817747852887,19.200433116294285,41.75601228716432,41.86442271354764,52.14976609569567,85.33744410830451,66.14779793390453,65.18720761961958,71.27134699745068,60.84139377831161,13.906604292185534,19.12158090175501,1.7383255365232344,3.476651073046469,24.39856157999772,20.93221135677382,21.72906920653986,59.10306824178844,69.53302146092756,81.7752380599718,{}
124,47,723,0,24.12409999999964,1.8009067597176909,162.1216235852717,14.407254077741868,21.610881116612745,43.22176223322549,45.16651175236932,52.22629603181406,88.26280591272413,66.65788224478706,66.63355010955593,66.63355010955593,63.03173659012043,12.606347318024175,23.41178787633044,0.0,0.0,21.6857890747274,21.68578907472741,21.610881116612745,61.23082983040274,73.83717714842686,82.84171094701549,{}
125,47,724,0,24.1574666666663,3.971311611945384,142.62483399656608,14.208196358630516,23.15652696869396,37.46527881660983,39.43414446428826,53.39900671535291,87.31468441979139,64.15850259243818,65.71290815866621,69.26495724832387,56.83278543452218,9.7681349965585,23.97633135518901,0.8880122724144712,0.8880122724143575,23.15652696869391,21.606271108349315,22.20030681036019,62.160859069008495,72.81700633798141,80.00000000000003,{}
126,47,725,0,24.190833333332964,2.535457104689508,144.14246460517762,16.13555020920137,25.1636932678297,41.39090041869545,41.584588422812025,53.9045574495647,93.50303798497212,68.33985874393903,69.0242981171391,77.09207322173984,62.74936192467192,16.135550209201256,23.306905857735387,1.7928389121334476,3.585677824266895,23.375759496243,23.581114183192764,23.30690585773528,60.956523012538526,73.50639539747289,84.33968538259519,"{'neutral': (['m1', 'm3', 'm12', 'e1', 'e2'], 5.474051435559827, 12)}"
127,47,726,0,24.22419999999963,2.466857427219082,140.07971215809977,13.954652920056333,24.420642610098525,38.53354484289208,40.45947005726616,50.70577286395033,90.85607035628225,66.4908460907459,65.41243556276379,69.77326460028144,57.56294329523212,13.082487112552826,27.037140032609045,2.61649742251052,2.61649742251052,22.743301720049768,22.943100302238147,22.676310995091512,57.56294329523223,73.26192783029552,83.8005664863009,"{'neutral': (['m1', 'm3', 'm12', 'e1', 'e2'], 5.474051435559827, 12)}"
128,47,727,0,24.257566666666296,3.986271006827674,144.7954986134268,12.479002127204469,21.466726337668995,39.3814524654918,39.38145246549168,51.729450425409695,87.643587052194,66.17690127521466,65.0690825204232,71.30858358402554,60.61229604642165,14.261716716805154,21.39257507520768,1.7827145896006868,5.348143768801947,23.175289664808304,23.447949511197567,24.066646959608647,58.829581456821074,73.09129817362617,83.86341159616997,"{'neutral': (['m1', 'm3', 'm12', 'e1', 'e2'], 5.474051435559827, 12)}"
129,47,728,0,24.29093333333296,5.3198994873597485,145.79932729456323,10.639798974719383,21.35335760890357,39.17347360869163,41.13138277238796,51.42569504447727,88.68272268134122,67.3853935065564,64.72544376287658,69.15869333567628,58.51889436095689,12.413098803839375,24.82619760767864,3.5465996582397565,5.3198994873597485,21.279597949438823,21.573123511109618,22.16624786399882,58.51889436095689,72.70529299391609,83.3639547259142,"{'neutral': (['m1', 'm3', 'm12', 'e1', 'e2'], 5.474051435559827, 12)}"
130,47,729,0,24.324299999999628,5.589078433450298,147.2167927538267,12.371952509720243,21.282576610017493,40.689105175326205,42.74822999274571,51.28569556229946,90.15583714166574,68.92944969701261,66.2783170163583,70.69687148411549,58.32491897439536,13.255663403271685,25.62761591299181,4.41855446775719,4.41855446775719,21.28257661001755,23.24680409905828,22.9764832323375,58.3249189743953,74.2317150583213,79.61249374617145,"{'neutral': (['m1', 'm3', 'm12', 'e1', 'e2'], 5.474051435559827, 12)}"
131,47,730,0,24.357666666666294,7.35032055325305,153.68612806909405,12.479002127204469,23.17528966480836,41.0411719280375,42.93345267533787,51.729450425409816,94.4838732488339,71.30858358402554,67.74315440482428,73.09129817362623,62.395010636022334,16.044431306405727,26.74071884400962,3.56542917920126,7.13085835840252,21.466726337668987,21.466726337668987,22.283932370008017,58.829581456821074,74.8740127632268,78.52043261133653,"{'neutral': (['m1', 'm3', 'm12', 'e1', 'e2'], 5.474051435559827, 12)}"
132,47,731,0,24.39103333333296,8.788768100443576,153.17690755845857,10.546521720532382,22.91830325567219,43.97898152382931,44.08423651647066,50.97485498257299,93.1775229704428,70.31014480354895,65.91576075332716,72.06789842363764,63.27913032319407,16.698659390842863,25.48742749128656,2.636630430133096,7.909891290399287,21.16615646251293,22.9183032556722,22.850797061153457,58.00586946292793,72.06789842363776,79.27449339285512,"{'neutral': (['m1', 'm3', 'm12', 'e1', 'e2'], 5.474051435559827, 12)}"
133,47,732,0,24.424399999999626,5.589078433450298,154.2626147668994,14.13937429682312,23.04436073097749,44.2208789852402,44.32671291160486,51.285695562299466,93.8232988217542,70.78518741047202,68.04573880346118,74.23171505832136,61.85976254860111,16.79050697747755,25.62761591299181,0.8837108935513243,4.418554467757303,22.97648323233756,23.24680409905829,23.86019412588894,58.3249189743953,74.2317150583213,81.60820104105568,"{'neutral': (['m1', 'm3', 'm12', 'e1', 'e2'], 5.474051435559827, 12)}"
134,47,733,0,24.45776666666629,12.317602735082689,151.69840121441115,14.07726026866601,22.943127250537795,45.7849229357328,47.64092009836481,47.54332849004476,96.84513075482046,73.92656174644509,67.74681504295529,70.38630134333016,59.82835614183057,17.596575335832426,31.67383560449855,7.0386301343330615,7.038630134332948,21.189082616927102,21.18908261692709,21.99571916979062,56.309041074664094,70.3863013433301,80.96337099791265,"{'neutral': (['m1', 'm3', 'm12', 'e1', 'e2'], 5.474051435559827, 12)}"
135,47,734,0,24.49113333333296,14.194770495340777,151.08014446300734,12.54652309330284,19.517809431093724,44.39413054075239,46.167113544543376,47.90735042177539,94.05709215827308,74.54366527812105,67.42515985286911,69.19950616478661,60.32777460519867,16.85628996321725,29.27671414664053,7.984558403629194,6.210212091711583,21.29215574301128,21.58585452381051,22.179328898970084,60.32777460519861,76.29689141245706,81.69703941627931,"{'neutral': (['m1', 'm3', 'm12', 'e1', 'e2'], 5.474051435559827, 12)}"
136,47,735,0,24.524499999999623,13.780308121445046,151.82787094589943,13.780308121445046,22.459154462439493,43.09789988052451,46.63596080594622,46.54042783951292,96.52365647819902,74.08918296296218,67.17900209204458,67.17900209204458,58.56630951614147,16.364115894215956,33.58950104602229,11.196500348674135,4.306346287951556,19.02605976617976,19.02605976617981,18.947923666986924,56.84377100096083,72.34661763758652,82.75359004258267,"{'neutral': (['m1', 'm3', 'm12', 'e1', 'e2'], 5.474051435559827, 12)}"
137,47,736,0,24.55786666666629,8.744720602223424,145.33083715820442,10.638411763426298,22.80344143313597,40.26371734343653,42.12015207871477,50.71937949289577,92.76001279646393,69.9796232044534,65.58540451667557,68.20882069734262,61.213044215563855,13.991552963557524,27.98310592711482,3.497888240889324,5.2468323613341,22.736273565780834,23.333824921901865,22.736273565780834,55.96621185422981,73.45565305867666,84.0221588516919,"{'neutral': (['m1', 'm3', 'm12', 'e1', 'e2'], 5.474051435559827, 12)}"
138,47,737,0,24.591233333332955,14.12787909282394,150.95639192090908,14.018781868694871,24.59537249449929,42.09283701911551,43.94865757275165,47.34582856986535,100.0220683834717,75.4324130572601,68.3415616098871,70.09390934347391,61.332170675539714,18.39965120266197,34.17078080494355,7.885564801140845,6.133217067554028,21.0281728030422,21.3182302678302,21.904346669835604,54.32277974119228,73.59860481064766,82.43487774132758,"{'neutral': (['m1', 'm3', 'm12', 'e1', 'e2'], 5.474051435559827, 12)}"
139,47,738,0,24.62459999999962,15.85237108398212,159.65063660251388,12.254210714962484,21.080033901810086,47.39573812339959,49.29738669971356,47.26624132914094,96.34672139632757,75.2962189007043,67.39815893229354,63.02165510552129,52.518045921267685,10.503609184253492,38.513233675596325,15.755413776380353,1.7506015307088774,19.256616837798163,17.59332764576851,18.381316072443667,56.01924898268555,75.27586582048372,78.79651760923943,"{'neutral': (['m1', 'm3', 'm12', 'e1', 'e2'], 5.474051435559827, 12)}"
140,47,739,0,24.657966666666287,13.871481214425724,145.02677878127793,12.043818435533352,22.36709138027641,39.609931791359166,43.15106138113165,48.17527374213364,96.36590827312284,74.00345974261626,67.10127414082888,67.10127414082899,55.05745570529552,12.904091180928615,35.27118256120502,11.183545690138205,4.301363726976206,19.00404609227456,20.931339286107843,20.64654588948582,55.05745570529558,73.98345610399099,79.31322821568858,"{'neutral': (['m1', 'm3', 'm12', 'e1', 'e2'], 5.474051435559827, 12)}"
141,47,740,0,24.69133333333296,16.073997248384824,153.7815469335957,12.204288537237744,22.66510728344167,43.62160023505871,47.20265359784148,47.07368435791727,97.69655523332872,75.05024882300933,67.12358695480793,66.25185205929097,55.79103331308716,13.947758328271789,36.61286561171335,12.204288537237744,3.486939582067976,20.994156384002828,21.2102254352166,21.79337238792465,54.04756352205311,74.96920101446074,80.36998624192427,"{'neutral': (['m1', 'm3', 'm12', 'e1', 'e2'], 5.474051435559827, 12)}"
142,47,741,0,24.72469999999962,14.244750258870113,150.0883190567781,14.35560601839417,24.991824681315528,44.65706487198057,46.43220507456856,49.85662590604545,103.33582092123312,78.36635783185015,71.22375129435056,71.22375129435056,58.75959481783923,15.135047150049443,38.28276632071345,13.35445336769078,4.451484455896889,21.367125388305222,19.90764368833836,19.586531605946448,56.97900103548051,76.56553264142696,83.85821686050973,"{'neutral': (['m1', 'm3', 'm12', 'e1', 'e2'], 5.474051435559827, 12)}"
143,47,742,0,24.758066666666284,12.211250217453305,145.71864526803415,10.504514628777766,19.074582610655884,41.48231974971185,43.31122336029672,50.11078128253015,91.7876718347228,72.71591879516848,66.48686533355715,69.07726268421527,55.261810147372216,12.0885209697376,29.35783664079156,8.634657835526923,3.4538631342106783,19.074582610655884,19.30768188268941,19.85971302171191,55.261810147372216,74.2580573855314,81.23923686686221,"{'neutral': (['m1', 'm3', 'm12', 'e1', 'e2'], 5.474051435559827, 12)}"
144,47,743,0,24.79143333333295,15.847666868536532,145.9299796431576,12.250574259127916,24.74989752016776,40.40378130379282,42.32883738932606,49.12714385550706,101.8812328395198,77.182387758425,69.1282404622217,68.25319944371256,54.25254314756637,12.250574259127916,40.251886851420295,14.00065629614619,3.5001640740365474,21.000984444219284,21.290666879445475,20.125943425710147,54.25254314756643,75.25352759178571,80.57982830053278,"{'neutral': (['m1', 'm3', 'm12', 'e1', 'e2'], 5.474051435559827, 12)}"
145,47,744,0,24.824799999999616,10.452527396069415,137.6425247224762,12.150816286981495,24.1186816715486,37.84350226218169,39.560191686387526,49.86278116640875,96.47472668619471,72.35604501464613,67.01701182911711,67.01701182911711,60.14347215433588,13.747079349562457,32.64931345521086,6.873539674781227,3.436769837390557,20.692094521239845,20.905054792138795,21.47981148369138,53.2699324795546,75.60893642259362,80.92845015491932,"{'neutral': (['m1', 'm3', 'm12', 'e1', 'e2'], 5.474051435559827, 12)}"
146,47,745,0,24.85816666666628,12.622253812178933,139.7939540564736,9.102036666346422,21.49492369763828,39.31178609019109,39.43318149831278,57.14968479030173,100.21783375973114,78.72482601780493,72.29477824204082,76.75741887426557,64.2620251040363,13.387921896674245,29.45342817268329,8.032753138004523,6.247696885114578,21.42067503467877,23.478749283016928,24.098259414013626,53.551687586696914,76.75741887426557,84.06837979898613,"{'neutral': (['m1', 'm3', 'm12', 'e1', 'e2'], 5.474051435559827, 12)}"
147,47,746,0,24.891533333332948,3.946915740696569,129.82893229561583,12.35580065672616,21.254791743524603,37.23512862754899,39.19189948198519,54.832305858705226,92.05710326803828,70.80287208500953,68.83946080175986,77.66503269942143,61.779003283630686,15.003472226024655,22.063929744153825,0.8825571897660893,6.17790032836308,21.18137255438768,21.83325908432483,21.18137255438768,54.71854576550146,75.89991831988914,81.36775247152528,"{'neutral': (['m1', 'm3', 'm12', 'e1', 'e2'], 5.474051435559827, 12)}"
148,47,747,0,24.924899999999614,3.887895292614066,144.6903099097056,13.909757061898064,19.20478605125417,36.6783308339317,38.40957210250823,55.74759230838029,87.36958024505155,68.1657930524229,68.67942549312113,69.54878530948986,59.11646751306637,8.69359816368626,22.60335522558421,3.477439265474459,1.7387196327372294,20.864635592846923,21.15243726541597,21.733995409215595,52.161588982117394,74.76494420770155,80.15101476394504,"{'neutral': (['m1', 'm3', 'm12', 'e1', 'e2'], 5.474051435559827, 12)}"
149,47,748,0,24.95826666666628,3.893674801089582,136.93340730140628,14.038844145310678,19.46837400544817,38.6632300878334,38.6632300878334,57.56847901084051,87.68984429914337,68.26712417094522,69.65217230011513,73.13478091512081,55.72173784009203,6.96521723001149,22.636955997537484,3.4826086150058018,1.7413043075029009,20.895651690034526,21.183881191050787,21.766303843785977,52.23912922508634,73.13478091512087,80.27016238349196,"{'neutral': (['m1', 'm3', 'm12', 'e1', 'e2'], 5.474051435559827, 12)}"
150,47,749,0,24.991633333332945,2.518314539847325,136.28014504733784,14.245738306293449,23.421679113994585,42.885351289989,43.0698052650553,57.09413958109475,93.02437117192208,69.65313857270655,70.33833288732365,76.57084339632706,60.54438780174701,11.574662373863475,24.039683391870085,0.8903586441432481,0.8903586441433617,19.587890171153447,19.90902452659044,20.47824881529669,55.20223593688689,74.79012610804028,76.65362271065888,"{'neutral': (['m1', 'm3', 'm12', 'e1', 'e2'], 5.474051435559827, 12)}"
151,47,750,0,25.02499999999961,2.415056510625076,135.985053402678,15.369325520505186,20.56346520749,36.024030781778336,37.91715633528998,54.88611109309148,92.61041104950372,72.0480615635568,70.86966767788533,73.43122193130284,56.354193575185946,10.246217013670162,27.32324536978706,6.8308113424467365,0.0,20.492434027340323,20.56346520749,21.34628544514624,52.93878790396252,75.13892476691456,77.01720856181531,"{'neutral': (['m1', 'm3', 'm12', 'e1', 'e2'], 5.474051435559827, 12)}"
152,47,751,0,25.05836666666628,3.826043561188768,141.14937938583506,13.688469580309288,20.603875136277,39.50285755237577,39.502857552375886,54.99396956044031,85.97963545350312,65.37946103308832,66.73128920400768,68.44234790154633,53.04281962369839,5.9887054413853775,24.81035111431049,2.5665880463078565,2.5665880463078565,18.8992610359127,18.89926103591269,18.82164567292523,51.33176092615975,73.57552399416232,75.46137442554385,"{'neutral': (['m1', 'm3', 'm12', 'e1', 'e2'], 5.474051435559827, 12)}"
153,47,752,0,25.091733333332943,3.5077936304254536,143.14420019641778,14.140368188165189,21.1197143818271,40.68133322134919,40.94513342187744,56.15209603722572,91.6232741765452,70.50577938067329,70.15587260851055,73.66366623893612,56.12469808680851,8.769484076063804,26.308452228191413,5.261690445638237,0.0,21.046761782553176,21.337075659171106,21.046761782553062,52.61690445638288,75.41756305414879,82.6009059102931,"{'neutral': (['m1', 'm3', 'm12', 'e1', 'e2'], 5.474051435559827, 12)}"
154,47,753,0,25.12509999999961,12.511123227985443,147.9172485366166,10.762475146318245,21.5249502926364,40.84838624939056,41.03953556781538,54.87807078563409,99.47719881360396,78.03170606980854,71.65827060562879,76.08162064301325,58.38822049347527,12.385380104676528,31.84812026916836,10.6160400897229,5.308020044861337,23.001420194399373,21.52495029263645,22.11675018692239,51.31086043366008,74.3122806280594,83.45960158633433,"{'neutral': (['m1', 'm3', 'm12', 'e1', 'e2'], 5.474051435559827, 12)}"
155,47,754,0,25.158466666666275,12.55447962090531,149.1160776856855,13.903286095795856,22.48460393741729,45.13423304546674,48.56209060564555,53.48700955438592,101.8763776705576,79.40150088045608,73.29084203441982,70.70410643320497,55.18369282591607,9.484697204454278,38.80103401822225,14.658168406883988,0.8622452004049137,18.96939440890867,19.04761904761908,18.969394408908613,50.010221623486416,75.87757763563457,77.90804090601118,"{'neutral': (['m1', 'm3', 'm12', 'e1', 'e2'], 5.474051435559827, 12)}"
156,47,755,0,25.19183333333294,15.768629397596566,147.52257800270053,14.039243234989565,22.9039333725547,42.11772970496872,45.575590661377255,52.35657580513504,105.00233512585294,82.13949486742487,74.0075368606241,74.8782137648667,55.72332187152881,13.060153563639574,39.18046069091861,16.54286118061009,4.353384521213229,20.89624570182326,21.1844833964927,20.89624570182326,52.24061425455818,76.61956757335201,83.74807561175605,{}
157,47,756,0,25.225199999999607,5.546308716987817,138.95689583148214,10.668537829585588,19.372423510919944,38.6255706576684,40.49185229739907,59.735573024451945,95.11555617759926,75.74316656729596,72.78671783132972,73.66366623893612,63.14028534765953,8.769484076063918,26.308452228191413,7.015587260851021,1.7538968152127836,21.04676178255312,19.997500468652348,20.169813374946727,52.61690445638288,75.41756305414879,79.23654707520956,{}
158,47,757,0,25.258566666666272,17.13411747512471,144.0319702906293,10.229450465505693,18.83132889982401,39.54505565825213,42.75888541308645,54.583701842748034,100.71954768943996,81.90661076883461,73.31106166945688,73.31106166945688,57.96688597119851,11.08190467096449,34.95062242381084,14.49172149279957,5.967179438211588,20.45890093101121,19.061455511114502,18.75399252009361,51.14725232752807,75.01597008037453,82.1192635129712,{}
159,47,758,0,25.29193333333294,6.960404332931034,141.63396676512622,10.58462166801973,20.953591770406533,38.3217511765307,38.63651417344577,55.791884980740775,94.22289858931688,73.2704476969111,69.60404332931137,73.08424549577683,59.16343682991464,10.440606499396608,27.841617331724592,5.220303249698418,1.7401010832327302,19.1411119155606,21.16924333603946,20.881212998793444,53.94313358021628,76.56444766224246,80.34670618437552,{}
160,47,759,0,25.325299999999604,8.876085539897087,144.99464156163788,10.444461547443323,22.696519613713004,38.45428280721392,40.18818654141065,54.07524074546021,95.9937626598906,73.29750178579812,68.75937185400187,69.62974364962213,57.44453851093817,9.574089751822951,32.20375643795023,9.574089751823069,2.6111153868607744,22.62966668612717,21.53180908140545,21.759294890506908,50.48156414597605,74.85197442334385,78.6423182463384,{}
161,47,760,0,25.35866666666627,10.63841176342628,149.31722457605736,10.493664722668086,21.27682352685256,42.12015207871467,45.60688286627194,52.4974645895463,94.70173088616858,73.53888895286924,68.20882069734273,68.20882069734262,54.21726773378521,8.74472060222331,33.229938288449034,10.4936647226682,1.748944120444662,22.736273565780834,21.27682352685256,21.86180150555856,50.71937949289577,75.20459717912132,82.36765554402729,{}
162,47,761,0,25.392033333332936,10.719772557811517,143.62635687097003,10.57391851588784,21.22113997958442,40.57164752143787,40.876701798070506,54.74549231400837,97.1835857491024,75.96395429310554,70.49279010591897,75.77974936386283,59.91887159003113,13.217398144859771,29.07827591869159,7.930438886915908,4.405799381619886,19.38551727912767,21.79869145883988,21.14783703177557,51.10727282679113,74.01742961121477,81.23892653751689,{}
163,47,762,0,25.4253999999996,2.439727491558976,140.59690410539187,8.796562568974911,20.77353104066501,37.992440452268006,40.01450602838237,57.03433774816693,88.40435971160606,67.63371699169872,66.41819236085053,74.18135770172921,58.65502701997195,9.488313194407285,21.56434816910724,0.8625739267641848,2.587721780293009,20.70177424234305,20.98732944533619,20.70177424234305,50.02928775232903,72.45620984820061,79.65626195379187,{}
164,47,763,0,25.458766666666268,3.9373053984912056,147.2046809684441,10.56489902304395,21.20303846689579,42.40607693379146,42.8425146091708,56.37363416706967,90.07742473804008,68.8747151217514,67.79143539786548,70.43266015362656,52.824495115219975,5.282449511522032,28.17306406145053,7.043266015362519,1.7608165038406014,21.12979804608796,21.42125730458539,22.01020629800832,49.302862107538544,75.71510966514853,81.30321142944726,{}
165,47,764,0,25.492133333332934,2.549244888079776,154.73937469352344,9.012941736331754,18.115788686108807,41.81072488415912,42.08184868309312,59.59456310287543,85.0279222848796,66.9146434279316,67.59706302248833,75.70871058518696,54.07765041799075,5.407765041799053,19.828471819929973,1.8025883472663509,1.8025883472663509,23.43364851446261,21.92943371260802,21.631060167196267,52.27506207072429,79.31388727971967,81.43630525839579,{}
166,47,765,0,25.5254999999996,4.039579804565096,156.6294652776634,10.839330052251512,18.155653140234143,43.50760599831062,43.69473635006493,57.83798081258804,85.21502933089545,67.0618915427928,67.74581282657175,74.06875535705171,54.19665026125733,6.322942530480077,20.77538260014865,2.7098325130629064,0.9032775043542642,23.485215113211552,21.97769023179026,22.58193760885723,52.3900952525488,77.68186537446894,81.6155088200717,{}
167,47,766,0,25.558866666666265,4.005611787507324,158.46232632654838,16.221491392359027,20.028058937536933,43.32731606838271,45.35371524541701,50.158193390709584,82.71370114921619,62.80002197234685,64.4891057880551,66.28046983772333,50.158193390709584,8.061138223506873,24.18341467052062,4.478410124170523,2.687046074502291,21.570879629128,21.79288423888999,20.60068657118427,53.740921490045935,80.61138223506885,82.71370114921619,{}
168,47,767,0,25.59223333333293,0.0,163.6387443535466,13.838364478610853,20.668648893067303,46.47079197610744,48.335329145493056,46.47079197610744,80.9642121757329,60.295606294899,60.07532528386332,60.07532528386332,46.34382236183751,6.865751461012906,27.46300584405185,6.865751461012906,3.432875730506453,20.59725438303883,20.881367864694948,20.597254383038887,51.49313595759719,75.52326607114253,75.83470354116899,{}
169,47,768,0,25.6255999999996,2.5321274134633995,165.89783061924464,12.533391254218486,18.259430450501053,48.64057924024819,50.42050032350168,51.95491073232202,80.88948298383691,62.76918628402867,63.56219850353705,68.03840966575797,48.34308055198596,6.266695627109243,22.3810558111046,4.47621116222092,0.8952422324441613,19.69532911377212,20.414663858875013,20.59057134621628,55.50501841153948,78.7813164550883,82.53725562065294,{}
170,47,769,0,25.658966666666263,3.821745203826666,158.16670101829558,12.085419480916828,17.42983984957464,41.161455546965,41.338494882467096,49.594415111588205,75.68599485536093,58.33640871610581,59.81977447908184,63.23804730645793,46.146683169577386,5.1274092410642425,20.509636964256515,5.127409241064129,3.418272827376086,20.50963696425663,20.79254187269992,20.50963696425663,51.27409241064152,75.20200220227423,78.9169563669771,{}
171,47,770,0,25.69233333333293,3.93551364338437,162.53242532528338,10.705754551443777,14.189696236510544,42.38677914070279,42.38677914070267,52.800456197912354,74.10897181970672,59.94395792609484,61.60053223089778,65.12056264409193,51.04044099131522,5.280045619791167,15.840136859373729,1.7600152065971315,0.0,21.120182479164896,21.77018579847915,22.00019008246346,51.04044099131528,77.44066909027146,81.26621266264164,{}
172,47,771,0,25.725699999999595,1.7904844648883227,172.64021678885916,16.213526413416094,21.78218362820808,50.26129405195611,50.642548269269376,44.79790699907891,80.88948298383703,59.19440208815534,59.9812295737604,68.03840966575808,51.92404948176272,15.219117951551198,20.59057134621628,0.8952422324441613,2.6857266973325977,19.69532911377206,20.414663858875013,20.590571346216223,51.92404948176272,76.99083199019987,84.45698329498678,{}
173,47,772,0,25.75906666666626,3.956364548747161,165.69564585797497,14.264875244935936,19.78182274373599,48.0661658271733,48.0661658271733,46.00284038879863,76.41009112076524,56.72935644791998,58.38822049347516,67.2349205682442,47.772180403752486,11.500710097199658,18.578070157014963,0.8846700074769842,2.654010022430612,23.001420194399373,21.88552730785925,22.116750186922445,51.31086043366008,77.850960657967,83.45960158633433,{}
174,47,773,0,25.792433333332927,1.774695551442278,162.46947645908793,12.548992589664454,19.841699461957155,46.27839802985999,48.2116551637472,48.048058983964445,80.5680507579583,60.75578918886826,60.33964874903779,67.4384309548069,49.69147544038401,10.648173308653668,21.296346617307563,1.7746955514423917,1.7746955514421645,21.29634661730745,19.841699461957155,20.408998841586254,53.24086654326862,78.08660426346069,81.71311961157276,{}
175,47,774,0,25.825799999999592,2.4638605415557824,159.3148306341653,8.883575518171847,15.776405151290255,42.13849860530035,43.86778977257312,48.81305093448312,71.7698511900913,55.99526255669894,56.621906147041614,64.46186238278585,48.781949911297374,7.839956235744239,14.808806223072452,0.8711062484160266,2.61331874524808,20.90654996198464,21.19492979109458,20.90654996198458,48.78194991129743,78.39956235744228,78.70867962292573,{}
176,47,775,0,25.85916666666626,3.9773931063554233,167.9665870706356,10.672465630859731,17.876158693471304,44.61067938339936,46.5541927368553,48.157673928836125,75.23478510014266,57.3627791505659,57.80918883382356,65.81353805696835,49.80483961067876,9.783093494954755,16.898070582194578,0.8893721359049778,2.6681164077149333,21.418917380484608,21.63935801509644,22.2343033976245,49.80483961067887,78.26474795963816,80.35909125642128,{}
177,47,776,0,25.892533333332924,3.813226425521123,162.90110430698186,11.9372869014893,17.138321230514798,44.63267100235098,48.02243589704323,42.93902914513452,70.663108679178,53.5483445710147,53.71779105670191,61.39176120765933,44.33849420553179,10.231960201276593,17.053267002127654,0.0,1.7053267002127086,18.8359490560986,19.44371595347993,19.61125705244677,46.04382090574455,73.32904810914869,77.04227420221896,{}
178,47,777,0,25.92589999999959,5.551434203120633,166.14469695738268,10.67839689901238,16.185072892897743,44.20280462271656,44.44615654600693,49.279728396901305,71.00629403098135,54.87221338000849,57.05432317787529,66.70967017720807,47.39897617854263,7.8998293630904755,13.16638227181727,0.877758818121265,0.877758818121265,21.0662116349078,21.356793798024924,21.06621163490786,49.154493814784814,78.99829363090424,79.07627814508727,{}
179,47,778,0,25.959266666666256,5.47683194190148,158.55404823980962,10.534896584370424,15.68325994755646,38.2595031364476,41.88970941663609,48.61748886813079,69.81618236106024,54.13481993419445,56.28760571970827,65.81320053381273,48.49393723544097,8.65963164918594,12.123484308860156,1.731926329837279,1.731926329837279,19.05118962820893,19.363525027688286,19.91715279312757,48.49393723544097,77.936684842673,78.24397705419804,{}
180,47,779,0,25.99263333333292,3.882470592565397,157.42927550709885,10.561461853162122,19.41235296282684,43.54602278151883,43.95944366178535,48.74008491351289,75.383943045617,55.99378718790184,57.29768989309218,67.71545169183628,48.61622172747218,9.549614982182106,16.49478951467802,0.8681468165621027,2.6044404496860807,20.90774399981761,19.41235296282684,20.83552359748808,46.87992809434815,78.1332134905802,83.63097599927035,{}
181,47,780,0,26.025999999999588,5.534669133186388,160.6484790891752,12.251512389409072,19.56801037849977,43.89519536157589,44.06931423380476,47.77160139488228,74.52304050178213,54.957898922768166,56.88202180797089,66.50821011393509,45.50561744637662,8.751080278149288,17.502160556298804,0.0,0.0,12.375896414774562,12.375896414774562,12.251512389409072,45.50561744637668,75.25929039208455,79.07025982419654,{}
182,47,781,0,26.059366666666254,3.935627937654236,166.78892171096487,12.320464243839185,17.9492250273881,46.30011608288325,48.32976746641417,45.89691436094277,74.67328983587231,56.76043332144458,57.20215541782488,68.64258650138993,47.52179065480834,12.320464243839185,15.84059688493619,0.0,5.280198961645397,7.871255875308574,5.565818405885183,5.280198961645397,51.04192329590535,80.96305074522917,79.69039200615367,{}
183,47,782,0,26.09273333333292,3.865862221482656,151.83539909293128,10.516282199266056,15.939358273257923,38.38705803453792,40.36078651349655,48.53158535181701,71.63850550994292,55.754257853739006,57.0525827446312,65.69691346351476,44.95051973819432,6.915464575106853,15.559795293990303,1.7288661437765995,1.1368683772161605e-13,9.310229113712602,10.934309567773052,9.508763790771866,48.408252025747686,81.25670875750507,80.20150225491697,{}
184,47,783,0,26.126099999999585,3.923228167598829,154.6070503019779,10.67233444412708,19.61614083799408,40.95970457412312,42.689337776508445,50.911349643756985,79.65216052893872,60.065122936539225,60.5309736305511,71.93535996674177,47.37206631956167,8.772604873992918,19.29973072278437,1.7545209747985382,3.50904194959719,7.846456335197657,9.448384606864613,7.895344386593592,43.86302436996448,77.1989228911375,81.39162098993704,{}
185,47,784,0,26.15946666666625,6.318482774221918,150.96363533599072,8.935684032925304,17.87136806585063,40.91093270248586,42.63850638199608,52.60215360894863,74.34938529705478,56.51422799128603,58.70646588133536,71.84970451148513,47.31565906853905,7.009727269413247,14.019454538826269,1.7524318173533402,3.5048636347066804,8.935684032925325,8.935684032925325,7.88594317808986,45.56322725118565,78.85943178089826,81.29470569885913,{}
186,47,785,0,26.19283333333292,4.784675303139724,145.72655337600494,10.28983331369831,16.048288842127,37.82617955569462,37.8261795556946,52.5498080812359,75.65235911138932,59.80844128924552,60.89897434726515,71.04880340514273,47.365868936761785,6.766552705251797,15.224743586816205,1.6916381763128356,1.691638176313063,11.961688257849142,12.315311816460143,10.995648146033943,43.98259258413594,77.81535611039436,78.47450972444258,{}
187,47,786,0,26.226199999999583,6.298626852192373,145.32062311800277,10.62612856723713,16.10585063062607,40.78236951430936,39.41241937568942,56.14671668633549,78.12485098881439,62.03428021381743,63.76275430320618,71.6239157926426,47.16696893661822,3.49384955086066,17.46924775430307,1.7469247754303296,1.7469247754303296,17.55637671252912,16.572783574013783,14.848860591157631,45.420044161187946,78.61161489436381,81.03923592938361,{}
188,47,787,0,26.25956666666625,6.986997531210398,137.93010614289832,10.307823917503002,17.281554239944647,37.6261332126097,38.23182417912519,52.967980009909766,74.11798674318905,56.83847149587318,59.310853467579705,71.17302416109567,45.7540869607044,5.931085346758096,14.404064413555034,0.8472979066798416,0.8472979066798416,15.345217743444822,16.07634745080411,14.404064413555034,44.05949114734494,77.95140741453332,81.78070937975616,"{'happy': (['m1', 'm3', 'm12', 'e1', 'e2'], 3.6584761336049163, 110)}"
189,47,788,0,26.292933333332915,4.856921543917108,149.3552732897662,12.142303859792657,17.51187966749861,40.08799594587551,38.397336238798495,53.34328430415778,79.89968093127173,62.41191430073083,63.53569994880331,68.68724318789555,46.36388915182943,4.2929526992435285,21.4647634962173,4.292952699243415,2.575771619546117,18.966884957141083,17.92789680334268,17.171810796973887,41.212345912737305,75.55596750668508,88.18021625660266,"{'happy': (['m1', 'm3', 'm12', 'e1', 'e2'], 3.6584761336049163, 110)}"
190,47,789,0,26.32629999999958,7.67070750377901,143.3006420410516,12.12845348844314,17.491904377864767,38.35353751889509,38.69717986284184,53.28243717785119,76.41888212769653,58.944783065033015,61.74800429028346,72.03933833866392,44.59578087631576,5.145667024190175,17.152223413967704,1.7152223413968386,1.1368683772161605e-13,20.654012047586694,19.55654362241591,18.86744575536437,44.59578087631581,78.90022770425105,82.97138767188498,"{'happy': (['m1', 'm3', 'm12', 'e1', 'e2'], 3.6584761336049163, 110)}"
191,47,790,0,26.359666666666246,9.326708719988728,138.95403715882588,12.246568523433888,19.36352502768825,38.72705005537648,35.32450460777958,54.13481993419455,77.78258348608814,58.42524546835016,61.48338470921976,71.00897952332434,46.7620109056038,5.195778989511496,17.319263298371766,0.0,1.7319263298371652,20.85515470423496,21.422745581121085,19.91715279312757,43.29815824592947,77.936684842673,83.77941883327243,"{'happy': (['m1', 'm3', 'm12', 'e1', 'e2'], 3.6584761336049163, 110)}"
192,47,791,0,26.393033333332912,7.434938529705512,140.91556939081303,14.128556997821535,19.592783347677354,39.18556669535471,40.91093270248586,56.32371476145505,85.58256948477377,65.99016968610958,67.46862496810184,77.10699996354504,50.820522703245615,7.88594317808986,20.1529658995629,0.8762159086766133,0.8762159086766133,22.848915437286465,21.67638445392229,21.02918180823957,47.315659068538935,77.10699996354492,81.08666958659055,"{'happy': (['m1', 'm3', 'm12', 'e1', 'e2'], 3.6584761336049163, 110)}"
193,47,792,0,26.42639999999958,6.139109857595596,139.68226252893177,13.621461770626183,15.697959045950489,41.182400888768896,41.428058633127314,51.53253011206641,76.1462861800871,60.46322001706437,62.147919328481976,71.51267429578752,49.37779891851994,9.36475496730543,14.472803131290448,0.851341360664037,0.851341360664037,20.503015026549903,19.41356995599425,18.72950993461103,45.972433475863454,76.62072245977242,80.47765501184192,"{'happy': (['m1', 'm3', 'm12', 'e1', 'e2'], 3.6584761336049163, 110)}"
194,47,793,0,26.459766666666244,9.22252138727424,143.417646545725,10.417212757363394,19.14721785168919,41.66885102945351,41.98439584678947,48.22666892977932,86.718085751177,67.57638856424894,62.50914181670703,71.92832756990936,42.81448069637463,9.41918575320244,28.25755725960721,9.41918575320244,4.281448069637463,22.26352996211483,22.525462854749648,21.407240348187315,44.52705992422966,75.35348602561942,77.74807912529592,"{'happy': (['m1', 'm3', 'm12', 'e1', 'e2'], 3.6584761336049163, 110)}"
195,47,794,0,26.49313333333291,11.343594123581893,140.96314411727667,11.95719809434019,20.36237462024365,39.47686652095721,39.80148760839956,49.3007907293985,92.310808367875,72.00179510298321,65.94912368069038,71.02213319458963,45.65708562509326,9.300517442148587,32.974561840345245,12.68252378474824,2.536504756949625,22.04798388308529,20.916554065569915,20.292038055597004,43.96608245379355,76.09514270848882,83.2894166487494,"{'happy': (['m1', 'm3', 'm12', 'e1', 'e2'], 3.6584761336049163, 110)}"
196,47,795,0,26.526499999999576,3.847683832341314,138.05626853841406,10.466831634505631,20.93366326901128,38.20655111552126,38.476838323413,53.78506008840457,87.4195121525144,66.48815475612983,64.52761953781544,72.27093388235323,48.18062258823545,6.88294608403362,25.81104781512613,5.162209563025272,1.7207365210084618,18.92810173109251,21.284335289926616,19.78846999159674,48.18062258823551,77.4331434453785,79.82437186739108,"{'happy': (['m1', 'm3', 'm12', 'e1', 'e2'], 3.6584761336049163, 110)}"
197,47,796,0,26.55986666666624,7.001589695776233,130.9327005852428,13.690801522147048,25.97646948197104,37.97145145407831,37.97145145407819,51.39488906467161,97.99283288090996,72.04576359443982,67.92539732452178,74.71793705697394,52.64218292650435,12.736011998347864,33.11363119570433,7.641607199008604,4.245337332782697,22.14097068061841,21.00476908732876,21.22668666391303,44.15150826093912,76.416071990087,78.57430164829331,"{'happy': (['m1', 'm3', 'm12', 'e1', 'e2'], 3.6584761336049163, 110)}"
198,47,797,0,26.593233333332908,3.816835595861788,142.91488382986623,10.382915358761045,24.139787874658264,34.814897184361755,34.814897184361755,54.64876908949263,92.56908349284654,68.46939236042991,66.57069004004506,69.98457158056021,51.20822310772701,5.974292695901454,31.57840424976496,9.388174236416605,0.8534703851287304,22.25578475000317,19.462119183474748,18.77634847283321,46.087400796954284,76.81233466159051,79.1843917631275,"{'happy': (['m1', 'm3', 'm12', 'e1', 'e2'], 3.6584761336049163, 110)}"
199,47,798,0,26.626599999999573,11.848038114474548,137.9424191887264,11.96832584928804,22.26237295923736,37.58130547278117,37.84716946281921,52.57896819214314,98.5335629415804,76.33502934735178,70.24194025009899,71.08822868684717,55.8550368253799,11.001749677726366,34.69782590667535,11.001749677726366,2.538865310244546,18.69512261710944,19.29834556251681,17.772057171711765,45.699575584401714,77.85853618083263,78.15234302172352,"{'happy': (['m1', 'm3', 'm12', 'e1', 'e2'], 3.6584761336049163, 110)}"
200,47,799,0,26.65996666666624,3.843844537121785,147.3351176770637,10.45638762236516,17.530628316511322,43.2838059403414,44.99104681046948,53.317324528130015,83.15507144102843,65.68364424317373,64.46323259959149,68.7607814395642,49.85156654368405,6.0165683759618105,23.206763735852974,4.297548839972819,0.8595097679946093,5.43601707605136,4.862121483560194,4.297548839972762,42.97548839972762,77.35587911950972,78.040457765804,"{'happy': (['m1', 'm3', 'm12', 'e1', 'e2'], 3.6584761336049163, 110)}"
201,47,800,0,26.693333333332905,5.137820092023448,164.49050179402337,16.449050179402345,23.89224452242272,49.34715053820704,51.37820092023426,41.81882576654282,86.06807149286614,62.18672777335156,59.94429255517309,67.21026741034564,49.04533027241439,16.348443424138168,27.24740570689687,3.632987427586272,3.632987427586272,9.262336892949817,9.262336892949762,9.08246856896568,45.412342844828174,78.10922969310445,80.6654116766095,{}
202,47,801,0,26.72669999999957,3.595115309766129,164.56245177181285,14.492373131094125,21.64546051210616,45.261345244552,47.046586092941816,44.97487815620517,81.38788436486493,59.7535851853644,59.31940261114016,61.11696026602317,43.14138371719287,7.190230619532144,28.760922478128577,7.190230619532144,1.7975576548830077,4.019461109793562,5.39267296464908,4.493894137207576,39.54626840742674,75.49742150508746,74.48485495960439,{}
203,47,802,0,26.76006666666624,9.175050787547931,155.59136585517984,8.996877500752362,20.117629676920515,43.33470053564682,45.30711741882776,48.88211448597313,87.04217440911968,66.96481750815332,62.07845475519093,68.37626900571752,52.18188950436331,11.695940750978025,26.0909447521816,6.297814250526585,6.297814250526585,6.487740629606148,3.598751000300922,3.598751000300922,43.18501200361101,73.77439550616884,76.10741533437542,{}
204,47,803,0,26.793433333332903,10.747659983547653,156.48829146569935,10.747659983547653,19.51609717080974,42.55269330274028,42.73571648416146,47.739128503188056,88.62747468078219,69.11284515814454,63.60855901911157,68.90927227070426,51.24022809872872,12.368330920382732,28.270470675160823,8.834522085987828,5.300713251592583,7.901836773196759,9.009480101943565,8.834522085987714,42.40570601274106,74.20998552229685,78.24414573284967,{}
205,47,804,0,26.82679999999957,5.687305987863504,160.88141163462603,14.387872537569931,23.449363313168803,50.48585358976822,50.64577116983504,46.89872662633772,90.21150186609374,66.76228671385644,63.84618438546681,70.14087862065367,53.95452201588739,15.28711457116799,27.876503041541923,4.496210167990739,4.496210167990512,5.687305987863486,7.415339775040551,7.19393626878491,43.16361761270991,75.5363308222424,79.86565357898645,{}
206,47,805,0,26.860166666666235,2.418033231107933,155.24451282152077,13.784910335911537,20.800708360508384,48.36066462215831,48.36066462215833,44.45500006612144,77.24471401481398,56.52718365737497,57.27855777750267,64.97269240433138,44.45500006612144,10.258846169105029,22.227500033060664,1.709807694850724,3.419615389701676,7.646492468277279,10.400354180254192,9.403942321679551,42.74519237127066,71.81192318373468,75.71572131968848,{}
207,47,806,0,26.8935333333329,1.777163555778543,163.36377220391682,12.566444015685937,19.62941306016199,48.278701353108815,46.74987412131995,48.0163151638146,80.28767857173482,60.6583176831115,60.42356089646978,72.86370578691947,49.76057956179864,13.32872666833896,18.660217335674474,0.8885817778892715,6.220072445224787,10.81006388730116,9.061791649760618,8.885817778892601,46.20625245024161,74.64086934269801,78.91886922316536,{}
208,47,807,0,26.926899999999566,3.824679097487884,158.2881231060517,13.68358792656852,22.497437384668974,50.07263096809979,50.07263096809977,44.47166076134761,82.38610909749748,59.96335743481413,59.010472933326696,63.28659416037931,46.18210925216874,10.262690944926476,27.367175853136928,5.131345472463181,1.710448490821136,12.094697267298692,14.10471958966712,13.68358792656852,46.18210925216869,73.54928510530573,77.44384921665313,{}
209,47,808,0,26.960266666666232,5.218279177851969,162.89428663300964,13.91541114093866,26.14931248858048,52.64459539787268,52.64459539787281,46.99671316159943,87.4050944894962,61.27621709594354,60.87992374160683,66.0982029194588,46.96451260066817,9.56684515939537,30.43996187080336,4.348565981543288,0.8697131963086804,12.29960197594573,10.580517685224494,10.436558355703994,46.96451260066812,73.05590848992819,78.75587952295511,{}
210,47,809,0,26.99363333333289,4.76418409419104,146.76471009439476,11.790754079382282,23.64158853170188,44.08479514964514,45.974993627092914,48.87644239581859,87.84721411824252,64.20610852081784,62.32255727673521,72.4289179162057,48.84740975744114,11.790754079382282,26.950295038588138,5.053180319735247,5.053180319735247,13.580014062111829,13.88986413570738,11.790754079382282,45.47862287761757,70.74452447629398,76.26415661276563,{}
211,47,810,0,27.026999999999564,6.29886713857143,145.0423778370371,12.228939932167805,22.97808456012941,42.25408530925612,44.23028996411811,50.692862740788925,91.26253743541858,68.33394395902894,65.51217820804186,78.61461384965025,55.90372540419571,16.596418479370527,23.584384154895133,2.62048712832177,9.608452803846037,14.084695103085362,14.406060294188991,13.975931351048928,48.91575972867122,73.37363959300683,82.40542041794626,{}
212,47,811,0,27.06036666666623,1.7649253666071445,161.22764692257712,17.737280414962992,24.95981390032141,47.9462368040882,49.70074958093527,49.54381597291805,93.95637834565044,69.03543416993078,67.94962661437512,74.12686539750007,60.00746246464291,17.649253666071445,26.47388049910728,3.529850733214289,3.529850733214289,15.8843282994643,15.982078934696125,15.884328299464356,47.65298489839296,74.12686539750018,83.25136304029954,{}
213,47,812,0,27.093733333332896,2.5850874738724072,161.52142884002197,20.19017860500266,23.83332889135809,51.31252123549848,53.29294353118649,49.38802684218009,91.68864693868026,67.85546863427682,68.54748310258572,80.42904684036728,65.8055837784824,23.76312747556301,18.27932882735616,5.483798648206857,7.311731530942438,18.370498115249944,20.19017860500272,20.10726171009179,51.18212071659735,74.94524819216042,86.08768243806827,{}
214,47,813,0,27.12709999999956,2.518139876088992,155.73835033791914,17.80593782358767,24.99182468131554,49.98364936263119,50.14197617461178,49.98364936263119,94.63985769861192,69.64830761185291,68.55286062081245,78.34612642378568,62.32078238255679,20.47682849712578,24.038016061843337,0.8902968911793323,6.232078238255667,16.123962473831458,16.123962473831458,16.91564093240828,49.856625906045394,74.78493885906812,82.38975021357709,{}
215,47,814,0,27.160466666666228,16.17129750717539,155.53055916303356,16.17129750717539,25.00149487258841,46.46567764193629,46.56851585915422,50.03486924458682,107.28311671345146,82.32228338450304,74.1115740866012,71.43284249310966,64.28955824379864,17.858210623277387,39.28806337121034,12.500747436294205,3.5716421246554546,16.17129750717539,19.966086455078543,19.64403168560512,48.21716868284898,73.21866355543733,80.67880245045501,{}
216,47,815,0,27.193833333332893,8.846480385757518,149.69806821117285,13.987513647499307,22.554188056796534,45.241636008388056,48.85628479607874,50.34309257161472,95.4373357118894,72.88802789092105,68.53003294180519,67.66256417038983,55.51800137057626,11.27709402839821,33.83128208519497,9.542156485567943,0.8674687714151332,15.710527640944017,17.43590651585973,18.2168441997203,48.57825119925423,72.86737679888131,78.38001591237375,{}
217,47,816,0,27.22719999999956,17.961605866026712,161.48640763936115,14.297972666072384,21.521298767937203,48.38786527724741,50.32932074895621,50.170402383322056,103.90652617075808,82.38799665250791,73.27710991362085,71.4898633303618,57.19189066428942,14.297972666072384,39.31942483169905,17.87246583259048,3.574493166518096,19.74078373883056,21.742793098103306,21.44695899910857,51.83015091451233,73.27710991362085,84.0766080616857,{}
218,47,817,0,27.260566666666225,21.052631578947388,154.33866073953362,14.09545396656815,20.97991069989223,45.59076143189134,49.07784650604808,50.7014508580728,106.70518615473372,85.73929923538407,75.17801334128035,75.17801334128046,62.939732099676576,18.35742186240577,37.589006670640174,14.86077007909023,7.8674665124596,15.734933024919144,17.57045775634501,17.483258916576858,48.953124966415146,71.68136155796503,84.21052631578947,{}
219,47,818,0,27.29393333333289,27.51244378202716,144.69598570696758,12.158897228303148,22.419898709599217,41.30447363263895,43.1255362302911,49.89594257706832,111.8882837634868,89.48155353336806,75.65922040057467,73.93969266419788,65.34205398231438,19.77456896833189,42.12842954122914,18.055041231955443,11.176930286448396,15.570985908600598,18.992804627347365,18.91480510014361,49.86630435492418,70.50063719144447,79.26631205536566,{}
220,47,819,0,27.32729999999956,22.556198767552225,135.64643418631212,10.37988884171682,20.83173553414732,38.21653985834553,40.12662101022001,51.92826922841751,105.65641439836216,84.83967431134556,73.52421262882763,74.3892033656374,60.5493515766816,15.569833262575344,38.0595924196283,17.299814736194662,8.649907368097502,19.1082699291727,21.04613297168528,19.89478694662398,51.89944420858427,72.65922189201797,81.60306290466806,{}
221,47,820,0,27.360666666666223,10.742316355201616,145.34082254734497,12.48768910931284,22.95833709141584,42.53153653201213,44.46739670149366,51.2147519731584,97.195624065283,74.2571379176745,68.87501127424753,67.10898534413855,54.74680383337625,9.713142615599054,36.20353156723263,13.245194475816788,0.8830129650544905,19.426285231198,21.484632710403083,21.19231116130686,52.98077790326733,74.17308906457424,78.20524353128252,{}
222,47,821,0,27.39403333333289,8.976350634428057,165.9364714255089,12.322850358484402,22.952901627424165,46.07426548429704,47.66121638592701,47.56358320100963,91.69339046773663,68.74609858471398,64.25486258352623,56.333030210214815,44.0101798517303,2.640610791103768,41.36956906062653,16.7238683436575,4.401017985173098,19.44433299574808,19.44433299574813,18.48427553772672,51.051808628007166,72.17669495683771,83.20601429146248,{}
223,47,822,0,27.427399999999555,10.750807021822204,150.89476720294434,10.604530722617255,23.246804099058217,44.32671291160474,44.50254348254115,49.51936108450798,93.9397565475387,70.78518741047202,65.39460612280686,68.92944969701261,54.79007540018949,12.371952509720243,31.81359216785188,7.069687148411504,5.302265361308741,17.67421787102893,19.52181170819372,18.557928764580367,53.02265361308662,74.2317150583213,81.47411870491561,{}
224,47,823,0,27.46076666666622,5.586243496197968,147.30109548844334,12.491220196364727,19.431778313516475,40.78340353693891,42.54356298115162,51.25968201988929,88.48510950698132,69.09801595573187,66.24469879607909,70.66101204915105,56.52880963932091,12.365677108601403,24.731354217202806,3.5330506024575925,3.5330506024575925,17.665253012287792,19.750353287604185,18.548515662902105,49.46270843440573,74.19406265160859,81.56680707387771,{}
225,47,824,0,27.494133333332886,6.173377844603373,146.53959851800974,11.985308656208758,22.52030325680058,41.41227753397264,43.11176584339087,44.64837315351591,84.52378709699116,62.01804907509899,59.070449805600674,61.63873023193116,44.51686072306143,8.560934754434925,30.819365115965525,8.560934754434811,1.1368683772161605e-13,15.40968255798282,15.785583712899204,14.553589082539249,49.65342157572235,71.911851937253,77.3522026830625,{}
226,47,825,0,27.527499999999552,5.546308716987854,152.29642625366364,14.031174521702042,24.617114891218613,44.16199339198964,46.13782173642489,45.90387256336045,86.81346320769048,62.28186126344808,60.50944012484035,61.386388532446745,40.33962674989357,5.261690445638237,35.07793630425533,10.523380891276588,3.5077936304255672,14.140368188165244,15.88221115430422,15.78507133691494,52.61690445638288,77.17145986936157,82.89829987289069,"{'neutral': (['m1', 'm3', 'm12', 'e1', 'e2'], 2.2883517356060397, 80)}"
227,47,826,0,27.56086666666621,5.089402472229306,151.16896163182258,12.723506180573215,23.66708957526707,47.09416365666853,50.89402472229306,49.1133931016131,89.64430231154975,65.99073189682474,62.97814250526597,71.97502000601833,48.58313850406239,11.695940750977911,27.89032025233212,4.498438750376181,4.498438750376067,14.50702906818664,14.838030494537914,14.395004001203688,52.18188950436331,75.5737710063193,86.53855104358405,"{'neutral': (['m1', 'm3', 'm12', 'e1', 'e2'], 2.2883517356060397, 80)}"
228,47,827,0,27.594233333332884,3.609283738501176,151.3426512880046,12.76074503360264,21.95441588576985,45.439721204514186,47.47271569192778,49.25713700376799,84.58747431461896,62.64473156526434,61.35782355452045,70.38103290077356,48.72533046976628,10.827851215503642,23.460344300257816,1.8046418692505315,3.609283738501176,14.437134954004762,14.881458086664708,15.33945588863014,52.33461420826751,77.59960037777603,85.2967754674681,"{'neutral': (['m1', 'm3', 'm12', 'e1', 'e2'], 2.2883517356060397, 80)}"
229,47,828,0,27.62759999999955,6.490828043750589,156.08123861761854,12.72956109786893,21.67766142042763,43.5417982082646,47.35670474496935,46.94430178545157,85.54416598819671,63.92724241880955,61.20788102205495,61.20788102205506,41.40533127962544,4.5005794869158535,33.30428820317695,11.701506665981128,4.50057948691574,14.401854358130606,16.597317065280297,16.202086152896925,52.20672204822341,81.01043076448457,85.0883323744147,"{'neutral': (['m1', 'm3', 'm12', 'e1', 'e2'], 2.2883517356060397, 80)}"
230,47,829,0,27.660966666666216,13.14508344139468,149.1574402018234,7.444745795146796,19.94368140308437,41.880952497345774,43.48499347207351,51.070534824533,91.429095395725,71.5443329150204,64.09937065052043,66.80779476251428,48.75163401588884,7.222464298650152,32.501089343925855,12.639312522637852,3.611232149325133,14.557342188400575,14.889491590293646,14.44492859730036,52.36286616521392,77.64149121048962,85.170739900523,"{'neutral': (['m1', 'm3', 'm12', 'e1', 'e2'], 2.2883517356060397, 80)}"
231,47,830,0,27.69433333333288,12.299601975945658,148.35176025709237,8.869369118414115,17.73873823682823,40.15777664977101,43.797637460958974,47.25352771377312,86.09721383162015,68.39286552752414,61.74963693791551,55.66164456375486,43.48565981543345,2.6091395889259275,35.65824104865544,16.5245507298647,2.609139588926041,13.915411140938716,14.023703911474144,13.915411140938772,55.661644563754805,76.53476127516285,83.65537913097396,"{'neutral': (['m1', 'm3', 'm12', 'e1', 'e2'], 2.2883517356060397, 80)}"
232,47,831,0,27.727699999999547,7.666198058013897,146.2014519495265,10.285283992017412,17.227637474613612,37.86822495204349,41.28373998653914,45.093929815424936,79.76162395509063,62.5629400801203,58.28327595476594,51.42641996008763,39.426921969400496,0.8571069993347464,33.42717297405693,14.570818988691483,4.28553499667396,10.285283992017582,12.479666284057508,11.142390991352327,56.569061956096334,71.99698794412262,80.73201797623253,"{'neutral': (['m1', 'm3', 'm12', 'e1', 'e2'], 2.2883517356060397, 80)}"
233,47,832,0,27.761066666666213,3.4221173950772936,142.11060985930536,8.555293487693348,17.19592709070062,39.35435004338922,39.35435004338922,48.18385040730124,77.30123109866167,60.10664508326506,58.17599571631433,46.19858483354369,41.06540874092775,4.277646743846617,33.36564460200384,12.832940231539965,9.410822836462671,11.97741088277064,15.494295500172283,13.688469580309231,59.88705441385304,71.86446529662362,78.78305881860712,"{'neutral': (['m1', 'm3', 'm12', 'e1', 'e2'], 2.2883517356060397, 80)}"
234,47,833,0,27.79443333333288,1.6811768995356715,136.1753288623861,6.724707598142459,16.8956187374347,38.667068689319535,40.34824558885509,47.342371335338434,72.60271004892054,55.707617367379896,54.63824923490802,42.02942248839088,42.02942248839088,5.043530698606901,30.26118419164129,10.087061397213688,10.087061397213688,13.449415196285033,13.554081484541648,13.449415196285088,60.522368383282696,65.5658990818896,74.04816128042975,"{'neutral': (['m1', 'm3', 'm12', 'e1', 'e2'], 2.2883517356060397, 80)}"
235,47,834,0,27.827799999999545,2.3692915970169373,139.0937626854578,10.052052929154229,18.42876370344948,37.00951785546116,38.67827713338382,44.071371256254736,74.18947762046452,55.91728952778712,54.448620032918825,41.88355387147601,45.23423818119409,1.1368683772161605e-13,30.1561587874628,6.701368619436266,8.376710774295248,11.846457985085095,11.846457985085152,11.727395084013324,60.31231757492543,63.66300188464351,73.79116743584292,{}
236,47,835,0,27.86116666666621,5.261518480259477,136.68813381948618,9.983029409212577,18.30222058355639,38.4126885166265,40.07053093796607,42.41971813528798,65.65312555400571,47.64507625017704,49.0832279286285,34.94060293224402,43.25979410658783,2.495757352303144,25.789492640465824,2.495757352303144,12.47878676151572,11.64686764408134,13.414292700986064,12.47878676151572,58.2343382204067,61.562014690144224,64.91101891433097,{}
237,47,836,0,27.89453333333288,2.306596422905005,143.8621063944099,13.048079776774555,19.57211966516172,37.65478921729926,41.06778174477216,34.59894634357611,68.81238610716133,49.3633191006904,48.11479417685598,35.88221938612992,45.66827921871072,6.524039888387279,27.727169525645763,3.26201994419364,4.893029916290402,11.532982114525366,15.037168948034548,13.048079776774443,58.716358995485166,57.085349023388346,61.999835883004565,{}
238,47,837,0,27.927899999999543,4.914690652442118,141.12571268060913,9.964965382893956,18.020532392287805,37.8214815261626,41.08660482929544,39.62350279314204,62.59668871738877,44.71498286785804,46.68956119820018,37.67929500205639,45.87044608945996,2.457345326221116,20.477877718508807,0.8191151087403341,7.372035978663121,8.191151087403568,9.964965382893956,9.010266196143846,58.97628782930559,60.61451804678626,62.27430019437936,{}
239,47,838,0,27.96126666666621,1.6505128088891752,140.44884522998598,10.03967746968834,18.23050983767274,36.461019675345376,39.74961218349416,39.92057904639814,66.53429841066365,48.31804011119748,48.69012786223061,41.26282022222927,47.864871457785966,4.9515384266675255,21.45666651555928,0.0,4.9515384266675255,8.415997019960743,11.55358966222417,10.728333257779582,57.76794831112096,59.418461120010136,61.09127408444596,{}
240,47,839,0,27.994633333332875,3.2625895611447504,135.75078058071864,11.419063464006626,17.944242586296014,39.28678077230485,41.07495303894778,35.21481449735549,60.90652665851977,43.19082061557739,44.04495907545402,34.257190392019766,44.04495907545402,4.893884341717126,21.206832147440764,1.6312947805723752,6.525179122289501,9.787768683434251,11.53499601456942,10.603416073720382,57.09531732003302,57.09531732003302,65.435054533074,{}
241,47,840,0,28.02799999999954,1.6181076192847286,145.95294847686807,12.94486095427817,21.09754216703592,37.35691527179533,40.58193263402434,31.124921510059234,63.43724832684556,42.34992920061841,42.87985191104645,30.74404476641064,40.45269048211924,4.854322857854299,27.507829527841068,3.236215238569571,8.09053809642387,9.842564396575485,11.4417487028588,10.517699525350965,58.25187429425171,56.63376667496692,63.18912254550479,{}
242,47,841,0,28.061366666666206,4.833956967064523,133.8946938704187,11.393745837917672,17.7975999475919,38.80570000581317,40.41167465319717,32.86458787057334,57.21884255387264,39.501970577595046,41.08863422004879,33.83769876945189,40.282974725538,4.833956967064523,19.33582786825832,3.2226379780430534,6.445275956086107,12.890551912172157,12.990869004219382,12.084892417661422,59.61880259379626,56.39616461575321,66.37773765951293,{}
243,47,842,0,28.094733333332872,3.677004902071269,140.12235412453433,8.222032914631313,18.08847241218905,36.51175144957906,38.14172622423559,38.38905821239092,61.39607296806487,43.53797399960011,44.39897773900941,36.17694482437798,46.043384321935605,3.2888131658525026,19.73287899511536,3.2888131658525026,4.933219748778811,13.257629714550474,15.160679597153903,13.155252663410238,60.84304356827215,57.55423040241959,67.74076983561112,{}
244,47,843,0,28.12809999999953,3.7228717059810137,143.42481020977957,9.989513047300877,18.31410725338492,36.7792593311135,36.967197495678526,35.59189963688797,60.51241378341281,42.44726829956411,43.28788987163716,34.96329566555312,43.28788987163716,4.162297103041965,20.811485515210165,2.497378261825247,5.82721594425891,13.423004827888471,15.076481330959751,14.151810150342952,58.27215944258853,58.27215944258853,70.00582828721403,{}
245,47,844,0,28.161466666666204,5.222448372028219,143.91612327554145,9.90889909094858,18.24122795706748,38.1274499674453,39.7729818584551,40.18232007128497,63.53382654758007,45.348176497924285,47.0672706820053,37.98411318196918,46.24152909109296,2.477224772737145,20.64353977280939,2.477224772737145,7.431674318211435,11.677749568838136,13.314683078851338,12.386123863685668,61.10487772751566,59.45339454569091,71.09054849149808,{}
246,47,845,0,28.19483333333287,0.0,138.5820102360439,8.220435385105816,18.159535309391,36.31907061878187,39.76516132677429,38.69721389871254,64.87376779023398,46.762645929351024,46.03443815659261,34.52582861744452,46.03443815659261,2.4661306155318243,23.83926261680688,0.8220435385105702,5.754304769573992,14.88784168306126,13.25505377559143,13.15269661616935,59.187134772761965,55.89896061871963,70.86759107424504,{}
247,47,846,0,28.228199999999536,1.6724547815498454,135.633917442705,11.70718347084869,20.069457378597576,35.16134821614962,35.28047226676993,37.7322997328729,67.41880760614428,47.56950643038041,47.66496127416952,36.79400519409569,43.48382432029496,3.344909563099577,26.759276504796844,1.6724547815498454,6.689819126199268,13.483761521228862,15.144722173052978,14.215865643173345,61.88082691734269,58.53591735424311,73.75885857210321,{}
248,47,847,0,28.2615666666662,1.6919408111931489,137.30805943102314,11.843585678351817,20.373665299700523,40.64181294985672,40.747330599401046,39.82355703040334,73.45829490721171,53.12801912984062,51.60419474139019,43.99046109102119,52.45016514698682,9.305674461562148,24.53314176230026,0.8459704055965176,0.8459704055965176,13.640862914704272,15.321175676286323,14.38149689514148,60.90986920295239,57.52598758056615,74.61823445505611,{}
249,47,848,0,28.294933333332867,4.876075093082704,127.03815948431162,13.002866914887363,21.129658736692026,34.286972257785095,35.90533983334283,39.84615009472584,68.7470870272907,47.83084755374821,49.57343011300839,42.25931747338416,50.38610929518882,7.314112639624113,21.942337918872568,2.438037546541409,5.68875427526325,16.3346494015758,14.71824597678128,14.628225279248396,58.51290111699348,58.51290111699348,70.06029882756104,"{'happy': (['m1', 'm3', 'm12', 'e1', 'e2'], 4.956699957065164, 94)}"
250,47,849,0,28.328299999999533,1.6501335630906624,132.26826711666305,8.250667815453085,18.15146919399683,34.69207147186301,34.69207147186301,46.46818304386597,71.12822197889416,53.035816404080926,53.62934080044488,39.60320551417476,47.853873329627845,2.475200344635823,27.22720379099508,5.775467470817034,10.725868160088908,14.942594943152471,16.82812647646683,14.851202067815509,59.40480827126203,57.75467470817142,74.32931342735085,"{'happy': (['m1', 'm3', 'm12', 'e1', 'e2'], 4.956699957065164, 94)}"
251,47,850,0,28.3616666666662,1.6319870799358114,122.4969110835962,6.728855110218793,19.583844959229964,32.68051580774187,32.68051580774176,45.81206043514138,73.60243637505204,54.077659419829416,53.039580097914495,42.43166407833155,47.327625318138985,0.8159935399678488,28.559773898876983,5.711954779775283,7.343941859711208,13.157500480335749,13.457710220437477,12.2399030995187,58.75153487768978,60.383521957625646,71.82597443072436,"{'happy': (['m1', 'm3', 'm12', 'e1', 'e2'], 4.956699957065164, 94)}"
252,47,851,0,28.395033333332865,2.330371678407664,118.9288924504151,5.210869485759924,18.126037781358946,31.351944451245664,33.120804582980966,47.90033494036596,72.80313858410383,54.7761286340817,53.55420253583327,46.13900526164093,54.37811334407684,2.471732424730704,22.2455918225769,0.8239108082436815,2.471732424730817,16.560402291490476,16.560402291490533,14.83039454838456,60.96939981002549,59.3215781935383,65.9952043101535,"{'happy': (['m1', 'm3', 'm12', 'e1', 'e2'], 4.956699957065164, 94)}"
253,47,852,0,28.42839999999953,1.6103393644568769,122.48110362640818,8.051696822284725,19.324072373483432,32.36742064117443,33.97014610772559,47.14198010789006,74.51191805294427,55.34040818387458,54.7515383915362,46.69984156925148,51.53085966262233,2.415509046685429,24.96026014908273,2.415509046685429,5.636187775599296,16.18371032058721,19.590623894366,16.908563326798003,61.19289584936405,61.19289584936405,67.7108927122975,"{'happy': (['m1', 'm3', 'm12', 'e1', 'e2'], 4.956699957065164, 94)}"
254,47,853,0,28.4617666666662,2.2451193203001103,117.52079173037586,7.9376954797857024,17.534942443745706,31.790445622201624,34.96192192769615,46.28432049856131,70.30127898920695,52.7722447998719,53.18255971456404,41.27601649488554,44.45109468679982,3.175078191914281,26.98816463127139,4.7626172878714215,9.525234575742845,14.375777935742343,14.3757779357424,12.700312767657124,58.73894655041408,60.326485646371225,66.84651910050468,"{'happy': (['m1', 'm3', 'm12', 'e1', 'e2'], 4.956699957065164, 94)}"
255,47,854,0,28.495133333332863,14.056302831688116,144.80248727382744,8.717348955169768,20.921637492407623,40.25112575106704,41.988312768005656,48.94152926555785,92.5518109964087,71.67336242774701,64.50838226825681,48.8171541489512,54.04756352205311,2.6152046865508964,40.97154008929829,16.562963014822685,6.102144268618872,16.073997248384824,15.787790434520602,14.819493223788813,66.25185205929091,66.25185205929091,80.27537763203507,"{'happy': (['m1', 'm3', 'm12', 'e1', 'e2'], 4.956699957065164, 94)}"
256,47,855,0,28.52849999999953,4.888739135824734,143.50135754620482,12.099012080378088,22.469593863559226,39.7914536666112,43.245312219474194,46.954806076628834,85.13286882892113,62.82077345182962,60.49506040189033,48.39604832151235,51.85290891590603,3.456860594393788,34.568605943937314,8.6421514859843,6.913721188787463,17.370509506605572,19.09113662558368,17.284302971968657,62.22349069908722,63.95192099628412,76.1294575509377,"{'happy': (['m1', 'm3', 'm12', 'e1', 'e2'], 4.956699957065164, 94)}"
257,47,856,0,28.561866666666194,5.178801752891829,137.72107764506652,9.826085453766495,24.56521363441618,37.7022458558513,41.0728282417104,46.11751311967531,85.41098656522801,60.94725819930018,58.1376722681182,44.21738454194895,50.76810817779335,1.6376809089611015,37.66666090610477,9.826085453766495,8.188404544805394,8.188404544805394,11.580152761461273,9.82608545376644,60.59419363155979,62.23187454052084,65.5277041722087,"{'happy': (['m1', 'm3', 'm12', 'e1', 'e2'], 4.956699957065164, 94)}"
258,47,857,0,28.59523333333286,5.139834445386427,134.9928373185083,9.752150186165522,22.81299176087635,35.75788401594036,39.04244769310791,43.03364565815012,80.45113449085216,57.71738865962424,54.44950520609109,42.25931747338416,47.13539256646686,2.438037546541409,34.94520483375993,8.93947100398509,5.688754275263136,6.701524215741271,8.126791821804659,7.31411263962417,61.76361784571532,65.01433457443721,69.90930662870551,"{'happy': (['m1', 'm3', 'm12', 'e1', 'e2'], 4.956699957065164, 94)}"
259,47,858,0,28.62859999999953,8.548002309982914,135.79884303220794,10.197150260252654,21.793215290419425,36.91890624336424,40.23362822846661,45.75684728126534,86.08609773115178,64.49244093075477,59.51224175460686,45.26283175702497,46.939232933210974,0.8382005880929455,39.39542764037367,14.249409997582006,7.543805292837533,8.382005880930535,10.058407057116654,10.058407057116654,60.35044234269992,63.70324469507216,75.51252289016942,"{'happy': (['m1', 'm3', 'm12', 'e1', 'e2'], 4.956699957065164, 94)}"
260,47,859,0,28.661966666666192,11.550934941634296,145.24925174589842,10.03737060755502,21.51510938681196,36.34042207210155,41.38513921841967,43.03021877362381,86.0604375472476,64.54532816043564,58.57974148971675,39.60320551417476,42.90347264035597,1.6501335630906624,44.55360620344664,16.50133563090617,9.900801378543749,8.250667815453085,9.90080137854369,9.075734596998416,62.705075397443295,67.65547608671511,69.3252513136973,"{'happy': (['m1', 'm3', 'm12', 'e1', 'e2'], 4.956699957065164, 94)}"
261,47,860,0,28.69533333333285,8.750222471105491,138.20041532544494,9.749253125378344,19.56609226363807,39.13218452727623,40.75167074291323,45.75691011768344,83.44016627993152,63.88881614726634,59.30795651271785,42.24676354330586,47.12139010599492,0.8124377604482333,38.18457474106492,13.811441927619285,8.936815364930112,6.499502083585526,6.699533401136289,6.499502083585526,60.12039427316603,61.74526979406238,70.03948608979499,"{'happy': (['m1', 'm3', 'm12', 'e1', 'e2'], 4.956699957065164, 94)}"
262,47,861,0,28.728699999999524,5.05878995498972,147.0533769022507,13.49010654663914,25.35009623643196,38.93041177114701,42.29126886995208,46.02603137535319,89.7687785132627,64.43203092381644,61.54861111904131,42.15658295824744,52.27416286822677,1.686263318329793,42.156582958247554,10.11757990997944,11.803843228309349,8.431316591649477,10.25713932895344,8.431316591649477,67.45053273319587,65.76426941486596,75.9567573878291,"{'happy': (['m1', 'm3', 'm12', 'e1', 'e2'], 4.956699957065164, 94)}"
263,47,862,0,28.76206666666619,13.417427112117638,145.13166431262258,13.313816085772489,26.62763217154497,41.73860108679224,46.71707841949874,44.06274766505002,97.04027641619616,70.60717228290197,63.24062640741931,44.934129289482144,54.91949135381151,6.656908042886244,46.5983563002037,14.978043096494048,6.656908042886244,10.123097702727325,11.649589075050926,11.649589075050926,66.56908042886238,63.240626407419256,73.30159612066801,"{'happy': (['m1', 'm3', 'm12', 'e1', 'e2'], 4.956699957065164, 94)}"
264,47,863,0,28.795433333332856,11.728037000983006,146.19175711259112,13.268759189442903,28.24485335418256,41.498031106828,46.55897750045303,45.2708304900271,98.36180947092564,70.15287849300381,63.85590359919411,46.44065716305033,54.73363165645219,5.805082145381334,47.26995461239039,14.098056638783078,5.8050821453812205,13.677123914739564,13.26875918944296,12.439461740102786,71.3195806432559,68.00239084589515,74.71044940272421,"{'happy': (['m1', 'm3', 'm12', 'e1', 'e2'], 4.956699957065164, 94)}"
265,47,864,0,28.82879999999952,18.397002597047845,145.84918065275684,13.379638252398422,25.086821723247112,40.27804486157071,45.27999516683952,45.64913167043769,102.2388447278271,77.22323388833831,67.73441865276709,43.48382432029496,53.5185530095938,3.344909563099691,53.51855300959369,21.74191216014742,8.362273907749,11.826041172617336,15.05209303394821,13.379638252398422,78.6053747328408,70.24310082509174,78.7653406128437,"{'happy': (['m1', 'm3', 'm12', 'e1', 'e2'], 4.956699957065164, 94)}"
