,video_id,frame_seq,time_seconds,m1,m3,m4,m5,m6,m7,m8,m9,m10,m11,m12,m13,m14,m15,m16,m17,e1,e2,e3,b1,b2,b3,label_measures
0,224,0,0.0,29.686832738527585,171.27590486139113,21.90819197785233,38.73650773261302,44.18866238697673,49.454137456104085,34.93420497476484,125.2593472266813,86.52285227785605,71.0339083932131,85.75264616838336,57.59506085936198,37.116816998255445,52.475499894085374,16.638573137149024,20.47824386110642,28.18665871409098,26.10474126297344,26.23774994704263,49.91571941144704,90.87220713366004,79.82658094905096,"{'others': ['m1', 'm3', 'm12', 'e1', 'e2']}"
1,224,1,0.0333666666666666,30.67357101216559,170.15857305439627,20.32778974430001,38.15497935413891,46.01035651824829,51.19338111439223,32.99504855531665,122.12951277881037,83.97464961424471,68.07650415442623,83.20461618874322,54.209068122969086,35.9292660815027,52.31805411867947,17.0191260386066,20.801154047185776,26.504195158698906,25.98950159736099,25.843858058624846,50.42704011438983,92.02934820876143,81.36000918225405,"{'others': ['m1', 'm3', 'm12', 'e1', 'e2']}"
2,224,2,0.0667333333333332,26.826378171650624,172.77520478857176,21.646595204782194,37.02083386112353,46.15384615384614,50.1078319076681,35.49922684156587,120.94039541015178,83.93222612965846,70.18572150344096,82.1994936526786,55.64273416489016,33.51210125839975,51.21660758359212,15.80759493320744,17.07220252786402,20.273201984270447,18.41296451183745,18.33681012252066,49.31969619160717,89.7871392206182,82.8486893405308,"{'others': ['m1', 'm3', 'm12', 'e1', 'e2']}"
3,224,3,0.1000999999999998,22.64332814557064,170.6284631971089,18.9199977180336,32.72266183550068,41.560855395898834,45.441718531652505,38.83890661041732,113.08539903925944,80.3680618309315,68.76477526954449,80.0171930409245,55.01182021563557,28.756178749082267,45.00967108552004,13.752955053908863,13.75295505390892,11.526907321696743,12.750288398081064,11.25241777138001,52.51128293310671,91.26961081230452,78.72722332637194,"{'others': ['m1', 'm3', 'm12', 'e1', 'e2']}"
4,224,4,0.1334666666666664,24.04129552773093,171.4615773054342,20.036578705193733,32.71163794458064,42.78788410993034,46.84844357983581,36.2671184530623,112.92978544785473,80.23397563975742,68.11668548236361,77.49054128268887,54.99328736190824,29.996338561040886,46.24435528160461,14.998169280520417,13.748321840477049,11.523024038313594,12.745992971590242,11.873550680411997,53.74343992186488,88.73916824307923,82.39519122632318,"{'others': ['m1', 'm3', 'm12', 'e1', 'e2']}"
5,224,5,0.166833333333333,26.327161389211685,171.87014911328976,21.253136385909634,32.54456616765696,43.96528785701091,47.83380493288921,34.96703905586082,115.06241713962268,82.52092869069877,69.26550634719922,76.12965562484959,58.65727564537593,32.448705676165446,47.42503137285712,14.976325696691733,13.72829855530074,11.506241713962238,11.506241713962238,10.608230701823288,56.16122136259398,87.3618998973684,82.07617071921611,"{'others': ['m1', 'm3', 'm12', 'e1', 'e2']}"
6,224,6,0.2001999999999996,25.085279287477448,169.14961558755596,20.00759186918714,32.544882987887945,42.59819730254472,47.68751434654267,36.21465096195541,113.8181726684569,81.27601359381016,68.64216099907208,74.88235745353325,59.905885962826574,31.20098227230551,46.17745376301218,13.728432199814392,13.72843219981445,10.291595642539198,10.062014443176786,9.98431432713778,59.90588596282655,87.36275036245539,82.0769697279116,"{'others': ['m1', 'm3', 'm12', 'e1', 'e2']}"
7,224,7,0.2335666666666662,26.508540184301012,170.5970065175541,20.174122794427547,34.06717389280955,44.292710428899134,48.06262475407672,35.327223477099885,116.06286329095158,81.99616106411801,68.71810576851891,73.1311951298,61.78325105793448,32.152508203618936,48.54398297409131,14.500150758494785,14.50015075849484,11.624763874381944,10.165561113406271,10.087061397213802,63.044133732586175,84.47913920166548,81.32448890725004,"{'others': ['m1', 'm3', 'm12', 'e1', 'e2']}"
8,224,8,0.2669333333333328,26.3928789437933,168.52061075477613,18.830718456981003,33.89529322256567,42.75674402025475,46.60153691224176,36.42769375713556,115.5223608755429,81.63839795684727,68.41827706036418,71.55673013652762,61.51368029280445,30.12914953116956,48.95986798815045,15.06457476558478,12.553812304654002,12.616425223266964,13.809193535119334,13.181502919886668,65.27982398420065,82.8551612107162,80.69670230983098,"{'others': ['m1', 'm3', 'm12', 'e1', 'e2']}"
9,224,9,0.3002999999999994,31.30860561249113,166.7923173069973,21.32665366214094,35.087994449106475,43.90355206139517,47.65494780199921,33.83647767344385,121.48384498755374,86.41175149047558,70.75744868423004,71.38362079647982,62.61721122498233,33.18712194924058,54.47697376573456,18.15899125524487,13.149614357246264,8.766409571497547,10.096721927509186,9.392581683747323,63.869555449481965,78.8976861434777,79.14577708387638,"{'others': ['m1', 'm3', 'm12', 'e1', 'e2']}"
10,224,10,0.333666666666666,45.262679741771166,164.76223636711256,20.14822704076421,36.44754428418173,44.00636630802436,49.03177332803395,34.02689035998317,135.7356821617803,99.28813787759856,76.6655241839685,72.89508856836346,66.61102920902181,35.81913834824758,65.98262327308765,25.764643373300885,16.9669602702225,7.540871231210019,7.540871231210019,7.540871231210019,65.35421733715344,77.92233605583678,84.35632902229503,"{'others': ['m1', 'm3', 'm12', 'e1', 'e2']}"
11,224,11,0.3670333333333326,54.11977139833474,166.07471473674534,21.373082650319702,38.99471762745787,45.33043847673972,51.562176309429,31.431003897528967,145.84527712245853,106.89499127963552,79.83474989972359,74.17716919816837,67.89096841866257,39.60306491088653,74.80578927611884,33.31686413138061,20.744462572369173,7.54344093540692,7.543440935406977,7.54344093540692,64.1192479509591,75.43440935406952,83.01593973389214,"{'others': ['m1', 'm3', 'm12', 'e1', 'e2']}"
12,224,12,0.4003999999999992,57.651930614868434,165.511915126231,20.05284543125856,36.36738459411343,47.64199587200225,53.90659341544245,35.18188724070237,149.1483037803398,112.82510328747176,83.97129024339529,77.704776046127,72.69156468831233,40.10569086251712,73.94486752776606,35.09247950470251,22.559451110165867,7.5198170367219745,7.623543550945087,7.5198170367219745,65.17174765159035,76.45147320667331,86.62308451715819,"{'others': ['m1', 'm3', 'm12', 'e1', 'e2']}"
13,224,13,0.4337666666666658,59.39463796187641,164.61450388318153,18.5608243630864,35.884260435300234,45.78336676227968,50.74800778333002,33.501016857560245,147.27000158731772,111.39244030217591,81.66762719758003,75.48068574321792,71.76852087060064,40.21511945335385,73.6246033069092,35.26556628986407,22.8916833811399,11.205027539271432,9.899106326979393,9.899106326979336,65.58157941623847,76.71807403409031,83.05263192493514,"{'others': ['m1', 'm3', 'm12', 'e1', 'e2']}"
14,224,14,0.4671333333333324,54.60679623307158,166.37659264884624,18.6159532612744,37.25258517258656,43.437224276307006,49.6425420300651,32.481741561189416,142.74389041857106,105.55608472981856,78.18700369735245,74.4638130450976,69.49955884209106,39.71403362405204,70.74062239284274,31.026588768790702,22.339143913529256,11.238308432960318,10.005774228178208,9.928508406013066,62.05317753758132,78.18700369735248,80.9074448506934,"{'others': ['m1', 'm3', 'm12', 'e1', 'e2']}"
15,224,15,0.5004999999999991,51.73068072435233,167.8419691163489,20.16360696178793,39.08730942013143,46.64536806376979,52.944468832816575,31.53083031274988,142.42777729605996,103.4076212654966,77.5038642593725,76.87375154181666,68.05217349603441,40.95732664113177,69.94251164870207,29.615297725126084,23.314170549567336,12.665108877446032,11.411826675813687,11.972141633561591,59.23059545025214,78.13397697692838,81.13542364817756,"{'others': ['m1', 'm3', 'm12', 'e1', 'e2']}"
16,224,16,0.5338666666666656,51.47554466843484,168.41645349170838,18.826917258786864,38.90896233482613,45.25427702364932,50.220799337158205,32.84983864167416,141.9182741377556,103.04285975117249,77.19036076102617,76.56279685239991,67.77690213163271,39.53652624345244,69.65959385751137,28.240375888180324,23.21986461917049,13.806405989777032,13.863339864267637,13.806405989777032,56.48075177636062,79.07305248690486,83.44476378043657,"{'others': ['m1', 'm3', 'm12', 'e1', 'e2']}"
17,224,17,0.5672333333333321,51.38884395049758,166.88149334710792,18.836927735919147,37.61129159450446,43.87337934599146,48.88359961761353,31.425426086498533,139.22556481940276,101.61779643054312,75.80733455522119,76.43384145237178,67.66274489226356,40.722948314788255,67.03623799511297,26.93979657747525,23.180755194571816,16.289179325915256,15.49892467277915,15.662672428764722,55.132606949251766,81.44589662957648,80.98192382561449,"{'others': ['m1', 'm3', 'm12', 'e1', 'e2']}"
18,224,18,0.6005999999999987,46.764930085625,167.17129511790796,20.193193339400523,39.20565170907507,44.33458021103624,49.36631797010324,31.953176295336807,137.93614930184552,98.73263594020646,75.09343773089563,78.248624190177,64.36580376933915,39.75534938694483,66.25891564490792,25.87252896610687,23.34837979868189,17.714060917984675,15.353799976496584,16.406969588262882,54.26920709963889,84.55899710873965,78.01417849207878,"{'others': ['m1', 'm3', 'm12', 'e1', 'e2']}"
19,224,19,0.6339666666666652,46.95227156718417,168.07042224591078,21.57845462408917,38.03502756178432,45.774814776658914,49.56408067670217,30.83061536774504,137.22502496325728,99.23338868043103,75.39426392381682,78.56209013910325,62.08939381961386,39.91461031260894,66.52435052101487,27.243305451463243,22.17478350700497,19.00695729171855,19.383369224899507,19.00695729171855,49.41808895846819,83.63061208356154,78.54164989155059,"{'others': ['m1', 'm3', 'm12', 'e1', 'e2']}"
20,224,20,0.6673333333333318,45.709582155249215,169.0876830824347,20.465574347972787,39.52966468317123,42.19086236281149,47.57463065931741,32.35891428155463,137.7850368401312,98.2560728641993,74.88404143276216,82.4993676801617,59.653388937963086,39.34585227823101,65.99949414412936,26.653641865898408,22.845978742198668,21.72556468983497,20.932529661044537,20.307536659732136,46.96117852563049,85.03780976262817,82.88897725081952,"{'others': ['m1', 'm3', 'm12', 'e1', 'e2']}"
21,224,21,0.7006999999999983,40.93871989472724,169.86778846105128,21.80308300089687,40.9387198947273,43.77327561736648,48.81968757589468,29.735986371504044,133.34888079412246,92.42368617023456,71.32998372192833,81.51998139648958,57.31873691940672,40.12311584358474,63.05061061134734,22.290619913102542,23.564369622422817,21.69117593349922,21.007218368507083,20.3799953491224,45.85498953552539,86.61498023377018,78.19827386581021,"{'others': ['m1', 'm3', 'm12', 'e1', 'e2']}"
22,224,22,0.7340666666666649,33.279059579128266,167.4413930807209,20.698968157746805,39.744134267156205,46.214383964088185,51.43010478248112,32.01624453789895,125.7012825433977,85.95751654434821,68.6624853391487,82.6492879082345,55.94721027634336,37.510061435275645,55.311446523203074,17.165621334787204,20.98020385362878,21.6533331793541,20.97056885709141,21.61596760676906,43.23193521353804,87.73539793335664,78.63963321409278,"{'others': ['m1', 'm3', 'm12', 'e1', 'e2']}"
23,224,23,0.7674333333333314,33.238779086370144,167.88844063070374,20.47794872894941,38.4368256852552,47.60339636090944,52.82297156801849,33.408180586650936,125.54913552767032,87.11232221864456,69.84936572698314,83.81923887237974,53.33951564605985,35.5596770973732,55.87949258158653,19.049827016449967,20.319815484213223,23.00046939317995,20.945186383618136,21.58980395197659,40.63963096842656,87.62920427566976,78.54444893856804,"{'others': ['m1', 'm3', 'm12', 'e1', 'e2']}"
24,224,24,0.800799999999998,34.520370595240664,171.7343247557304,19.229367953002345,37.39436945689943,47.63053182030543,52.85308235232669,35.14616844342307,126.17860627142883,88.7863405029611,70.5245383017812,83.86701852103715,53.36992087702362,34.309234849515235,55.9113456806914,20.33139842934236,20.33139842934236,23.013580396827138,22.517081128929288,22.23746703209315,41.93350926051855,88.94986812837271,77.35706360956694,"{'others': ['m1', 'm3', 'm12', 'e1', 'e2']}"
25,224,25,0.8341666666666645,38.5937340143696,174.05992831224646,19.296867007184765,37.33012752304517,48.01834393763331,54.77309071253181,34.025855973986054,129.13919314930018,91.82130121186776,71.40968043359277,86.7117548122198,53.55726032519453,36.98001308168199,57.38277891985126,24.228284432826054,22.9531115679406,23.09436281848208,22.596120735580268,22.31552513549775,42.08070454122432,91.8124462717621,77.9526011539544,"{'others': ['m1', 'm3', 'm12', 'e1', 'e2']}"
26,224,26,0.867533333333331,42.31275725773017,179.8082488914977,19.533410867725795,36.31988102901466,50.83757073981917,54.84895298282456,34.382635226165284,132.2603107848957,95.9405335990016,73.42399337102125,88.10879204522553,52.354499621076,37.0312314392977,60.01613371196515,28.09265833326026,22.98490227266751,23.1263491601616,22.627416997969537,22.346432765093425,39.58510946959407,89.3857310603737,81.45429729468357,"{'others': ['m1', 'm3', 'm12', 'e1', 'e2']}"
27,224,27,0.9008999999999976,45.86620540392687,175.65112263020606,18.2136952619096,34.93066135832558,49.399415035605855,54.64108578572867,35.18453802222626,133.85486920592098,98.94613230999452,75.05387975611148,91.5911752955936,54.7002852459795,38.79903953493897,59.1526340450709,27.35014262298972,26.078042966106523,23.038704654340464,22.54166335103367,22.261743995456754,40.70718902026383,89.0469759818271,80.2230059572557,"{'others': ['m1', 'm3', 'm12', 'e1', 'e2']}"
28,224,28,0.934266666666664,43.9115727465971,177.1107738707041,19.62108933085933,37.746277843021446,51.06576232919868,57.876741646799616,35.220933247395365,136.43420780407658,98.69065689493988,75.67757339979414,92.35229296246064,55.15484163035848,39.121457435486775,60.92685994051226,27.577420815179263,26.29475007958945,24.50538999521289,22.728983342961644,22.44673787282028,41.04546353887142,91.06962222687096,79.64961830830144,"{'others': ['m1', 'm3', 'm12', 'e1', 'e2']}"
29,224,29,0.9676333333333308,41.023669776624935,173.74889710522777,20.77816945637673,38.81997159171259,48.31783229150214,52.62702348114208,35.04854712743995,135.56829886481069,96.75360546066597,75.30717539942333,91.9002818433641,54.88489054534245,38.92998050309177,60.62865816055268,26.166052469291174,24.889659665911097,23.11645684430666,21.396242272283065,21.69867765746096,40.8445697081618,90.62388903998402,80.17941575180947,"{'others': ['m1', 'm3', 'm12', 'e1', 'e2']}"
30,224,30,1.0009999999999972,40.89698675023962,171.3896056130314,20.448493375119803,37.31930842877189,46.76749358363357,52.28764739514499,35.07562018772521,133.63921705290224,96.32187115425448,74.82154173169914,91.30764414715831,54.53095414344176,38.678932590115664,58.969520178373045,25.997315347454787,24.72915362318872,24.228195723085523,22.47188300727308,22.82691103678951,40.58117517651479,90.03948242289218,78.74865660246832,"{'others': ['m1', 'm3', 'm12', 'e1', 'e2']}"
