,video_id,frame_seq,time_seconds,m1,m3,m4,m5,m6,m7,m8,m9,m10,m11,m12,m13,m14,m15,m16,m17,e1,e2,e3,b1,b2,b3
0,224,0,0.0,20.454165460873106,146.9179475739935,24.005196207596754,43.01526806029777,36.97581658178867,42.665170102192604,40.69551716312269,128.11879632081377,85.11730347312059,74.13287437301534,96.74968350376577,64.08095920379293,40.207660676889645,46.49010765765365,6.282446980764007,20.103830338444823,23.90634117043602,21.94364392726403,21.988564432674025,43.97712886534805,89.21074712684893,76.49121075914722
1,224,1,0.0333666666666666,16.889789279932675,155.92186489894328,26.854711245724253,45.731925354882705,39.972545843448145,45.18548457931113,42.081902821384666,131.42661418644974,85.75772648497944,76.5895653289216,92.41385568613686,63.297161428860875,36.07938201445069,52.53664398595447,8.22863098575192,14.55834712863799,22.927206995567662,23.34283975255309,22.78697811438991,45.57395622877979,92.41385568613683,75.84046013766036
2,224,2,0.0667333333333332,27.902997693967183,162.66220647846293,26.509858464671638,48.0179739262665,39.938163488890915,45.118417874285846,35.98606248835032,138.269928526563,90.28932446018365,75.40126880196311,94.2515860024539,62.8343906683026,43.35572956112878,58.435983321521405,13.195222040343538,21.992036733905934,24.008986963133303,23.476865779564804,23.24872454727199,42.727385654445754,87.96814693562365,76.20337712323605
3,224,3,0.1000999999999998,53.05245509549103,166.95880367195966,20.470027318524934,39.48516368915645,44.88282654589904,49.82477102054639,38.24426789159932,151.15739848807257,111.68090800345327,84.25007341562383,95.56724745652855,61.61572533381445,40.867572925489185,71.04670370123512,33.32279023155269,25.778007537616247,24.023811829235143,22.282314993060623,22.634348081809435,42.753768598973295,88.02246476259211,75.02750151323296
4,224,4,0.1334666666666664,54.4723335424798,166.24036033905253,22.844070101576623,42.099715188973505,43.78547705341938,50.21704989972469,33.962962504107175,153.05568548032812,110.95603402071622,82.61860588080066,95.86280987695955,61.806285315408104,46.03937579617133,72.5277837884891,33.425848180782,28.380437134626163,25.258569365777777,23.56401420334887,23.335026088470386,42.885993892323995,88.29469330772588,74.03399332907412
5,224,5,0.166833333333333,49.23465503866901,158.85742853976683,25.397771971063392,42.99300205529916,41.137114606242854,47.290301303106475,32.017737814314465,149.54506335344504,106.5614726897289,81.00161544854234,95.44376393936773,64.04778895931258,48.349801469284955,68.44322545652022,27.00053848284739,28.256377482049686,25.242051484270206,23.46100862237393,23.23302148524084,45.21020397127944,90.42040794255888,73.71036788779959
6,224,6,0.2001999999999996,24.56701001891585,155.83837760950968,26.690802599553074,49.60421276098674,39.95114281888587,44.93028476511013,37.04009047301665,137.79199002194562,88.21540623055589,75.2832905853029,94.89490409912128,65.79380017539074,43.6516558855958,56.304309765478706,8.224225021923871,22.142144289794942,25.431519553983055,23.637108097488515,23.40740967778322,43.01902319160169,88.56857715917991,76.72350642407626
7,224,7,0.2335666666666662,4.584557622057304,143.41229499725335,33.15738070890144,45.9336561792388,36.165961886495545,41.39793631549361,41.00552995873978,123.01658987621934,77.14515717372164,75.02012287055129,94.09303546475928,68.66248533914865,40.688880200976996,40.688880200976996,5.086110025122139,12.715275062805347,25.55738657390665,23.754094121447075,22.887495113049567,44.50346271981857,91.54998045219821,76.17500451610914
8,224,8,0.2669333333333328,4.556102358510335,147.72109033084055,31.691815508678637,45.770822193927195,37.186109374396494,40.158962394881684,39.35570200129034,120.84742330132029,75.07738700594159,72.6590375782776,92.24538683850898,65.70904267948583,39.80451623853469,41.06815167467869,3.159088590359886,12.0045366433676,25.304279889120938,24.826497195029145,24.0090732867352,44.227240265038546,90.98175140236503,75.3957377781018
9,224,9,0.3002999999999994,5.236296595904535,154.93859306712628,31.977492538216218,46.00093878635986,38.85417587497816,44.0852492727837,39.696028541430366,122.86769237369646,76.87365137051039,73.65933113027307,91.43916967895973,63.49942338816646,38.09965403289988,44.44959637171655,1.269988467763369,11.429896209869923,25.52645228255871,23.417430277586597,23.49478665362159,45.71958483947989,91.43916967895976,73.62647927501676
10,224,10,0.333666666666666,16.933265024341747,157.3400849777335,29.43891789341903,49.75854106341062,38.83011071465364,44.057944135876184,39.671441961749245,135.7037385499416,85.97847411752639,76.78671334015206,93.92093863092975,65.99849741632903,40.61445994851016,54.57568055581055,7.615211240345673,15.230422480691288,25.51064193134516,24.93586033470197,24.749436531123365,45.69126744207392,91.38253488414784,76.9622080956358
11,224,11,0.3670333333333326,32.07313608262406,160.0,28.127806892142946,47.14518007190173,38.75701638357719,43.97500885972208,38.52860443982159,145.83209867175685,98.72202446436671,81.70941982332016,95.01095328293042,64.6074482323927,41.8048194444894,64.6074482323927,20.269003367025107,19.002190656586095,24.20242285010833,23.666014466364317,23.436035143122808,44.33844486536756,91.21051515161324,76.81733338332154
12,224,12,0.4003999999999992,13.249255961023664,160.0460934723268,30.56273656661863,51.15698300609561,40.070597696143864,44.05262221755736,37.34540617868354,132.09082629542465,80.95097543177629,73.60481659073042,92.64054501936761,63.45242809545721,41.244078262047196,52.665515319229485,4.441669966682014,15.863107023864302,25.507560408698488,24.9328482420019,24.74644695722833,44.41669966682005,91.37149645745842,75.7187159085642
13,224,13,0.4337666666666658,3.975860293745529,159.57520324264866,32.78578388762368,41.793837952857274,40.933987076639305,44.8761746431628,38.052119532359534,114.32931763477491,72.55264206148637,71.03617415576923,86.75214188934643,59.0920386782505,35.20376772321305,40.23287739795779,1.257277418686158,8.800941930803276,25.270963358080106,23.183050113455366,23.25963224569432,46.5192644913887,93.03852898277736,71.05564259843806
14,224,14,0.4671333333333324,2.533625420878252,162.25591188868432,30.508890132736653,41.0298714481676,43.53488092980981,46.4593954575265,39.59676389723534,111.43632335323824,70.4078959737212,69.67469907414903,88.67688973073513,59.54019739063642,34.83734953707449,36.104162247513614,3.1670317760976445,9.501095328293047,26.723443402410695,24.59705358646449,24.702847853561934,46.87207028624567,93.74414057249137,74.35446023791586
15,224,15,0.5004999999999991,11.980786244761827,163.46445114461588,29.292416653264077,43.39992848296674,43.83869207376074,47.55565639478653,39.47401909902139,123.9559522544248,80.55785799760712,73.87881675147241,90.92777446335066,59.355630552465016,35.99224405840965,47.358215866328464,6.945871660394857,13.260300442571975,26.789852467181763,24.81176832572978,24.626272250490786,45.4638872316753,92.19066021978608,75.98333482009765
16,224,16,0.5338666666666656,37.10753969497677,168.04739000339256,29.401053176337207,46.070524706190284,45.24352807783643,51.97034579032693,36.05338203598401,148.60866124923822,102.54001935260891,83.02579632357123,98.8704139425734,65.9136092950489,46.90006815224638,64.6460398855287,21.548679961842822,22.816249371363142,25.477829813630755,25.256141561146524,24.083818780883234,44.36492933320602,91.26499748545237,78.09708996744502
17,224,17,0.5672333333333321,25.693456982534794,163.56067747010755,29.08301856337732,48.134038819036135,42.775050371590325,49.19384833099246,38.54018547380214,141.27470413441606,93.19413894046104,79.36269833762401,98.25857889420115,64.24599389236232,43.460525280127456,58.577229725389145,13.227116389604078,19.525743241796363,25.320166579354257,24.749676592747075,23.934782038331036,45.35011333578518,91.95995204200884,72.71573066223452
18,224,18,0.6005999999999987,5.374631148268697,160.50072100876372,30.640111771141537,39.77872598667998,42.7349837546422,45.481928471123155,40.853482361522005,115.58581331946482,75.80791859406706,72.84173085024668,92.47732786205233,59.54019739063642,35.47075589229405,38.00438131317219,1.2668127104390692,10.134501683512553,25.619701546309404,24.888920730424935,24.06944149834237,45.605257575806604,93.74414057249137,72.21943603229302
19,224,19,0.6339666666666652,2.832679335302516,162.72996997906725,29.24664251319947,38.52860443982156,42.73498375464221,45.48192847112302,39.77872598668,109.12986751550582,70.6013715233844,69.04129271892953,91.21051515161321,59.54019739063642,36.10416224751356,32.30372411619635,3.1670317760976445,12.034720749171186,26.723443402410638,24.597053586464543,24.702847853561934,45.605257575806604,92.4773278620523,74.0625125640624
20,224,20,0.6673333333333318,2.838021666072155,161.7921279777234,29.301800623142068,38.60126799423369,41.322219194329676,45.301795833762476,41.10725230168775,110.58820379236498,71.98735800863354,70.44070397319729,91.38253488414784,59.65248804937431,34.90305151825095,33.63384964485999,1.903802810086404,10.788215923823032,26.773842850093224,24.64344273986474,24.749436531123365,46.96046931546488,93.92093863092975,71.72955893471342
21,224,21,0.7006999999999983,4.581803682019968,164.48415053982322,31.8705914752619,42.41382070500914,41.625998259365566,46.60429503058254,40.98089797022164,118.25615298083578,75.84234598610846,73.70429464297615,92.76575015409071,60.996657635566464,36.21676547111758,40.02905657334054,0.6353818503704929,10.801491456298209,25.542034272564052,24.673767941613065,24.77989216444894,45.747493226674834,92.76575015409068,74.5863601461516
22,224,22,0.7340666666666649,24.382674127212166,170.29701860375226,26.889747816112163,46.071450021515176,45.24443678313445,48.979052135873296,39.80328624309833,137.14064299731888,91.0729642913249,77.95708440319311,95.0696151258453,63.379743417230145,39.929238352855066,56.407971641334825,13.30974611761826,18.380125590996784,28.002085888800202,24.904287695051195,25.351897366892103,46.90101012875033,93.80202025750066,77.48935059540511
23,224,23,0.7674333333333314,53.21018233908013,180.6031091232453,22.841344702232867,39.4213985690806,49.97290221977886,56.40268047417675,36.40049140995102,151.60679597153873,112.19030504381867,84.50055252781766,94.59017074009449,63.06011382672966,43.51147854044348,71.25792862420451,34.68306260470138,25.854646668959163,25.349852024494346,23.561202911466143,23.962843254157292,46.66448423177994,93.3289684635599,74.33607958074877
24,224,24,0.800799999999998,54.77345338015642,183.4408803139473,23.01358039682708,37.39436945689932,51.39713584795782,56.827986207052476,34.21497853172629,148.97714275135652,111.59864825816523,83.23166232012017,94.03271773570833,60.994195288027015,44.47493406418636,69.88918210086422,34.30923484951518,26.684960438511837,25.541003177292936,24.965537509842356,24.778891835761044,47.01635886785414,94.0327177357083,81.36529378989133
25,224,25,0.8341666666666645,47.14377833787882,172.10569588786194,23.0004693931799,40.95589745789883,49.07153928113539,54.550402901579545,30.18728126483561,140.9916007399166,100.03930599870597,75.56431383191807,91.43916967895973,58.41946951711316,45.719584839479865,64.76941185592983,26.669757823029897,27.939746290793266,25.431499248156637,24.951314462072215,24.7647751213849,48.25956177500652,95.24913508224972,76.08280339154105
26,224,26,0.867533333333331,40.48957955512332,171.95818164704218,22.815501965732036,43.12776100385452,49.91636279265318,56.577799907699024,27.513908954035315,133.61935392619725,90.51115489791853,69.28764425658488,85.66472380814133,52.910564705028435,42.83236190407064,62.98876750598629,22.6759563021551,26.455282352514246,25.321171158514513,23.5345457261549,23.305843977214863,46.61168795442984,93.22337590885965,79.13555394832062
27,224,27,0.9008999999999976,41.925938978646386,168.98281246004836,21.841867081553705,42.05937035614607,44.93028476511011,50.37281961271589,29.347611795478944,135.12299806390928,93.06368827874054,71.48749442133806,86.03804638320327,53.141146295507895,40.488492415625046,64.52853478740252,25.305307759765753,24.04004237177736,24.07331580274915,24.858520667728463,24.040042371777417,48.08008474355478,94.89490409912128,77.02546615609985
28,224,28,0.934266666666664,41.925938978646386,171.71287597205335,22.914930780377528,42.05937035614607,47.645264611442194,54.34753026831955,27.63381319097358,134.20166037707153,92.15614978572114,70.22222903334978,84.77278099521499,50.610615519531336,41.121125109619186,65.16116748139666,25.937940453759893,23.40740967778322,25.336919649367385,24.85852066772841,24.672675065771557,48.08008474355478,94.89490409912128,79.4804227282062
29,224,29,0.9676333333333308,45.50911207949358,168.79579436409782,20.313267155236545,40.626534310473076,44.735330436044094,49.916362792653075,32.388723802590434,138.60964176457873,97.98752621254461,74.32674565706373,86.92449915826103,57.94966610550733,40.94269887889112,64.8784305311658,27.08517002757401,25.825394677454426,25.321171158514513,24.75065853768214,24.565619327334616,46.61168795442981,94.48315125897935,76.39060001592225
30,224,30,1.0009999999999972,43.048625669540414,166.46559928865548,20.275994244472702,43.0486256695403,43.41438097351249,49.82477102054639,31.662129016903894,138.03493298594282,94.9863870507118,72.93289937471917,86.76500098026935,55.328406422200715,39.61010914316648,66.01684857194402,25.77800753761619,24.520543755293545,25.1806926176629,24.705243436311672,24.520543755293545,46.526159945941515,93.05231989188303,80.2119972430532
