,video_id,frame_seq,time_seconds,m1,m3,m4,m5,m6,m7,m8,m9,m10,m11,m12,m13,m14,m15,m16,m17,e1,e2,e3,b1,b2,b3,label_measures
0,163,0,0.0,6.637394365877994,133.65256590761763,13.274788731756155,24.360763907557025,32.3566718305502,35.561745752552724,41.04212511649265,85.24367533095717,60.93913100329064,56.34316068993036,67.61179282791642,46.68433314308521,16.902948206979204,26.56177575382424,4.024511477852116,5.634316068993144,14.841664995577425,14.841664995577473,13.683339024697377,40.245114778521724,77.27062037476168,58.17611961179281,"{'others': ['m1', 'm3', 'm12', 'e1', 'e2']}"
1,163,1,0.0333666666666666,4.823791727640696,136.92923801599366,14.824387428568576,24.59660814874772,30.92916217156122,32.795477531663614,39.77800561808719,83.89022401750609,59.29754971427424,55.47360486786886,65.92515361109042,43.41412554876683,16.079305758802548,27.33481978996429,4.823791727640696,4.82379172764081,11.705911286742422,13.259335206029023,12.05947931910191,41.80619497288666,80.3965287940128,51.90403883897999,"{'others': ['m1', 'm3', 'm12', 'e1', 'e2']}"
2,163,2,0.0667333333333332,6.68680108757918,138.38514057906602,13.373602175158416,23.22046295948041,33.078104055577626,34.669856473918955,41.69602682918772,84.9699021503266,61.75582741640072,56.7625618444377,68.11507421332516,43.7882619942805,15.40698107206174,26.75949344094909,5.676256184443673,7.298043665713408,12.351165483280193,13.37360217515836,11.35251236888746,42.166474513010826,81.08937406348235,51.2854232155974,"{'others': ['m1', 'm3', 'm12', 'e1', 'e2']}"
3,163,3,0.1000999999999998,5.021821716912124,133.9424445565289,14.38030895088469,20.88739799655752,31.91919816662989,33.94840624226394,38.93126597893614,79.11560965492848,58.24014299812961,54.78736146915196,66.69765744070673,42.87706549759719,16.674414360176684,23.0265722116726,3.9700986571849626,5.558138120058857,8.983307783920147,8.551854227809676,7.146177582932808,39.70098657184923,79.40197314369846,57.38955786859151,"{'others': ['m1', 'm3', 'm12', 'e1', 'e2']}"
4,163,4,0.1334666666666664,4.785740593455671,137.97732694635198,11.613572473982783,20.17845408806119,30.68518611155052,34.10248289059067,42.56649553062574,78.92845585449606,58.82979754991487,55.03601682474061,68.59561517286511,43.07166534110138,14.357221780367126,20.73820923830806,3.190493728970523,6.3809874579409325,10.2145638626742,11.613572473982664,9.571481186911456,39.88117161213091,79.76234322426177,59.60334161668597,"{'others': ['m1', 'm3', 'm12', 'e1', 'e2']}"
5,163,5,0.166833333333333,6.373288167239366,139.37697832308473,11.599559553388552,18.16666636340362,30.648161408138748,32.49752073050364,40.96418265038614,76.9097721383754,58.75881359700221,54.17294942153472,65.3262037142037,39.83305104524612,12.746576334478732,22.30650858533784,6.37328816723948,4.779966125429496,9.013190563021958,10.077053396538332,8.76327122995417,36.64640696162644,78.07278004868243,57.99779776694237,"{'others': ['m1', 'm3', 'm12', 'e1', 'e2']}"
6,163,6,0.2001999999999996,3.5190494782692725,136.7366965968531,11.457195025108746,17.943701958993568,31.82746322055045,33.64329091614499,41.993335119090446,74.81601815246042,56.87376241298352,53.508070177247816,67.67197110651938,39.34416924797637,12.590134159352488,18.885201239028618,3.147533539838093,4.721300309757169,9.176558329104031,9.953374997660774,7.868833849595319,34.6228689382192,77.11457172603366,62.71416149171649,"{'others': ['m1', 'm3', 'm12', 'e1', 'e2']}"
7,163,7,0.2335666666666662,3.145562125193919,135.45106086330725,9.9471408371725,19.45422734117534,30.53788437524095,33.6222189003741,41.96703316717646,74.38772268272437,54.93488081768819,51.90177506569955,67.62958569166915,37.74674550232692,11.795857969477195,19.659763282461995,2.3591715938954394,5.504733719089359,11.341485532544151,11.977943717937933,10.22307690688018,33.028402314536095,75.49349100465389,62.21934605813161,"{'others': ['m1', 'm3', 'm12', 'e1', 'e2']}"
8,163,8,0.2669333333333328,2.2459154462438837,138.67504905630727,10.044039219036572,18.107149208503703,32.39105320715668,35.82921518512277,40.82997687177039,70.89768483530548,52.79095799378564,50.025214323337366,65.11218372243917,33.35014288222493,9.528612252064306,19.0572245041285,3.1762040840213785,4.7643061260321815,9.260146611070097,7.102208242284409,5.558357147037498,31.762040840214183,76.22889801651405,66.32108834407427,"{'others': ['m1', 'm3', 'm12', 'e1', 'e2']}"
9,163,9,0.3002999999999994,1.581917621866694,141.57941775767546,10.004925511711328,19.56724033794665,32.26491529117802,34.14890813577355,44.54720469750336,75.61830983975233,56.06330335557879,52.99424033253382,68.02245774026727,34.80218768106698,8.700546920266731,21.35588789520017,3.9547940546667055,3.9547940546667055,11.1858467770042,10.61182601189613,8.700546920266731,31.638352437333594,79.09588109333404,70.62159359011994,"{'others': ['m1', 'm3', 'm12', 'e1', 'e2']}"
10,163,10,0.333666666666666,0.0,128.73307243934158,8.506920876164932,18.48986235069925,29.511148258705997,31.47521083107198,44.06189720476361,70.9633281294282,52.51151321594765,50.55025756623587,69.50660415357436,37.91269317467692,11.05786884261414,14.217259940503824,0.0,7.898477744724403,11.39134660268592,9.990871888591569,8.68832551919678,31.59391097889744,78.9847774472436,69.00214312755598,"{'others': ['m1', 'm3', 'm12', 'e1', 'e2']}"
11,163,11,0.3670333333333326,1.589694036690446,142.65677264055452,8.560764380497018,14.21865571786363,32.77238212844636,32.77238212844636,46.292589109761856,67.37002542673858,53.29625591394821,51.665056192439806,68.35684357768963,33.38357477049959,6.358776146761784,12.71755229352368,1.589694036690446,4.769082110071338,11.240834333556306,9.669731321019215,7.948470183452287,27.02479862373775,77.89500779783236,64.8665296738734,"{'others': ['m1', 'm3', 'm12', 'e1', 'e2']}"
12,163,12,0.4003999999999992,2.253136771996445,134.4728201758868,11.598731430766849,15.114500954366118,25.190834923943505,26.70703758416278,45.98276245506592,71.57034959494666,56.46344566856354,54.965686019473424,70.10116477845884,38.23699897006844,9.559249742517125,14.338874613775658,1.5932082904195113,3.1864165808390794,11.488788367203789,11.598731430766849,10.35585388772688,31.8641658083904,79.66041452097593,65.68966065009428,"{'others': ['m1', 'm3', 'm12', 'e1', 'e2']}"
13,163,13,0.4337666666666658,2.278250132959992,139.88530026279165,11.728010368804917,17.35063609102711,28.54639234523525,31.112923587215576,46.49528425399989,74.38408183503941,57.09278469047076,55.57833107980156,72.49347532148033,37.052220719867705,9.665796709530696,16.10966118255118,3.221932236510213,3.221932236510213,12.268752437865306,11.728010368804917,9.665796709530696,33.83028848335749,83.77023814926613,69.9426501313957,"{'others': ['m1', 'm3', 'm12', 'e1', 'e2']}"
14,163,14,0.4671333333333324,3.579083396003718,143.25278498092405,11.652651300404898,15.18476483847869,26.83119253968966,28.85549284123805,46.610605201619705,72.89390086942858,57.710985682476064,55.22120901717608,70.42704918132597,36.81413934478405,8.803381147665732,15.205840164149947,4.001536885302642,2.4009221311815736,13.675658454020672,15.184764838478635,13.605225410028822,30.41168032829984,81.63135246017328,68.3782922701034,"{'others': ['m1', 'm3', 'm12', 'e1', 'e2']}"
15,163,15,0.5004999999999991,3.595761656581185,142.74766190772064,13.73938599820674,17.319481628207,28.495135001452564,28.98995727680664,46.41179823095144,74.75380068775179,57.46472642365914,56.28257246501988,73.97138095402613,38.59376397601363,11.256514493003976,14.472661491005113,1.608073499000568,3.216146998001136,17.319481628207,14.825705114630292,13.6686247415048,32.16146998001136,82.011748449029,68.26267268057003,"{'others': ['m1', 'm3', 'm12', 'e1', 'e2']}"
16,163,16,0.5338666666666656,3.576535852565864,141.98441928109938,13.189612518333515,17.226877893245845,27.331848608425204,29.40599851113756,48.11736875130268,75.86978263518604,58.68135192122343,57.58111649017911,73.57587107078444,38.38741099345276,9.596852748363233,15.994754580605274,3.198950916121021,3.1989509161210776,13.665924304212677,14.746435093937947,13.595541393514509,30.390033703150092,79.97377290302654,67.89768609584698,"{'others': ['m1', 'm3', 'm12', 'e1', 'e2']}"
17,163,17,0.5672333333333321,5.05430972035405,138.78659607089665,14.735718420516749,17.214358608193397,28.322179787702453,29.38462829652909,46.13009531979987,73.79984530433259,56.64435957540479,56.74011404267873,73.52240129473864,38.359513718994094,11.18819150137324,14.384817644622784,1.5983130716247729,1.5983130716247729,15.16292916106222,14.735718420516754,14.384817644622784,28.76963528924557,79.91565358123768,67.84834282587622,"{'others': ['m1', 'm3', 'm12', 'e1', 'e2']}"
18,163,18,0.6005999999999987,5.744394183601918,140.29282355043375,13.13793213001882,15.69128190098449,26.70703758416278,28.72197091800948,45.98276245506592,71.05423192252303,55.419836832675685,54.965686019473424,73.28758135929786,36.64379067964893,10.35585388772688,11.949062178146336,0.7966041452097556,2.389812435629324,15.69128190098449,16.247600324133835,15.135478758985414,28.67774922755132,79.66041452097593,69.592388584601,"{'others': ['m1', 'm3', 'm12', 'e1', 'e2']}"
19,163,19,0.6339666666666652,5.074238456569635,144.3975280649329,13.709837350353812,17.282233437953515,28.927609946368698,28.92760994636868,47.8702698588345,74.59303122305506,57.34113975353559,56.96383574320055,75.4169092938148,38.5107621925863,10.429998093825477,13.639228276540962,0.8023075456788433,4.011537728394444,13.709837350353732,14.793820171615948,13.639228276540962,27.278456553081924,78.62613947653028,65.4753745289232,"{'others': ['m1', 'm3', 'm12', 'e1', 'e2']}"
20,163,20,0.6673333333333318,3.608145562744476,137.4225131172937,11.74727086010616,15.892232675048698,30.1447551865378,30.616130339097516,48.13866599260512,72.97022810981677,57.18654612555771,56.47641125707645,77.4533640097049,40.34029375505463,12.102088126516437,10.488476376314168,0.8068058751011336,5.647641125707651,14.432582250977903,15.30806516954875,13.715699876718588,27.43139975343712,79.06697575990708,70.05751444018128,"{'others': ['m1', 'm3', 'm12', 'e1', 'e2']}"
21,163,21,0.7006999999999983,5.050561412941236,134.05411660131918,13.645865501205956,15.729884128090026,26.772739745187376,26.772739745187376,46.09588495521813,71.22903291168342,55.556175542353465,55.100907469711046,75.06500437902656,39.92819381863114,12.777022021961898,9.582766516471509,3.194255505490446,6.388511010980949,15.729884128090076,16.674503272547817,15.971277527452456,27.15117179666913,78.25925988451701,66.25674424412813,"{'others': ['m1', 'm3', 'm12', 'e1', 'e2']}"
22,163,22,0.7340666666666649,5.790416107014499,138.7563936263723,13.243188295762582,17.296852911429486,28.45790476827796,28.95208053507222,46.35115903516907,73.13789787264339,55.86383969959756,55.40605040106942,78.69265129427248,40.149311884832855,14.453752278539866,9.635834852359892,3.2119449507866307,6.423889901573261,17.29685291142957,16.766844887980028,16.05972475393321,24.0895871308997,77.08667881887916,68.60717422318663,"{'others': ['m1', 'm3', 'm12', 'e1', 'e2']}"
23,163,23,0.7674333333333314,5.785708204536202,135.11636971508588,13.710278620988657,17.282789691242712,28.434767045892087,28.434767045892087,46.31347318799413,73.62255763012824,56.34642788129857,55.36100246717854,78.62867017077531,41.72133519265629,15.244334012701358,8.825667059984994,4.011666845447735,7.221000321805889,17.282789691242627,16.753212591243308,15.244334012701302,27.279334549044503,78.62867017077528,67.01285036497359,"{'others': ['m1', 'm3', 'm12', 'e1', 'e2']}"
24,163,24,0.800799999999998,7.308816827558688,137.611648532985,13.963474942815346,17.601961817623042,29.462782549439385,29.462782549439577,48.75588940975999,74.98219161793719,57.387012736064456,57.20053941530364,81.71505630757667,44.12613040609136,15.5258606984396,7.354355067681865,5.720053941530409,8.988656193833492,17.601961817623042,17.062604684879766,16.343011261515358,22.880215766121463,78.44645405527359,63.08487025191417,"{'others': ['m1', 'm3', 'm12', 'e1', 'e2']}"
25,163,25,0.8341666666666645,5.845708450470496,131.39597062869476,15.381076425047938,17.462019544398945,27.178071403672163,27.704920040792597,48.36826159487426,77.43336238027942,59.98838905420161,59.177735148063846,82.68669842606175,47.01792655599587,17.83438593503297,8.106539061378612,4.863923436827179,8.106539061378612,18.97692140559268,16.926950505449767,16.213078122757224,22.69830937186009,77.8227749892346,64.13906820073812,"{'others': ['m1', 'm3', 'm12', 'e1', 'e2']}"
26,163,26,0.867533333333331,5.835841460432118,132.73270750255998,15.355114656829263,18.94489019910096,25.59185776138206,27.658156817417492,48.28662065103112,78.82956886057798,59.88713445995888,59.07784885914862,82.54713128264603,46.93856484699478,17.804283217825628,9.71142720972307,4.855713604861535,8.092856008102558,18.94489019910096,18.45455107860892,17.804283217825628,24.278568024307617,80.9285600810255,65.0053337895878,"{'others': ['m1', 'm3', 'm12', 'e1', 'e2']}"
27,163,27,0.9008999999999976,5.138816370778844,133.2628949042569,16.96587832236136,20.55526548311523,29.29576070029575,29.875931095270527,50.060617829050656,83.2741982109265,62.7272478289546,62.56390220473253,84.50189388691143,48.75109262706428,17.875400629923604,13.000291367217072,3.2500728418043536,8.12518210451077,21.12547347172781,18.52826592003681,17.875400629923547,24.37554631353214,79.62678462420504,66.80461282012487,"{'others': ['m1', 'm3', 'm12', 'e1', 'e2']}"
28,163,28,0.934266666666664,4.574603888394494,131.52483409288246,18.44081782230299,23.549214838215885,29.157493117351866,31.23653964994694,46.3143344485352,85.97943364486233,62.43119322123268,61.45993518379703,85.72043591424324,48.52100146089242,21.83445065740159,15.364983795949286,2.426050073044621,10.512883649860044,17.419572631607934,16.88580424570043,16.173667153630788,24.260500730446157,79.25096905279091,67.54321698280172,"{'others': ['m1', 'm3', 'm12', 'e1', 'e2']}"
29,163,29,0.9676333333333308,4.574603888394655,131.99139408492752,16.88580424570043,23.54921483821582,29.15749311735165,29.73492527456468,46.3143344485352,84.42902122850221,60.88263303532047,59.84256846843397,88.95516934496942,50.13836817625548,24.26050073044621,11.321567007541546,6.469466861452361,14.556300438267726,21.99856568082127,20.458250529170297,18.59971722667541,21.02576729972003,77.63360233742785,62.911199433344684,"{'others': ['m1', 'm3', 'm12', 'e1', 'e2']}"
