,video_id,frame_seq,time_seconds,m1,m3,m4,m5,m6,m7,m8,m9,m10,m11,m12,m13,m14,m15,m16,m17,e1,e2,e3,b1,b2,b3,label_measures
0,199,0,0.0,9.755053054402538,134.63386916651038,17.667152490115843,33.1671803849689,37.06920160672985,41.01764915820534,43.31946565988339,103.69763637926218,70.66860996046343,65.35885546449737,60.48132893729616,58.530318326415625,16.583590192484394,43.8977387448117,10.730558359842805,0.9755053054402651,8.044222825361208,9.755053054402651,9.755053054402651,62.43233954817663,54.62829710465456,58.82224192450902,"{'others': ['m1', 'm3', 'm12', 'e1', 'e2']}"
1,199,0,0.0,56.28780357842335,145.26179848470136,15.920595043359754,31.841190086719507,40.58971239705051,48.420599494901104,79.60297521679968,183.259811240331,151.4549895559282,123.38461158603968,135.32505786855927,111.44416530351918,43.781636369240005,59.70223141259885,27.86104132587934,35.82133884756058,11.257560715685262,17.799766379599514,15.920595043359754,39.80148760839984,71.64267769511935,50.34534204220484,"{'others': ['m1', 'm3', 'm12', 'e1', 'e2']}"
2,199,1,0.0333666666666666,17.38805826313387,141.08939433392754,17.38805826313387,29.04442592378968,40.57213594731229,44.4361488946754,40.98404636509569,104.61418120917686,75.57084750055063,66.65422334201304,57.960194210446105,61.82420715780921,19.320064736815425,44.4361488946754,13.524045315770763,3.864012947363108,9.660032368407713,9.660032368407713,9.660032368407713,61.82420715780921,54.096181263083054,64.22287101067553,"{'others': ['m1', 'm3', 'm12', 'e1', 'e2']}"
3,199,1,0.0333666666666666,56.02218918124328,136.76759359120254,15.84546794678954,39.6136698669734,40.39817513134479,48.192109350885616,71.74340747609389,182.22288138807653,142.60921152110313,114.87964261422168,134.68647754770882,110.91827562752496,51.49777082706533,59.42050480045964,27.72956890688056,35.65230288027578,15.84546794678954,7.922733973394315,11.884100960091928,39.6136698669734,71.30460576055157,48.19210935088547,"{'others': ['m1', 'm3', 'm12', 'e1', 'e2']}"
4,199,2,0.0667333333333332,19.508575970534263,141.75901084081164,19.41175861871852,29.117637928077784,40.76469309930894,44.6892243740971,39.25785226201245,107.0466528805878,78.03430388213704,67.94115516551483,60.176451718027465,64.05880344177115,23.29411034246232,44.64704482305251,11.647055171231044,5.823527585615693,9.898093598999832,9.70587930935926,10.676467240295151,60.17645171802735,52.41174827053999,62.60104053274592,"{'others': ['m1', 'm3', 'm12', 'e1', 'e2']}"
5,199,2,0.0667333333333332,68.61189195850602,148.0224406466141,15.247087101890427,38.11771775472516,46.37220505978619,46.37220505978619,60.98834840756081,182.9650452226824,144.84732746795726,110.54138148870425,129.60024036606683,99.10606616228688,53.36480485661559,68.61189195850602,30.494174203780855,38.11771775472516,17.04676160934404,15.247087101889974,15.247087101889974,38.11771775472562,76.23543550945124,46.37220505978619,"{'others': ['m1', 'm3', 'm12', 'e1', 'e2']}"
6,199,3,0.1000999999999998,13.389838658353709,146.00451006178832,15.148873142905131,26.57807085604914,43.5941562660119,47.378085617669456,39.94572862949202,94.98295138714175,68.40622076715692,61.54229714305205,54.91466514303107,62.48910171448364,18.93609142863147,35.978573714399545,5.680827428589282,3.78721828572634,9.468045714315735,11.361654857178848,11.361654857178792,62.48910171448358,47.34022857157845,64.82673481454768,"{'others': ['m1', 'm3', 'm12', 'e1', 'e2']}"
7,199,3,0.1000999999999998,64.2926536240025,153.39299776947524,15.949044456578122,39.8726111414444,40.66224445362533,56.38838744346052,71.77070005460064,191.55459731363047,151.72563305700905,119.617833424335,135.56687788091313,111.64331119604594,51.834394483878896,67.78343894045611,27.910827799011717,35.885350027300774,15.949044456578122,15.949044456578122,19.93630557072265,39.8726111414444,71.77070005460064,58.05539813645451,"{'others': ['m1', 'm3', 'm12', 'e1', 'e2']}"
8,199,4,0.1334666666666664,17.23877820389748,152.40341254061158,17.133341262499812,30.459273355555183,43.82657079127841,47.6306734922843,38.50004258010578,103.0816920687485,72.74045004674353,63.774103588193725,55.20743295694376,60.918546711110366,19.988898139583057,44.73705774097175,12.37407980069429,2.855556877083245,9.518522923610988,11.422227508333208,11.422227508333208,60.918546711110366,47.59261461805494,64.83784179963975,"{'others': ['m1', 'm3', 'm12', 'e1', 'e2']}"
9,199,5,0.166833333333333,22.82536047075282,159.32712768949844,17.059887118154393,30.38786619453853,47.42647103624416,51.17966135446295,38.09994303284742,108.31166614096664,77.92503321594876,66.34400545948915,56.86629039384775,62.55291943323255,21.79874465097498,48.336346834770666,14.216572598461994,4.738857532820589,11.373258078769595,11.373258078769538,11.373258078769538,58.76183340697605,47.38857532820646,64.55986868758677,"{'others': ['m1', 'm3', 'm12', 'e1', 'e2']}"
10,199,6,0.2001999999999996,22.821260904383067,159.24213274168466,17.05682306404708,28.428038440078467,47.417952968547446,51.17046919214113,38.09310006336423,106.28352746282124,77.91103743060549,66.33208969351625,54.96087431748498,58.751279442828775,18.952025626718974,49.27526662946923,17.056823064046966,3.790405125343796,11.371215376031389,9.476012813359487,10.42361409469538,56.85607688015688,51.170469192141184,60.76481671705863,"{'others': ['m1', 'm3', 'm12', 'e1', 'e2']}"
11,199,7,0.2335666666666662,24.82802035807219,160.0,17.24346573289687,30.467555771249863,49.50977812828114,51.41400036398432,38.274393247578125,110.51053299881744,80.06795980271282,67.5998893674606,57.12666707109349,60.935111542499726,20.946444592734338,51.41400036398409,17.13800012132799,5.712666707109406,9.521111178515582,11.58293166469563,11.4253334142187,55.22244483539038,49.50977812828103,59.03088930679678,"{'others': ['m1', 'm3', 'm12', 'e1', 'e2']}"
12,199,8,0.2669333333333328,19.14240319788701,160.04353050616746,17.142662782702928,32.38058525621659,47.618507729730254,51.46324922873276,40.18054084037872,108.72046786542454,76.4035951610224,66.66591082162245,57.14220927567635,60.951689894054766,19.04740309189208,49.52324803891963,15.237922473513777,3.809480618378302,11.428441855135247,11.428441855135247,12.380812009729825,55.2374689664872,51.42798834810873,59.077663214815054,"{'others': ['m1', 'm3', 'm12', 'e1', 'e2']}"
13,199,9,0.3002999999999994,9.619828401828984,150.9400761604707,13.20622496801468,30.244555968816822,43.39188203776234,45.27848560462167,43.5556255706771,96.29073794065532,66.27324426049849,61.31461592292504,54.71150343891776,56.59810700577697,12.262923184585134,40.56197668747336,8.489716050866491,0.9433017834296606,11.31962140115536,9.619828401828938,10.376319617725756,56.59810700577697,54.71150343891776,64.17225944587183,"{'others': ['m1', 'm3', 'm12', 'e1', 'e2']}"
14,199,10,0.333666666666666,5.964902871621188,147.140987912957,15.207578069540736,30.239174973605703,43.384161920803535,45.2704298304036,47.30735850001819,98.10406681407125,68.01035667325642,65.07624288120547,60.36057310720497,62.24684101680515,14.147009322001168,36.78222423720297,2.829401864400211,0.943133954800146,11.3176074576009,13.337928300128414,13.203875367201078,50.92923355920419,52.81550146880437,69.81739810891455,"{'others': ['m1', 'm3', 'm12', 'e1', 'e2']}"
15,199,11,0.3670333333333326,7.403520690647838,142.52979149065726,12.956161208633604,27.824830196481265,40.71936379856311,44.42112414388703,48.2650498934389,96.2635642580373,68.58254099119158,64.78080604316841,61.07904569784449,62.92992587050645,13.881601294964526,34.24128319424631,2.776320258992996,2.7763202589928824,11.1052810359717,13.087699212530012,13.881601294964696,48.12288448921089,55.52640517985873,57.40713049646474,"{'others': ['m1', 'm3', 'm12', 'e1', 'e2']}"
16,199,12,0.4003999999999992,7.63243674304035,142.53761183381334,12.957964712164769,29.675996730952424,40.72503195251829,44.46585623180433,48.27176841032932,98.1801336561308,68.71686876430961,64.78982356082423,61.08754792877716,61.08754792877716,12.957964712164769,37.0227563204711,3.70227563204719,1.851137816023538,9.255689080117747,11.260031745726168,12.95796471216488,48.12958321661233,53.682996664683,59.35199346190485,"{'others': ['m1', 'm3', 'm12', 'e1', 'e2']}"
17,199,13,0.4337666666666658,7.665589395127916,143.1567456718817,13.14637735547861,27.949581639594136,44.6202843652618,46.47946288048115,50.33534844237124,98.5539991658504,70.74656740862906,66.93042654789275,65.07124803267351,65.07124803267351,14.873428121753932,33.46521327394635,1.8591785152192413,5.5775355456577245,11.155071091315447,14.989176389796537,14.873428121753932,52.05699842613882,55.7753554565773,57.664512925174606,"{'others': ['m1', 'm3', 'm12', 'e1', 'e2']}"
18,199,14,0.4671333333333324,5.875622194774068,133.79141380190174,14.97995611282602,31.64119386331573,40.87676737347192,44.63152940847023,48.34462513140795,100.33388355306728,68.77239457859443,65.96023826173871,65.0312208214325,63.17318594082019,15.79329648520502,36.23168017194098,0.929017440306211,4.645087201530828,11.301984951775976,15.321748137693334,13.935261604592654,50.16694177653363,59.4571161795954,63.200504076558026,"{'others': ['m1', 'm3', 'm12', 'e1', 'e2']}"
19,199,15,0.5004999999999991,5.598681354791893,136.3495724993895,15.04600404430862,31.780702643486592,41.22630452258103,44.828313709714585,48.521905074863184,100.84536022185664,69.07561805740913,66.25106269837102,69.0504033757669,63.45172202097501,17.72915762350783,34.5252016878834,0.9331135591319252,6.531794913923932,11.35181638800254,15.046004044308562,14.929816946111773,48.521905074863184,59.71926778444703,63.69824377751384,"{'others': ['m1', 'm3', 'm12', 'e1', 'e2']}"
20,199,16,0.5338666666666656,5.597158608454606,143.8541146757653,15.041911786489772,30.08382357297943,44.816121168974654,46.68028788068385,48.54457390265121,98.9535148807536,69.03162283760685,66.2330435333796,69.03162283760685,61.56874469300067,16.791475825363932,33.58295165072764,1.86571953615146,5.59715860845472,11.34872888654794,13.582643245760655,13.992896521136515,50.374427476091455,61.56874469300072,61.82263750083872,"{'others': ['m1', 'm3', 'm12', 'e1', 'e2']}"
21,199,17,0.5672333333333321,5.86500176380784,144.85485794607158,15.29405344205371,29.90575844091272,42.697857341345696,46.515047606851525,46.40398883890061,96.51448043018436,66.76835059633629,63.9863359881557,66.76835059633629,59.3496449745212,16.692087649083987,33.38417529816832,1.8546764054539155,5.564029216361291,9.457031182809002,11.73000352761577,12.055396635449654,48.2215865417985,61.204321379975,65.3362249449967,"{'others': ['m1', 'm3', 'm12', 'e1', 'e2']}"
22,199,18,0.6005999999999987,5.61988461090391,146.30900653648123,13.246195059520003,26.29294645349055,44.99808693959144,48.8495536964874,50.5789614981345,95.61147270703388,69.33722037551694,66.50196789569532,67.43861533084589,59.94543584964083,13.113064092108855,31.846012795121737,3.7465897406025306,3.7465897406025306,11.394807845268474,11.847757038523604,12.176416656958338,52.45225636843571,65.56532046054468,65.80573189421865,"{'others': ['m1', 'm3', 'm12', 'e1', 'e2']}"
23,199,19,0.6339666666666652,0.0,145.89175326153546,13.379497913657712,26.55754506389831,43.5604892404648,45.4509244067151,49.19581525881688,89.01137728009117,62.46950475544245,62.44084244388296,62.44084244388296,54.87225548098809,9.460733703618644,30.27434785157959,1.8921467407237744,1.8921467407236603,9.648093153531232,13.379497913657657,13.245027185066022,51.08796199954054,64.33298918460662,64.58293482819289,"{'others': ['m1', 'm3', 'm12', 'e1', 'e2']}"
24,199,20,0.6673333333333318,2.6877739096674627,146.78543360344244,13.438869548337024,26.6753943937977,43.87744601841332,45.77114037198309,47.55157461651532,89.64844145776539,62.97655592067101,61.76765262921856,62.71792420812972,51.31466526119698,9.50271578911054,32.3092336829759,3.80108631564417,1.900543157822085,9.690906648160174,10.234738127944013,11.403258946932738,45.61303578773067,62.71792420812972,63.17698192928034,"{'others': ['m1', 'm3', 'm12', 'e1', 'e2']}"
25,199,21,0.7006999999999983,3.7585204677359343,145.00779180568748,11.43109373525167,26.37667432106831,45.25857968856915,45.258579688569135,47.131606886778535,88.64452794267363,62.27132318494662,60.136327483775176,60.136327483775176,50.74002631443523,8.456671052405909,32.88705409268948,4.698150584669975,2.818890350802008,9.396301169339836,9.582384603611782,10.33593128627382,43.22298537896336,63.89484795151105,64.14309133481252,"{'others': ['m1', 'm3', 'm12', 'e1', 'e2']}"
26,199,22,0.7340666666666649,4.221909239194011,145.68951776517557,11.32857126440672,26.70169854072333,43.5900628436979,45.47135410764714,47.35318697931717,89.24121511050559,62.56407971215278,60.41904674350235,60.41904674350235,50.97857068983012,8.496428448304982,33.0416661878528,6.608333237570605,2.832142816101623,11.484834801491004,11.941362610352892,11.32857126440672,43.42618984689233,64.19523716497122,64.44464761630792,"{'others': ['m1', 'm3', 'm12', 'e1', 'e2']}"
27,199,23,0.7674333333333314,11.280168526976697,148.71247966529253,11.280168526976697,24.727908741092254,43.28149689930644,45.277072060768674,43.28149689930621,90.41742906269214,65.82783513924713,60.160898810542335,54.52081454705399,47.00070219573615,7.520112351317834,39.48058984441843,13.160196614806068,0.0,11.43576440855719,10.124261095003572,10.340154483061951,43.24064602007735,62.04092689837182,64.36179438241628,"{'others': ['m1', 'm3', 'm12', 'e1', 'e2']}"
28,199,24,0.800799999999998,18.553506747561343,161.13348635845514,9.413518785503015,26.108403587442066,49.98242315402135,50.38989530273639,36.92285844527101,90.53632460545448,64.6150022792242,55.38428766790639,53.53814474564297,40.61514428979808,10.15378607244952,43.38435867319333,15.692214839240137,4.615357305658904,9.413518785502973,9.941783893914112,9.230714611317753,40.61514428979808,57.230430590170045,57.97006363436102,"{'others': ['m1', 'm3', 'm12', 'e1', 'e2']}"
29,199,25,0.8341666666666645,22.638536030384344,162.21712077983912,7.751554385248861,26.587612194507606,49.02513452810498,51.073135217435215,39.48058984441843,95.95513074727708,69.56103924968966,58.28087072271296,56.40084263488348,43.24064602007729,10.340154483061951,46.06068815182152,17.860266834379786,8.460126395232464,11.280168526976697,10.124261095003437,10.340154483061951,43.24064602007735,62.04092689837188,62.49502940382997,"{'others': ['m1', 'm3', 'm12', 'e1', 'e2']}"
30,199,26,0.867533333333331,14.79858384328602,156.71026830899254,9.359446217950408,25.95843326828291,48.04063782645738,51.68923119910521,36.71076838596275,86.34837839783813,60.57276783683847,53.23061415964594,51.39507574034781,36.71076838596275,7.342153677192527,42.21738364385703,14.684307354385057,3.671076838596264,9.359446217950453,11.608964275454523,11.930999725437855,36.71076838596264,58.73722941754028,57.637075486854805,"{'others': ['m1', 'm3', 'm12', 'e1', 'e2']}"
31,199,27,0.9008999999999976,14.792199740194048,156.48140344269578,9.355408556632904,25.947234810657186,49.673878590064895,51.66693248564635,38.52967794407607,88.1442499227579,62.381383338027945,55.04239706296585,53.207650494200266,40.36442451284165,8.256359559444832,41.2817977972245,13.760599265741575,4.586866421913783,9.35540855663286,11.6039561729557,11.925852696975936,36.6949313753106,58.71189020049701,57.61221087577282,"{'others': ['m1', 'm3', 'm12', 'e1', 'e2']}"
32,199,28,0.934266666666664,9.301118375578769,164.55358200426278,11.31529886896774,29.995205476540804,52.38437431447183,52.38437431447183,40.92492085254662,91.32163715528436,61.41556001855452,56.73682209103049,53.94648657835694,37.20447350231507,4.65055918778944,45.57548004033595,13.951677563368094,0.9301118375577744,11.31529886896778,11.765087541469718,12.091453888252431,37.20447350231507,61.38738127881993,65.76883875990563,"{'others': ['m1', 'm3', 'm12', 'e1', 'e2']}"
33,199,29,0.9676333333333308,7.409869514359798,161.84459497385754,9.445767311724358,26.000618676904008,48.48371109235418,50.324416706903534,37.0493475717991,79.74221200427742,53.75348358310405,50.01661922192886,50.01661922192886,35.196880193209154,5.557402135769962,37.0493475717991,11.114804271539697,1.8524673785900632,7.637918669937504,9.975842133547358,10.18857058224478,38.90181495038905,61.13142349346856,61.82913409596089,"{'others': ['m1', 'm3', 'm12', 'e1', 'e2']}"
34,199,30,1.0009999999999972,7.41591605035876,147.21340536571725,11.27731406973991,27.871415975544107,44.64972725438963,46.68199873145994,40.95573502468314,87.4520151200007,59.58747384336853,55.61937037769098,53.76539136510121,38.933559264383575,5.561937037769098,40.78753827697335,11.123874075538197,0.0,11.123874075538197,13.497170944072806,12.977853088127915,40.78753827697335,64.8892654406394,61.879587357569655,"{'others': ['m1', 'm3', 'm12', 'e1', 'e2']}"
