,video_id,frame_seq,gap,time_seconds,m1,m3,m4,m5,m6,m7,m8,m9,m10,m11,m12,m13,m14,m15,m16,m17,e1,e2,e3,b1,b2,b3,label_measures
0,73,0,0,0.0,32.899782598326055,201.9736290822225,11.963557308482224,22.481462844757903,53.83600788817,56.82689721529061,49.37232695073524,116.6830221921824,94.2248816652508,77.76312250513445,65.79956519665222,71.78134385089334,19.440780626283527,47.85422923392901,22.431669953404253,10.468112644921916,17.945335962723334,18.007538353611302,17.945335962723334,56.82689721529061,40.37700591612753,80.8093796905474,{}
1,73,1,0,0.0333333333333333,34.38329637029589,200.27027604158948,10.454604690566953,19.47305258405344,53.78727767204676,58.266227757477935,47.815809062105934,112.10319676628134,92.64609263435057,75.42250526766145,62.7276281434016,70.19520292237803,18.668936947440898,45.55220615175597,23.1494818148268,9.707847212669208,16.42866451374806,15.009639544026369,14.935149557952798,58.24708327601576,40.32490380647244,79.2829991204481,{}
2,73,2,0,0.0666666666666666,34.40248615628563,203.4290822040748,11.954788054665071,20.974180784842453,53.81729708427465,56.86383878967471,47.8424957163738,115.15213396517724,94.1913836191026,76.95894810190589,62.76263728699121,71.72872832798998,19.426530588830587,47.81915221866007,22.415227602497,8.966091040998663,17.932182081997496,17.994338878708117,17.185007828580865,55.29089475282564,38.85306117766129,80.81925247199824,{}
3,73,3,0,0.0999999999999999,36.15502511004468,198.88538968483448,12.041227115310107,21.12583453868162,54.20642289605394,55.77197570766416,48.25888885979755,117.55623771858582,96.43558994919636,78.26797624951519,64.72159574479144,73.75251608127394,21.072147451792603,48.1649084612402,24.0824542306201,10.536073725896244,18.061840672965104,19.62479919293018,18.061840672965104,57.1958287977227,40.6391415141714,81.4036158445457,{}
4,73,4,0,0.1333333333333332,36.301295983725794,199.62709858369604,10.686099792627497,21.2113024443408,52.89349539462182,55.93639931669778,51.4044720226053,119.54111459777464,98.33534599990293,80.09586445471302,68.00592265022806,75.56213627803118,20.40177679506837,47.60414585515957,23.42426224618964,11.334320441704676,18.19777221135012,18.19777221135006,18.134912706727448,60.44970902242488,40.8035535901368,80.32365265571978,{}
5,73,5,0,0.1666666666666665,35.988642876605354,193.58420391323784,12.089571453444211,19.55143726676212,52.50485496960412,54.00378705987331,51.005957839425065,118.54800144631984,99.01419768946798,80.97444647236205,68.97823218016026,76.47586611278643,21.74313840461582,45.73556698901928,21.743138404615703,11.246450898939202,17.994321438302677,18.05669362337596,17.244558045040037,56.98201788795848,38.9876964496558,79.60213617938768,{}
6,73,6,0,0.1999999999999998,39.0085340503374,192.18847436627053,10.608922673515307,19.561886846491465,51.03321879297253,55.53241561482808,51.03321879297265,120.11062243077866,100.56676753627691,81.01772456608535,69.01509870444306,76.51673986796948,21.75475937422664,47.260339330216425,24.755415839637067,11.25246174528968,18.00393879246343,16.571666974508428,16.503610559758158,57.012472842800776,39.00853405033735,79.74353940309823,{}
7,73,7,0,0.2333333333333331,40.44286417364962,190.31294476310725,12.06805145187566,21.009397007964942,50.91516485334337,55.46458188032455,50.89315700063878,124.32030582328214,103.3265496265263,83.07559451574855,71.84916282443123,80.83030817748511,25.446578500319447,47.89944188295408,22.452863382634632,14.968575588423278,16.465433147265458,15.043232288899922,15.71700436784431,56.88058723600801,37.42143897105791,79.38991571519956,{}
8,73,8,0,0.2666666666666664,49.21846949008916,176.13982674245045,9.06808782636317,19.60820809308791,49.2861547883854,52.262574196262776,50.70859004697169,128.42396415572924,108.91912415164607,84.22932173293316,77.52079168340742,86.46549841610829,31.30647356445286,46.214318118954566,22.36176683175222,22.361766831752,17.88941346540173,16.466252509257778,16.398629009951605,56.64980930710544,37.26961138625359,80.62649692185235,{}
9,73,9,0,0.2999999999999997,58.07572328563721,158.53281933981867,10.263227681724,19.0907070289786,45.01803115062286,50.82111585549964,47.91949254053648,135.17882595913133,116.1967810433848,87.08637468730217,82.732055952937,92.89213299978894,39.91458839834684,47.17178628895533,25.400192617129733,29.75451135149489,18.868714515582155,17.477646955354874,18.14299472652124,58.05758312486808,36.28598945304259,77.26786000589502,{}
10,73,10,0,0.333333333333333,59.46411766764888,155.6885368150301,11.689573386182198,21.941167083034024,45.04075275068734,49.4885747083015,47.86909670959603,140.82829437194113,118.97241865418094,89.16965764359509,84.09496168013845,97.14417987188416,42.77243740627739,50.022003068358345,23.92356668486707,31.17313234694791,17.459266115022437,17.638954548096976,17.39895758899422,59.44643842906345,36.24782831040454,80.07406995548787,{}
11,73,11,0,0.3666666666666663,60.11243692543584,158.83342090539327,11.806496972978984,20.70996570015088,46.952739766805166,51.33816284507323,49.81166529798763,142.31981249991085,121.6875712753019,91.52598240448413,86.40052738983309,101.0446845745505,43.93247155415236,48.325718709567695,23.430651495547977,32.217145806378426,17.57298862166101,17.815386122199367,17.572988621660954,61.50546017581337,35.14597724332191,82.33350986298959,{}
12,73,12,0,0.3999999999999997,57.97573677350447,157.14801076992217,8.805316208115237,20.471944351721643,45.0847807122196,49.30297082460551,50.7481290940189,137.89340062653153,117.47757082708044,88.30268911857343,82.51234884850305,98.43578459119658,39.80858935673393,47.0465146943219,22.43756854652269,29.67549388411078,17.371020810211178,17.610632416230473,17.371020810211178,63.693742970774224,34.7420416204223,80.08953263248237,{}
13,73,13,0,0.433333333333333,52.31185640658844,160.5745832923682,8.808373840032594,19.31990015056395,48.13666690447456,51.01298856461506,52.211545947259104,132.41889454871665,113.2845248608762,86.88526434650157,78.19673791185141,98.46996625936843,36.20219347770899,43.44263217325079,20.27322834751704,24.617491564842112,17.437285468862814,17.61674768006519,17.377052869300314,63.71586052076782,33.30601799949227,78.67795314864512,{}
14,73,14,0,0.4666666666666663,39.82834958629688,155.43014419450074,10.000937631856456,21.4029411788329,44.20821692523004,47.0150449612662,52.63572429824714,123.85829166562768,102.4595938361519,82.03207748543014,76.37469283126256,96.17553912084908,33.94430792500543,36.773000252089446,11.314769308335258,22.62953861667029,15.621963979594046,15.812870826978594,15.55780779896088,63.64557735938541,31.11561559792176,79.65669917259355,{}
15,73,15,0,0.4999999999999996,33.94271733067982,154.88599276669916,10.260547741050129,20.179460035881164,44.05344666180974,46.85044816457401,52.31873315176452,116.42657446389306,96.34529284889396,78.92609895145256,73.28852045492033,93.0200451927834,31.00668173092788,32.41607635506091,8.456367744798513,19.7315247378632,15.56727243923288,17.146025620160895,16.912735489597026,64.83215271012176,32.41607635506091,79.72739968738938,{}
16,73,16,0,0.533333333333333,27.06999411542887,158.7063745114865,11.684124756739704,20.28703879286811,44.2883000733702,47.100212676055904,52.50213903731237,111.25211334780356,91.07976167816832,77.22149964893538,70.84541252195902,92.09903627854668,29.04661913400309,29.04661913400321,4.95917887653718,16.29444488005049,17.06183470713454,17.526187135109556,16.294444880050605,65.17777952020225,31.17198150966192,81.37051314546504,{}
17,73,17,0,0.5666666666666663,25.514929422505297,157.61863989355447,9.96190628058726,20.17132282839044,45.43328291306568,48.41527447690972,52.297636036849084,107.81894091345484,87.75529132350205,74.66779373621034,70.44131484548154,90.16488300221636,28.17652593819253,26.76769964128312,2.817652593819389,16.90591556291554,15.560995059873884,17.139111621081366,16.20150241446072,66.21483595475263,30.99417853201186,76.9069488011001,{}
18,73,18,0,0.5999999999999996,23.957193297124945,159.54145850953495,10.189199405496751,19.79325066259609,45.13555597663863,46.52466619066492,53.3500626716736,107.11239714402475,87.32615302953806,74.87828844407045,68.58011464970946,89.57402729757962,25.892492265706665,27.292086442231263,2.09939126478696,14.69573885350917,15.459022957268056,15.647938598110162,15.395535941771527,65.78092629666003,32.190666060067656,79.1730026503844,{}
19,73,19,0,0.633333333333333,23.547772820923715,159.54278513861567,11.091051079129535,22.182102158259056,45.72957509837183,48.46206523163115,51.06703415751728,107.86559824558462,85.69034471008507,73.59864336496241,68.78377884575923,89.41891249948708,28.20134932676126,28.20134932676137,2.0635133653728417,15.820269134524551,15.1948333895556,18.35380140842558,17.195944711439836,63.28107653809855,30.264862692134045,79.00259426153818,{}
20,73,20,0,0.6666666666666663,23.565060299154545,161.02513304451392,11.352439642389326,20.83303226072909,43.03105828760898,45.76314723447266,52.386456866783774,107.94478722858102,87.1236387154641,75.0293609586505,68.83427610885371,89.48455894150982,26.845367682453,28.22205320463001,3.441713805442646,14.455197982859318,15.143540743947767,16.748102220605492,15.83188350503633,63.32753402014538,31.66376701007272,80.42718887947848,{}
21,73,21,0,0.6999999999999996,27.21388221350233,160.13684081706825,11.206571614627666,20.788647878103355,46.52454347511736,47.874494923774186,50.35627343018528,109.26196036932308,88.59572766003578,74.74480340437447,69.30881770223812,88.33476765971523,28.53892493621572,29.89792136174969,4.0769892766021485,16.30795710640905,15.010606141090925,16.53290507209581,15.628458893641948,62.513835574567736,31.256917787283896,79.56805114905227,{}
22,73,22,0,0.733333333333333,34.85338329045726,156.3575524198353,11.046000647876436,23.123775272255173,45.72077366286632,48.519635044591794,49.63475432650814,118.36423902780984,95.3417679105542,77.69241146724869,73.67383846032203,91.08765482367096,32.81834622323447,35.49739489451872,8.706908181674407,22.10215153809668,17.46526054149244,16.56900097181458,16.744054195527724,61.618119439542056,32.14858405541321,75.44269556429533,{}
23,73,23,0,0.7666666666666663,39.09509228788769,156.7096704025495,10.843027681767348,23.0211862446209,47.24452294597768,50.05169332277136,49.83439116780815,122.74855516819012,99.75041487794653,80.02226760876147,76.65998745713284,91.45402012429884,34.295257546612106,38.32999372856648,11.431752515537369,23.535961061400485,16.13894472781743,16.36156137815364,16.13894472781749,63.210866850618345,34.967713576937854,78.42117528455906,{}
24,73,24,0,0.7999999999999996,36.62639359854385,158.97872517611177,10.90683766298431,24.500733854188283,46.07561762276684,48.87057250262524,51.425212430759615,123.37453294297084,98.90449404324475,80.49318952678198,77.1111227399424,91.9922166020366,33.14425451102795,38.5555613699712,10.14620036051872,22.321640793141228,16.233920576829973,15.125062479635169,15.557507219462025,59.52437544837659,36.52632129786747,75.95131110497358,{}
25,73,25,0,0.8333333333333329,28.52405513111469,160.4641220599695,10.938475812758586,23.22383528921809,46.20927206380074,50.27306933369092,51.556535881347486,114.09622052445889,90.94280427462476,76.6564283498983,77.33480382202129,88.18881137598919,31.20527171765775,31.20527171765775,4.070252832737992,20.351264163689848,14.924260386705896,15.16893669935532,14.924260386705896,58.340290602577454,37.98902643888766,76.17162784851996,{}
26,73,26,0,0.8666666666666663,16.125096402460485,158.76829567541864,12.168246526156208,21.542080046820686,44.36437040511039,45.766749470885095,49.71904724092019,99.47440563677767,77.94954920544392,69.87541774399585,73.90669184461103,81.96924004584127,28.21891870430602,21.500128536614056,4.031274100615178,16.1250964024606,16.1250964024606,16.180989451864335,16.125096402460542,56.43783740861198,38.96898297261305,76.70022070693886,{}
27,73,27,0,0.8999999999999996,14.898641705736605,159.37106316515434,10.874854098864672,22.970251994452585,44.59404231975604,45.94050398890517,52.605526032112834,101.24537237043032,78.28035781038545,70.81513119707495,74.18728030169757,82.28043815279193,25.62833319513197,22.93061391143374,2.6977192836981203,14.837456060339605,16.186315702188608,15.08070925640248,15.511885881264108,55.30324531581096,39.1169296136224,75.64445279444985,{}
28,73,28,0,0.9333333333333328,25.647005085552,160.9938160039358,12.223342562602266,24.334629446853608,44.62653195009004,46.07294990531569,49.94416779818039,112.06943855479742,87.75013702858533,74.91625169727058,74.24133051080855,85.04006949419897,29.69653220432337,32.39621695017104,4.04952711877138,17.547950848009236,16.19810847508552,14.909496325240037,15.523187288623603,58.04322203572309,40.4952711877138,77.13023414740069,{}
29,73,29,0,0.9666666666666662,36.06216062779424,160.54873013692273,12.094694570298312,24.078512823616737,46.82350508913928,49.490660273861145,49.43656225047004,121.55017610694328,97.50139725292512,79.47031693902807,78.8024991496244,88.15194820127476,34.05870725958357,38.06561399600491,10.01726684105381,22.037987050318748,16.02762694568628,14.752577155325302,14.691991366879108,56.09669430990209,38.73343178540858,76.23659998429743,{}
30,73,30,0,0.9999999999999996,42.76907155673574,161.99455019511095,12.022932235497136,24.08294369806312,48.16588739612635,50.9214424056811,49.44565945684639,128.25156803865326,104.19874604097492,82.82464428898004,78.81700021048096,89.5040510864784,34.73291534699172,44.08408486348935,14.694694954496413,22.70998311149458,16.086141736461034,16.086141736461034,16.030576313996107,58.77877981798588,41.41232214449002,78.99792899997766,{}
31,73,31,0,1.0333333333333328,42.76907155673574,164.66058680864035,12.022932235497136,25.416876291363007,49.4997674352356,52.25328583149407,49.427610301488016,129.60803289024344,104.20730903117231,82.82464428898004,78.81700021048096,89.5040510864784,34.73291534699172,45.419966222989046,14.694694954496413,22.70998311149458,14.69469495449647,16.251698156977007,16.030576313996107,58.77877981798588,40.076440784990325,80.25301013065672,{}
32,73,32,0,1.066666666666666,35.84787113165279,164.71435114060054,11.941103126939993,22.594406531559184,50.487773700288805,53.13786750446624,49.09120174408668,119.4405118355249,96.86470142306833,78.94395956143671,76.95377570694666,84.91451112490665,31.84294167183998,38.476887853473386,11.941103126940106,19.901838544899988,15.92147083591999,15.9766580753512,15.921470835920047,57.05193716204673,38.476887853473386,79.70680125669952,{}
33,73,33,0,1.0999999999999992,28.36379493658411,164.79256506295545,10.793025153182384,24.321753504482206,47.23875437266116,49.99061398735139,49.91774133346826,113.358881655923,89.05267759499465,74.87661200020239,75.55117607227635,83.64594493716311,29.68081917125141,33.72820360369485,6.745640720738948,20.23692216221684,16.189537729773463,13.758461466693582,14.165845513551858,58.01251019835507,39.12471618028599,77.08942298764386,{}
34,73,34,0,1.1333333333333324,25.587540063913096,165.55331899404504,12.103661234171112,22.901991510998325,47.08900192988285,48.48930133405522,47.08900192988273,107.59650485129303,84.7256286391978,71.94954178090597,73.96681865326786,80.69107489447401,30.259153085427783,30.259153085427783,3.3621281206030744,19.50034309949785,17.48306622713602,16.36082156325311,16.138214978894837,59.17345492261427,41.69038869547825,75.61126401106704,"{'others': (['m1', 'm3', 'm12', 'e1', 'e2'], 4.790050135723776, 228)}"
35,73,35,0,1.1666666666666656,32.385154809000255,158.1599400682389,10.795051603000047,24.326320047435367,47.247623708536096,49.99999999999997,47.2476237085362,114.697423281876,90.418626625196,74.21597977062561,74.21597977062572,83.6616499232507,31.710464083812667,35.758608434937855,7.421597977062561,20.91541248081262,14.843195954125122,16.41593385084116,16.192577404500184,58.02340236612548,40.48144351125035,77.02119911356532,"{'others': (['m1', 'm3', 'm12', 'e1', 'e2'], 4.790050135723776, 228)}"
36,73,36,0,1.1999999999999988,43.515917098627945,141.3338026166406,11.935533001655845,22.445738073849625,43.57576024003328,47.61460080226843,44.83338924459364,122.60784060269008,100.18116448192085,78.42451787142829,80.40160655726265,89.62802042448948,40.20080327863127,37.564685030852274,9.885443429171689,28.338271163625336,15.816709486674654,16.034881303026165,15.816709486674654,56.67654232725073,40.85983284057613,75.23335539875347,"{'others': (['m1', 'm3', 'm12', 'e1', 'e2'], 4.790050135723776, 228)}"
37,73,37,0,1.233333333333332,61.80166013057431,131.81465780575803,10.601296026498597,26.429744574087568,40.78400012423444,46.09759042185139,46.09759042185127,144.64816011055964,118.3509094406729,87.44277444006775,90.7300967874388,99.93459936007751,49.30983521056453,49.30983521056464,19.066469614751668,38.79040369897746,15.779147267380663,15.996800959680115,15.779147267380663,56.54194437478071,43.392654985296815,73.74160881111811,"{'others': (['m1', 'm3', 'm12', 'e1', 'e2'], 4.790050135723776, 228)}"
38,73,38,0,1.2666666666666653,55.94749615357944,130.7885971898851,14.713340310094743,28.0054463850632,41.380432105679525,46.69897046695136,46.69897046695147,145.1970733509561,117.23089368462556,89.24957719737677,93.24582692263245,101.23832637314376,50.61916318657188,47.95499670306799,15.984998901022664,35.96624752730111,16.040406342379665,16.040406342379608,15.31895728014672,57.27957939533127,43.95874697781238,73.31300168451985,"{'others': (['m1', 'm3', 'm12', 'e1', 'e2'], 4.790050135723776, 228)}"
39,73,39,0,1.2999999999999985,53.88181679198908,122.47382612072396,11.900502512049243,26.31664732699829,39.51323518239813,43.54713063874117,47.38381786796906,139.3042092670936,113.02803658291278,86.07948780183608,93.30753639588352,101.1926803166624,49.939244831599694,42.05410091082058,11.827715881168274,36.79733829696829,14.456097188094589,14.98407886973662,14.456097188094644,56.51019809891534,44.68248221774701,74.95496501622237,"{'others': (['m1', 'm3', 'm12', 'e1', 'e2'], 4.790050135723776, 228)}"
40,73,40,0,1.3333333333333317,43.83833976200333,128.96766528311983,14.673039062589256,29.22555984133556,38.61610910519488,42.59285145916755,49.17002645598237,136.82875743898012,107.60319759764457,85.68402771664296,91.66198313873416,96.9757212917043,45.16677430024595,42.509905223760825,9.299041767697643,29.22555984133556,10.710181649053206,12.247561283930285,11.291693575061458,54.465816067943535,42.509905223760825,74.49900686542253,"{'others': (['m1', 'm3', 'm12', 'e1', 'e2'], 4.790050135723776, 228)}"
41,73,41,0,1.366666666666665,34.45046266563264,127.16977763034576,14.624486967273986,29.158930702097145,39.74322632969874,42.45191459019517,53.027714140179086,131.0865318633293,101.98537535220402,84.7384856365594,94.00675750305813,97.97887401727178,43.03126223731533,35.087029208887884,3.3100970951780937,28.466835018531697,7.944233028427448,9.639148238833904,9.268271866498708,55.60963119899208,43.69328165635096,71.54711892581999,"{'others': (['m1', 'm3', 'm12', 'e1', 'e2'], 4.790050135723776, 228)}"
42,73,42,0,1.399999999999998,28.3652697220283,128.3475105244157,17.559452685065025,32.445579056407595,40.54431975754421,44.65578249354679,55.379812314436094,133.72880751260854,101.30453472152942,87.12189986051533,95.90162620304784,98.60308046228864,41.87254101823214,36.46963249975056,1.350727129620395,24.31308833316712,8.216152372712207,9.060953042653122,7.428999212912117,58.081266573676885,47.27544953671372,71.70313053385881,"{'others': (['m1', 'm3', 'm12', 'e1', 'e2'], 4.790050135723776, 228)}"
43,73,43,0,1.4333333333333311,13.50049942224348,129.7172498277994,18.90069919114092,31.05114867116004,39.17471813239987,41.93855775861238,55.35204763119839,118.80439491574282,87.75324624458278,81.00299653346099,89.10329618680714,94.50349595570458,36.45134844005747,27.00099884448696,6.750249711121796,18.90069919114092,6.883930999726764,7.872076268748858,6.750249711121796,56.70209757342269,44.55164809340352,71.6671821508067,"{'others': (['m1', 'm3', 'm12', 'e1', 'e2'], 4.790050135723776, 228)}"
44,73,44,0,1.4666666666666646,9.417152797519634,129.40152339126846,20.22440700650521,32.31539610648332,39.0371067992542,40.38164184264135,56.51893008196336,118.3947072863529,86.09968272017954,81.39110632141978,88.79029780518522,96.86214306020202,36.32330364757581,25.560843307553228,9.417152797519634,17.488998052536544,8.071845255016854,9.793986744298328,8.744499026268215,57.848224327620585,45.74045644509533,72.69641642496293,"{'others': (['m1', 'm3', 'm12', 'e1', 'e2'], 4.790050135723776, 228)}"
45,73,45,0,1.4999999999999978,12.231038421115612,134.71290479755564,19.026059766179745,32.64440276745132,40.79277185334197,42.21671898766281,57.07817929853934,120.95901455663312,88.3352774858347,82.21975827527694,89.69428175484745,96.4893030999117,36.013613128840234,27.85958751476324,7.474523479570621,16.987553362660492,6.929589286752361,8.595097679945507,7.474523479570621,57.07817929853928,44.847140877423726,77.57045894675191,"{'others': (['m1', 'm3', 'm12', 'e1', 'e2'], 4.790050135723776, 228)}"
46,73,46,0,1.533333333333331,20.44735159695324,137.78676459490617,17.721038050692755,30.02041385863,39.53154642077618,42.27984064991023,58.61574124459901,126.78090848913791,96.784130892245,86.56045509376838,92.69466057285432,98.1472876653752,36.80523287451581,31.35260578199484,1.3631567731302994,20.44735159695324,8.178940638781285,8.621360421953712,8.178940638781228,57.25258447146888,43.6210167401668,73.6609357349053,"{'others': (['m1', 'm3', 'm12', 'e1', 'e2'], 4.790050135723776, 228)}"
47,73,47,0,1.5666666666666642,33.751248555608754,143.16259584434812,17.602497660985367,27.03472902483925,40.50149826673055,44.57209870182203,58.05214751564711,136.381775206705,109.36237864427063,92.47842104236804,95.85354589792894,99.90369572460202,39.82647329561837,38.4764233533939,7.425274682233862,23.625873988926173,8.21203320259359,10.281674041565346,9.450349595570517,58.05214751564705,43.20159815117921,75.71120519607649,"{'others': (['m1', 'm3', 'm12', 'e1', 'e2'], 4.790050135723776, 228)}"
48,73,48,0,1.5999999999999974,11.010875923083972,155.5834235350328,16.573562977895495,24.81267358028217,41.29078471156527,42.68933777650842,67.45565805143222,119.75118551430327,94.96880483659992,89.463366875058,92.21608585582896,96.34516432698548,26.839010062517445,25.4626505721318,2.0645392355783088,11.699055668276856,11.01087592308403,11.349751115361444,11.6990556682768,56.4307391058058,41.29078471156521,77.18665253853818,"{'others': (['m1', 'm3', 'm12', 'e1', 'e2'], 4.790050135723776, 228)}"
49,73,49,0,1.6333333333333306,2.743896660623932,149.54866121255125,15.09143163343174,19.25621244030169,38.43904451883491,39.810148833188045,65.86780943306543,102.93270356046686,83.70009287170802,82.31689981871864,87.80469313996662,89.17664147027858,22.63714745014761,14.405457468275811,7.545715816715869,10.2896124773398,12.347534972807807,12.648738624419972,13.03350913796379,54.87793321247904,39.7865015790473,74.13600532436175,"{'others': (['m1', 'm3', 'm12', 'e1', 'e2'], 4.790050135723776, 228)}"
50,73,50,0,1.666666666666664,2.743896660623932,150.97043106066786,13.719483303119771,17.888017709567173,38.41455324873539,38.41455324873539,67.2254681852869,101.5334459410689,83.6888481490306,82.31689981871864,86.43274480965454,90.54858980059056,21.265199119835643,13.033509137963732,7.545715816715869,10.2896124773398,12.347534972807807,14.323561082845067,13.719483303119771,53.50598488216707,39.7865015790473,74.13600532436175,"{'others': (['m1', 'm3', 'm12', 'e1', 'e2'], 4.790050135723776, 228)}"
51,73,51,0,1.699999999999997,3.0269346947662163,147.60768750675214,13.604379429318744,18.999893306736308,37.903217749319765,39.28023658343152,64.97694471311945,100.18193587790348,81.22118089139929,79.86749454320932,83.92855358777922,87.98961263234924,20.98213839694472,14.213706655994995,6.091588566854853,10.152647611424868,12.183177133709876,14.132900392031289,13.5368634818999,54.1474539275996,39.25690409750968,74.46505437310182,"{'others': (['m1', 'm3', 'm12', 'e1', 'e2'], 4.790050135723776, 228)}"
52,73,52,0,1.7333333333333305,13.467869101769184,147.4357004174333,9.475959632753886,17.472806221937315,38.862988824507056,40.20309188742112,58.97976124613925,99.16762665563895,81.75727055118695,75.0457715231862,81.74628683775643,84.42649296358456,24.121855132452765,16.081236754968472,2.680206125828136,16.081236754968472,13.401030629140394,13.991086730352402,13.401030629140337,53.60412251656157,38.86298882450711,75.09361709484496,"{'others': (['m1', 'm3', 'm12', 'e1', 'e2'], 4.790050135723776, 228)}"
53,73,53,0,1.7666666666666635,18.834305595039268,150.72848760365173,8.071845255016797,17.54066433364306,40.38164184264135,41.704533817586935,55.174012992938366,99.55275814520758,82.07478646290467,72.64660729515151,79.37314500766558,83.40906763517398,26.233497078804703,18.1616518237878,2.017961313754199,18.161651823787903,12.107767882525252,12.403122696836046,12.107767882525252,52.466994157609406,39.013918732581374,78.0742135985083,"{'others': (['m1', 'm3', 'm12', 'e1', 'e2'], 4.790050135723776, 228)}"
54,73,54,0,1.7999999999999967,25.769366711602167,147.72982770512496,9.577109714615142,20.36121454618351,41.98664318490637,44.71597549634745,52.83926729229946,108.35262757395184,88.04692780931032,75.16963537942911,81.26447068046389,86.68210205916148,31.151380427511185,24.37934120413911,1.1368683772161605e-13,23.024933359464853,14.959923608939194,14.140433036473636,14.221282369081166,51.46749809762719,37.92341965088315,77.30810013480651,"{'others': (['m1', 'm3', 'm12', 'e1', 'e2'], 4.790050135723776, 228)}"
55,73,55,0,1.83333333333333,36.21694541545867,147.605382318917,9.484906554494009,21.503770484872348,42.94474092509372,45.626245597471325,52.33055980454829,119.38931857555484,97.91988945661046,79.81141674888113,87.18894266684492,91.21304771300709,36.88762958981897,30.1807878462156,4.694789220522466,27.498051148774152,12.14660700977326,13.679326770085073,13.413683487206868,53.6547339488277,41.58241881034144,76.50504695591844,"{'others': (['m1', 'm3', 'm12', 'e1', 'e2'], 4.790050135723776, 228)}"
56,73,56,0,1.8666666666666631,40.50726664273952,149.97416976019502,9.547654310137585,21.64602948637621,43.22884347204676,45.92808773932425,51.32696768432932,122.87946083898731,101.2681666068488,81.01453328547905,87.7657443926023,93.1667132783009,39.15702442131487,32.40581331419162,8.101453328547905,29.70532887134232,14.85266443567116,14.913912796284167,14.85266443567116,54.00968885698603,40.50726664273952,77.01116896822386,"{'others': (['m1', 'm3', 'm12', 'e1', 'e2'], 4.790050135723776, 228)}"
57,73,57,0,1.8999999999999964,33.20042873982493,148.79126901902976,9.390499320092315,21.289734480508848,41.16853163738279,45.17210852840898,49.15457743659238,112.8892693107024,91.6331833219167,75.03296895200424,82.33706327476568,86.32111472354472,35.19245446421439,28.55236871624936,4.648060023575454,27.224351566656424,13.280171495929949,14.847683108877218,14.608188645522889,55.776720282905785,41.16853163738284,74.55843574258047,"{'others': (['m1', 'm3', 'm12', 'e1', 'e2'], 4.790050135723776, 228)}"
58,73,58,0,1.9333333333333296,26.85363369138064,152.92766320747123,8.046038836990533,20.15974775139632,42.91220713061648,45.61393649669393,51.02877644560805,105.97345544665131,85.91865204090028,72.41434953291525,79.11938189707394,83.14240131556926,30.172645638714584,24.80861974738764,2.0115097092476617,23.467613274555788,13.47694825907721,12.363468793789943,12.739561491901782,53.640258913270486,38.8891877121211,79.2215960266935,"{'others': (['m1', 'm3', 'm12', 'e1', 'e2'], 4.790050135723776, 228)}"
59,73,59,0,1.9666666666666628,24.433047334180465,153.29893193693735,6.910709382020331,16.319992580595404,43.39082310227369,46.10018150986091,50.16447130074286,97.58171628468142,81.32939029981756,69.12038236831597,74.5415888285761,81.31809690390116,27.78368310883286,19.651873418442847,0.6776508075324728,22.362476648572738,13.620612660507712,13.82141876404075,13.553016150650253,54.21206460260083,40.65904845195064,76.00572058223162,"{'others': (['m1', 'm3', 'm12', 'e1', 'e2'], 4.790050135723776, 228)}"
60,73,60,0,1.999999999999996,31.16067060104604,155.89757229149268,6.774058826314445,20.367286804103365,43.37514025656944,46.08351941447148,50.1463402396799,108.38494122102986,88.07318575445885,72.48242944156368,78.57908238524669,83.99832944629816,31.16067060104615,27.09623530525744,4.064435295788599,25.741423539994685,13.54811765262872,12.490747301104506,12.870711769997342,54.19247061051493,39.28954119262335,75.9782496585821,"{'others': (['m1', 'm3', 'm12', 'e1', 'e2'], 4.790050135723776, 228)}"
61,73,61,0,2.033333333333329,42.76251460229173,148.42875324922807,6.68164290660809,20.089423621898487,44.09884318361344,46.847799745013766,48.12638546787407,117.59691515630244,97.56113894261422,76.1707291353323,80.1797148792972,85.52502920458357,34.744543114362045,34.744543114362045,10.69062865057299,29.399228789075664,13.36328581321618,12.320340765045804,12.026957231894528,53.45314325286478,38.75352885832695,76.27615580050868,"{'others': (['m1', 'm3', 'm12', 'e1', 'e2'], 4.790050135723776, 228)}"
62,73,62,0,2.0666666666666624,48.59432542525644,148.70338026959288,8.210770607829673,21.76555426017316,44.56524577063595,47.26376258100803,47.26376258100814,125.56436619459704,103.93786271513204,79.64070000250388,82.34038474835143,90.43943898589418,39.145428814789966,39.145428814789966,13.498423729237857,31.046374577247207,13.565747956002776,14.092768112039522,14.173344915699827,53.99369491695177,39.14542881479002,74.43741227986744,"{'others': (['m1', 'm3', 'm12', 'e1', 'e2'], 4.790050135723776, 228)}"
63,73,63,0,2.099999999999996,40.06906736421581,146.97454314961988,8.124354052901538,21.41186719180605,42.76120273518992,46.76632187412768,46.823505089139154,116.20029535622588,94.83953151324556,74.79559241320271,80.13813472843162,84.1450414648532,35.394342838390685,34.05870725958346,8.681631262246697,27.380529365547545,13.42297144215611,12.313951597555077,12.020720209264766,52.08978757348058,38.73343178540864,76.23659998429743,"{'others': (['m1', 'm3', 'm12', 'e1', 'e2'], 4.790050135723776, 228)}"
64,73,64,0,2.133333333333329,28.118188569553467,150.11303564015327,9.467886577244446,22.919326664713616,42.86767970057503,45.70155813954128,47.03548474920254,107.11690883639405,84.3970617142318,70.29547142388355,76.32079754593076,83.01560434820533,32.80455333114571,27.448707889325988,0.6694806802274798,23.431823807961223,12.124810804003744,13.97916700673728,12.720132924321774,52.21949305774211,38.82987945319286,75.089354208627,"{'others': (['m1', 'm3', 'm12', 'e1', 'e2'], 4.790050135723776, 228)}"
65,73,65,0,2.166666666666662,25.36689621069172,145.74618669770433,8.010598803376297,22.853227406573208,44.13913439190495,45.47186068170778,48.23019156180838,104.14634242430247,81.53951931999347,68.75763972898028,73.43048903094984,81.44108783432614,29.37219561237987,26.70199601125444,0.0,21.36159680900357,12.015898205064502,12.309011966210884,12.01589820506456,53.40399202250893,40.05299401688171,76.20601835533225,{}
66,73,66,0,2.199999999999996,28.523783524951,145.49405894283836,9.604457502661932,21.774811231123262,43.549622462246525,46.26119335851774,46.26119335851773,105.94548166410368,84.2240282905164,69.95118340642739,74.70514732725258,81.49652435700284,31.91947203982613,27.844645821975973,2.0374131089250795,22.41154419817576,13.582754059500472,12.522680490404005,12.903616356525449,51.61446542610179,39.38998677255137,74.75452284310393,{}
67,73,67,0,2.2333333333333285,26.886693511951307,141.31509015726084,9.50588165299256,22.89319459586316,43.10264864453684,44.4444444444444,48.56379942527431,107.55517581134642,84.73575110669432,71.24973780667085,77.97141118465868,84.6930845626465,32.93619955214035,26.21452617415241,0.6721673377987827,23.5258568229574,14.84866181989843,15.030118595731365,14.11551409377438,53.7733870239025,38.98570559232934,75.39069133151683,{}
68,73,68,0,2.2666666666666617,26.897024964824595,139.92270839600783,10.758809985929927,25.587540063912986,41.77706319381066,44.461522620422365,47.1465796998275,110.28600236340336,84.76831157824732,71.27711615678538,78.00137239799153,82.0359261427152,32.948855581910266,30.25915308542767,0.6724256241205921,22.190045595980337,14.79336373065354,13.71484551532335,13.448512482412298,53.7940499296493,40.34553744723701,74.07677021580031,{}
69,73,69,0,2.299999999999995,26.965543196929502,137.68940120879105,10.870157978826208,24.418337910727907,40.53810028832585,43.33405580667333,49.90447154991462,111.9394881588756,87.63801539002088,74.15524379155613,79.54835243094203,86.28973823017441,33.03279041623864,28.98795893669933,0.6741385799232376,22.24657313746684,14.831048758311285,15.074196909635342,14.831048758311226,55.27936355370548,40.44831479539425,76.95816743289876,{}
70,73,70,0,2.333333333333328,26.892009684345567,141.34303168829578,10.840515672246656,24.240129954295547,41.76927334754378,44.45323222374239,51.16553790593655,112.94644067425132,88.75381774109503,75.29762711616752,80.6760290530367,87.39903147412303,32.94271186332321,28.908910410671524,0.6723002421086903,22.185907989585075,13.446004842172783,13.712288214020417,13.446004842172783,52.43941888447381,37.64881355808376,76.74830685890471,{}
71,73,71,0,2.3666666666666614,14.74883350938785,144.96183147390786,10.809899749038832,22.95085124856384,41.65130803077087,44.32768683593496,53.699120156832926,101.90985221031424,79.11874165391465,71.73296297747709,79.10737973217101,85.81139496371088,28.82726549562165,19.44164417146567,6.0336137083859285,16.76003807884979,13.408030463079797,13.67356179401814,13.408030463079854,52.29131880601125,38.88328834293145,75.19263650298258,{}
72,73,72,0,2.3999999999999946,13.604379429318744,143.59288157082494,12.18317713370982,21.701243038681408,40.70073615139484,42.05152070676257,54.16437236385923,101.53550028884712,79.86749454320932,73.09906280225937,79.86749454320932,85.2822399359693,28.427413311989653,18.951608874659883,5.414745392759869,16.244236178279834,16.244236178279834,16.468305193092604,15.56739300418485,52.793767579409575,39.25690409750968,77.34987958029393,{}
73,73,73,0,2.433333333333328,32.59860974280116,148.1516756463761,12.299706924537563,23.13059667925886,43.48603086473852,44.90533266440399,53.04235024556667,120.88651112955417,97.80526124166042,81.49652435700273,85.571350574853,91.0044521986531,35.31516055470115,32.59860974280116,5.433101623800212,23.090681901150788,14.94102946545047,13.851745599544907,13.582754059500472,54.33101623800184,40.74826217850136,74.81619641422688,{}
74,73,74,0,2.466666666666661,57.661228026006015,149.75953112283688,13.72497406813352,24.74304887853461,46.68509125392986,49.4860977570691,50.85653898799043,146.85722252902906,122.15997962263152,93.32982366330816,94.70232107012156,101.56480810418827,47.35116053506079,48.72365794187408,19.901212398793632,33.626186466927265,15.159729353406854,13.793428228785151,13.72497406813352,57.6448910861609,41.174922204400616,79.71126533468002,{}
75,73,75,0,2.4999999999999942,63.83894407965215,157.61263000081556,13.65049888902552,25.842952083381896,47.53963920825163,52.99015175802131,50.3295567599719,153.4851208723553,127.68511282408085,95.7584161194784,95.07927841650326,99.15410463435342,46.8605015052766,56.36842934692697,26.48637041602592,33.27774744577607,14.94102946545047,15.00264221948486,14.941029465450526,57.04756704990194,42.10653758445142,81.59833142275164,{}
76,73,76,0,2.5333333333333274,68.62487034066783,162.00702655164957,15.097471474946929,24.74304887853449,49.40990664528079,54.89989627253419,53.544992095075294,161.95469400397587,137.256602996816,102.93730551100155,98.81981329056156,102.93730551100155,47.35116053506079,61.07613460319431,32.25368906011386,33.62618646692715,15.097471474946929,15.159729353406808,15.78372017835352,57.6448910861609,43.91991701802738,81.0819614320335,{}
77,73,77,0,2.5666666666666607,70.94341265899621,160.98033256560834,13.708474486358144,24.55279548294789,47.74154677239869,51.83367935289005,53.26762860091562,162.32125902615564,137.76846354320776,102.303314512283,96.84713773829458,99.57522612528874,45.01345838540453,64.11007709436399,35.46514903092475,32.73706064393059,16.368530321965295,15.066360560573573,15.6865082252167,55.9258119333814,40.92132580491318,76.4960069997279,{}
78,73,78,0,2.599999999999994,67.31077000247416,162.08485477478212,13.73403206998944,24.72125772598099,49.442515451962095,53.56272507295887,52.20738983321962,157.94136880487883,133.22011107889784,99.57173250742368,96.1382244899263,98.8850309039242,45.32230583096532,60.42974110795353,32.961676967974654,32.96167696797477,16.480838483987384,16.53796461189443,15.794136880487828,56.30953148695676,43.94890262396626,82.44995981720028,{}
79,73,79,0,2.633333333333327,52.01089317265621,160.23236218487529,13.755342298121056,24.67472923903842,49.29248390628691,53.44974494017818,53.39714553927229,143.7208275903397,119.07757121108136,93.07212462475331,91.70341690968336,97.17824776996292,41.06123145209699,49.273477742516434,20.53061572604849,28.74286201646794,16.42449258083883,16.481423401736922,16.424492580838887,57.48572403293582,43.79864688223682,79.43223027018068,{}
80,73,80,0,2.6666666666666603,19.290971830899025,155.7117981073496,13.847990536505852,23.46524376304158,42.71572333984784,44.09364989919777,56.56216492489372,112.9899778666944,89.57582516570622,79.91974044229607,85.4314466796958,86.80937323904573,29.62542102602345,26.8695679073237,0.688963279675022,18.602008551224003,13.77926559349936,13.84799053650591,13.77926559349936,53.7391358146474,41.33779678049797,73.14700784821451,{}
81,73,81,0,2.699999999999993,12.65181101047161,153.69381831526044,13.971587974969225,22.39815941754416,40.51760512741066,43.311922722404574,57.30054668606192,106.19326004614857,83.82952784981535,77.54231326107913,85.22668664731225,86.62384544480915,28.64175534868696,20.25880256370533,3.49289699374242,16.06732617121463,12.651811010471553,12.881167647420703,12.574429177472323,54.48919310238,41.91476392490768,76.95796195491096,{}
82,73,82,0,2.7333333333333267,17.98231765765263,148.0147705427551,13.90154275683818,24.936987833210903,40.138243070939936,41.52070398604801,55.34749616662187,112.05220984626358,87.14507787939374,78.15391905056742,85.76182267495892,87.14507787939374,31.12324209978351,25.59022128204424,2.0748828066522265,17.29069005543522,8.414012927376168,10.070249893204716,8.991158828826372,55.33020817739293,44.264166541914335,74.81096349963259,{}
83,73,83,0,2.76666666666666,22.134598077378428,149.43415357406025,12.450711418525202,23.55866391963534,40.14280386669389,41.594496639174,56.73677594765447,114.82322752640005,91.31569686457964,80.23791803049653,85.77156754984105,88.53839230951337,30.43507235639516,27.66824759672284,1.3834123798361588,19.367773317706,8.414968988017963,8.749468127112408,7.608768089098817,56.71990757328194,45.65260853459279,74.71707678703007,{}
84,73,84,0,2.799999999999993,20.681787261239947,146.20981828970233,13.787858174159965,24.856414812879457,41.38654790637951,44.1426844286251,55.16866482725772,114.43922284552764,89.63168354928676,79.28018450141985,82.72714904495979,86.86350649720771,29.64389507444389,29.64389507444389,0.6893929087079869,15.856036900283923,7.030455788069162,8.720207177143207,7.583321995787912,55.1514326966398,44.12114615731184,71.74987313210175,{}
85,73,85,0,2.8333333333333264,17.98436093786995,148.05098055963293,13.83412379836136,23.558663919635453,41.525421866950325,42.90809107618184,53.9708159555228,109.28957800705552,85.78272337580353,76.77938708090608,83.00474279016873,85.77156754984105,30.43507235639516,24.90142283705063,1.3834123798361588,16.600948558033792,9.782202749595566,10.071394147398207,8.992180468934919,55.336495193445785,44.26919615475663,73.33390603016986,{}
86,73,86,0,2.86666666666666,18.0374906280299,146.6678120603397,13.83412379836136,23.51801045721448,41.525421866950325,42.90809107618184,56.73677594765436,112.05640276672771,88.53839230951326,79.54621184057828,85.77156754984094,88.53839230951326,30.43507235639516,24.90142283705063,1.3834123798361588,17.984360937869837,8.414968988017963,10.071394147398207,9.683886658852998,52.56967043377352,41.50237139508437,76.1379701766441,{}
87,73,87,0,2.899999999999993,27.47827016750705,142.9464406901131,13.807659873350062,22.02550908432167,41.2174052512604,43.98669442807297,55.11088885647269,118.16454931952664,96.21319225005308,82.43481050252103,87.93046453602233,92.05220506114836,35.0347944635713,28.16522692169474,2.060870262563072,22.66957288819321,12.365221575378143,13.80765987335013,13.739135083753467,53.5826268266386,42.59131875963584,75.61518694690359,{}
88,73,88,0,2.933333333333326,38.46957823450976,142.9926514694776,12.3652215753782,22.02550908432167,42.61347289312853,45.3599578710224,54.973711571282095,127.77395627890746,105.80026128504048,86.55655102764706,92.05220506114848,97.54785909464988,39.84349174288525,32.97392420100823,8.243481050251944,27.47827016750705,15.113048592128848,13.807659873350072,13.739135083753467,53.5826268266386,43.96523226801117,72.83037623872671,{}
89,73,89,0,2.9666666666666592,41.39023642648033,142.13465543777303,12.410178298532742,20.68363049755453,41.39023642648033,44.146618585665365,55.17358165988676,129.61741778467467,108.93378728712014,88.25015678956572,93.76579158891354,99.28142638826148,41.36726099510895,33.09380879608716,8.27345219902179,28.957082696576208,16.604259524606277,15.416667938006524,15.857450048125088,55.156347993478505,44.1250783947828,75.8901040606105,{}
90,73,90,0,2.9999999999999925,11.190836218918054,148.52160682619342,15.33153987147702,22.252172763959745,40.25351960709918,41.66469979141378,66.68432564797301,115.2167106783414,93.04093599031177,87.44730121542227,92.99951081640154,92.99951081640154,26.372995604651123,22.20883840391673,2.776104800489634,12.492471602203182,16.71436425786739,16.886386260599135,16.656628802937576,54.13404360954712,41.64157200734394,75.07041153170225,{}
91,73,91,0,3.0333333333333257,1.4022663162060098,152.85346074540365,15.488537704736531,18.28331588268964,40.66572316997406,42.06798948618007,65.92143290054271,100.97291225779048,82.73371265615413,82.03257949805118,88.34277792097816,86.94051160477215,21.735127901193096,13.321530003956925,7.712464739133111,9.114731055339009,16.827195794472004,15.488537704736522,16.126062636369,54.6883863320341,43.47025580238608,75.77429906619113,{}
92,73,92,0,3.066666666666659,1.976459727995057,153.73884085573678,16.828948172360928,21.01005510158544,40.529474215815526,40.529474215815526,68.48083574396424,107.62181661812586,86.64922073726086,85.95043669905715,89.44435689007571,90.84192496648312,21.662305184315187,17.469600955092915,6.289056343833408,7.686624420240832,18.22205833029955,17.00214945742419,16.770816916889203,54.50515497988988,41.92704229222301,74.1238277061256,{}
93,73,93,0,3.099999999999992,22.518326619330537,156.27793707684705,15.545190438340162,25.372181644888123,43.6292578249529,46.46536793219395,66.1625550418373,129.48802672335782,104.14726061440376,92.8880973047385,92.8880973047385,97.110283545863,28.8516059810172,34.48118763584989,6.333279361686664,14.7776518439357,16.888744964497903,16.947284983925304,16.888744964497903,54.88842113461817,42.22186241124473,74.64504729405539,{}
94,73,94,0,3.1333333333333253,40.38283462917093,151.94336551682383,16.768059398168646,25.103858776561907,45.97397460323632,50.14975211041454,58.4854846353511,140.6712372159634,115.58684605109484,95.38704041717972,93.29827310877432,100.26083080345892,38.29406732076552,43.86411347651335,14.621371158837746,21.58392885352237,15.317626928306254,16.94063402410692,16.710138467243155,55.70046155747718,43.16785770704479,78.03036288694071,{}
95,73,95,0,3.1666666666666585,43.482013764975136,148.70689682057227,14.096413873995688,25.286553256459488,44.884659370296845,47.68995058094049,60.31376102883644,143.09735195484714,117.8305796322194,96.08122396454178,98.18519237252453,100.99048358316804,39.27407694900978,43.482013764975136,14.026456053217771,26.65026650111372,16.89008971700953,16.890089717009577,17.533070066522214,53.30053300222761,42.07936815965337,75.79479472137393,{}
96,73,96,0,3.199999999999992,23.847761235330267,141.71153361061062,15.430904328743168,23.8889847081649,40.68147504850469,43.4870940173671,61.73955627387348,124.85004411437636,101.012024141824,89.07840226138092,92.58542597245888,95.3910449413213,32.264618141917595,30.861808657486225,4.208428453293436,18.23652329760569,18.29039792988991,18.451078011394056,18.23652329760557,53.3067604083854,42.08428453293584,77.26921172185652,{}
97,73,97,0,3.233333333333325,14.031978484054209,143.13305879290346,15.49882681417836,23.854363422892103,40.69273760375722,43.49913330056813,60.40273723829971,113.6676871059324,89.81562411212252,82.78867305591996,88.40146444954166,89.80466229794706,28.765555892311227,24.555962347094805,2.10479677260821,14.733577408256906,16.896739604331735,17.070638589751173,16.838374180865003,53.32151823940609,42.09593545216268,77.22689018185403,{}
98,73,98,0,3.266666666666658,16.835473941694318,140.32367249867048,12.62660545627068,25.292151893131848,40.70991040552408,43.49164101604356,60.34342619636439,115.04240526824424,89.80015428181702,81.37145738485572,88.386238193895,91.19215051751064,29.462079397965,25.253210912541363,2.805912323615757,18.2384301035022,18.238430103502083,16.893829312308764,16.835473941694318,53.31233414869854,42.08868485423568,78.57807045710452,{}
99,73,99,0,3.2999999999999914,19.486468032757404,136.06571272887354,12.49518025815894,23.64280581423168,38.87389413649464,41.65060086052995,56.9901721565779,112.4566223234308,88.86546101783361,79.13614163500677,87.4662618071128,88.85461516913051,31.23795064539752,24.29618383530908,2.082530043026509,20.131123749256176,16.660240344211957,18.101913153873515,17.354417025220812,52.757427756671234,41.65060086052995,80.5364626711631,{}
100,73,100,0,3.3333333333333246,23.72512108135579,139.32567385533147,12.538683728466026,25.07736745693194,39.00923826633869,43.21126442589909,58.58016207505695,119.82218861201072,94.74696497282837,82.89463131596949,90.55716026114315,91.95034734208376,32.739896402105614,28.56033515928368,0.6965935404703032,21.59439975458031,18.111432052228626,16.77619400109855,16.71824497128796,52.9411090757452,41.7956124282199,79.46053233431299,{}
101,73,101,0,3.366666666666658,23.60200715430028,137.47502752129748,11.19326265030329,24.990360516317992,38.89867826023422,41.67373365923677,56.9901721565779,116.62994612481108,91.64183911809494,79.83031831601568,87.4662618071128,90.24296853114812,31.932127326406203,27.767067240353413,1.1368683772161605e-13,20.82530043026486,18.101913153873458,18.101913153873458,18.04859370622961,52.75742775667129,43.0389542225476,76.40990380935058,{}
102,73,102,0,3.399999999999991,20.966208736019325,137.00775289317662,12.579725241611529,25.19824688326621,39.13692297390276,41.95570679206357,57.32468037564604,116.0130216726402,90.864322455201,80.37046682140738,89.45582394034909,92.251318438485,33.54593397763085,25.159450483223168,4.193241747203842,22.36395598508728,19.56846148695132,18.22439445597841,18.17071423788343,53.11439546458229,41.93241747203865,76.88880444193626,{}
103,73,103,0,3.433333333333324,13.928829653966886,136.56647454344272,16.714595584760445,30.675065335166988,40.39360599650411,43.269142028205984,57.125185433411296,118.3950520587191,87.7626807504784,80.78721199300833,89.14450978538844,93.32315868157856,34.12563265221911,27.16121782523556,7.66085630968189,18.803920032855444,18.107478550157,18.32051503821786,18.107478550157,54.32243565047117,43.17937192729755,79.40654635922616,{}
104,73,104,0,3.466666666666657,11.145496647525306,132.47004175451232,18.1649371379312,30.681762785284857,39.034108678980665,41.8883885966024,58.53044061010009,118.42909681452778,87.77078609926184,82.19803777549919,90.55716026114328,96.12990858490592,34.82967702351664,25.07736745693194,8.359122485644093,18.11143205222868,18.16493713793126,18.16493713793126,17.41483851175832,52.9411090757452,41.7956124282199,79.42388361270744,{}
105,73,105,0,3.4999999999999907,18.30577431092422,131.07776719903302,16.95620866946304,29.570866194569703,36.63861816242032,40.86022908070191,60.56624034140093,125.32414720555757,95.75328101098783,86.60039385552568,95.75328101098783,101.3858269528106,38.01968510730399,26.75459322365839,7.040682427278512,21.12204728183553,18.359853525672868,18.35985352567281,18.305774310924107,56.32545941822815,46.46850402003821,74.6312337291522,{}
106,73,106,0,3.533333333333324,29.24681878874572,122.6292950041355,16.71246787928328,30.639524445352663,37.6030527283873,41.8043750150198,58.55991934105354,135.1211612201433,104.49005646291998,89.82951485114756,100.27480727569956,104.45292424552042,43.87022818311857,32.72858293026309,0.6963528283034748,28.55046596044224,19.547555398339643,19.547555398339643,18.10517353589023,54.31552060767064,44.566581011422045,73.82653736364271,{}
107,73,107,0,3.566666666666657,36.22616021842407,122.6828475155454,16.719766254657316,29.292746300134933,36.252944813742026,40.43011729789788,59.92869487978543,142.11801316458684,112.8670225940468,94.74534210972467,105.89185294616276,110.0717945098271,48.069327982139725,34.13618943659185,2.089970781832108,31.34956172748241,19.556091863329254,19.55609186332931,19.506393963766868,54.33924032763616,43.19272949119801,75.29053467800122,{}
108,73,108,0,3.5999999999999903,45.0383431140865,116.03996193283108,13.647982761844332,30.056564213460284,35.510991602258265,40.966688608466825,57.38648119293589,146.0397929745188,116.03996193283108,93.48868191863392,103.72466899001722,106.45426554238612,47.76793966645528,40.94394828553311,8.188789657106668,34.119956904610945,19.15585664832491,19.15585664832491,19.10717586658211,51.86233449500861,42.30874656171756,75.07631142197658,{}
109,73,109,0,3.633333333333324,45.35975344604333,115.53480308742223,13.81393576780131,28.89800621055076,34.39092935248455,39.885293403253385,59.16903073821917,147.0755642038373,118.21825778614678,95.53038983333352,107.2139626906478,111.33757664028803,50.1706363872903,37.79979453836938,4.810882941246973,36.42525655515601,20.663836884978497,19.243531764988063,18.556262773381377,52.23244336211047,42.61067747961641,71.48919061674222,{}
110,73,110,0,3.6666666666666567,41.66264847227308,119.50557093731253,15.276304439833552,30.55260887966699,37.49638362504584,41.68578796223937,61.12099702822433,148.6032689185169,118.05233953555,97.21284643530409,108.32288602791029,112.48915087513753,49.30080069218991,38.19076109958371,4.860642321765226,35.41325120143222,20.87756474638827,20.831324236136595,20.136946761598665,52.77268806487933,44.44015837042474,76.3941462009393,{}
111,73,111,0,3.69999999999999,37.23584526182469,118.63513056869792,16.606627868205123,30.34031836148688,37.23584526182469,41.39614011049273,57.98806046090721,142.05454867551992,111.7160484572934,93.0896131545618,106.19111426520396,108.94932502533914,49.64779368243308,34.47763450168952,1.3791053800675854,33.09852912162205,19.356666420597207,19.356666420597207,19.3074753209462,55.16421520270336,45.51047754223026,74.48445892331875,{}
112,73,112,0,3.733333333333323,31.64330663262545,120.96358121224186,16.49396888454362,30.23894295499656,37.1114299902232,41.23492221135905,57.79430629093568,136.08218502651866,105.84522527401674,90.02958016146727,104.46180293544283,105.83630034248824,47.42016054306293,30.9261916585192,2.0617461105680377,32.3006890655646,20.66322689141709,19.291990437197693,19.242963698634185,52.23090146772148,45.35841443249501,76.97185479453685,{}
113,73,113,0,3.766666666666656,26.060976268216308,121.91406563487564,15.067079529672355,28.764424556647214,35.613097070134586,39.72230057822708,61.69889967729058,131.50164609931426,102.7392188598515,89.71760992668521,102.73008770231138,104.09982220500888,41.77690233227338,28.079557305298408,3.4243362567438,28.07955730529852,20.546017540462287,20.59162473873448,20.546017540462287,52.04991110250438,42.461769583622015,73.97834478538788,{}
114,73,114,0,3.7999999999999896,13.98387714423609,127.26096522958294,16.78065257308333,26.569366574048672,36.384962708501625,39.15485600386114,68.53526578369603,125.86266287899724,99.29537503654542,92.29358915195849,102.08230315292371,100.6839154385001,32.86211128895479,24.4717850024133,3.495969286058994,17.479846430295083,19.57742800193057,19.57742800193057,19.57742800193057,53.13873314809729,44.74840686155562,75.51293657887504,{}
115,73,115,0,3.833333333333323,9.68574052216593,135.62860268122893,15.283214398017329,23.522512696688523,37.38489974214723,40.15048872237061,70.6217790958374,119.00428506397336,95.48375412426604,90.63085774312356,101.0084368740155,98.24108243911098,29.05722156649756,19.371481044331745,6.9183860872614105,16.604126609427226,20.755158261783947,19.371481044331688,18.67964243560556,51.19605704573388,42.89399374102027,74.71856974242235,{}
116,73,116,0,3.866666666666656,7.081928855759701,137.56228758135384,15.27768568166698,22.22208826424287,37.5254851412143,38.913447996637856,72.27518559943653,116.74034398991368,94.535741653923,90.97167383174416,101.38827770560796,97.22163615606246,27.08317007204596,17.36100645643978,7.63884284083349,13.19436490689418,19.44432723121247,20.879452438920264,20.13876748947007,54.16634014409192,45.83305704500083,70.83290634227399,{}
117,73,117,0,3.899999999999989,2.7679009812206914,138.45731282691608,16.60740588732415,22.143207849765645,36.00931735303858,37.39228317629533,70.59504185931596,112.1085323182079,89.96742703282465,88.57283139906247,98.260484833335,94.10863336150396,25.60308407629157,15.91543064201892,8.995678188967418,11.763579170188107,19.424670787705608,19.424670787705608,19.37530686854496,52.59011864319336,42.90246520892089,71.96542551173832,{}
118,73,118,0,3.9333333333333225,3.12545786427926,142.59762357998596,14.047186002896757,19.56846148695137,39.23663504117428,40.5346702229707,71.33990226221009,107.66283718033652,88.10243844557685,86.6603294422132,96.44456018568894,93.64906568755303,23.76170323415522,12.579725241611529,8.386483494407798,12.57972524161164,21.012748657293983,19.61831752058714,19.56846148695137,54.51214271365024,43.3301647211066,75.49129244444093,{}
119,73,119,0,3.966666666666656,1.3884788205475616,141.65206215447165,13.884788205474932,19.438703487665062,38.902193338686665,40.26588579587758,69.43782442737951,104.14516765516856,84.70858826279452,84.00296864312395,93.02808097668276,90.25112333558776,22.215661128760075,12.496309384927486,9.71935174383259,11.107830564380151,19.48822892713622,19.48822892713622,19.438703487665062,51.37371636025762,43.04284343697259,72.25428196498203,{}
120,73,120,0,3.999999999999989,2.776706724035421,154.1322365298784,18.04859370622956,24.99036051631788,40.26224749851235,43.038954222547545,65.2673760602869,111.07694583099872,86.08910411509704,84.6895550830775,94.40802861720113,91.63132189316582,27.7670672403533,18.04859370622956,9.718473534123746,11.106826896141342,19.486468032757347,19.486468032757347,18.742770387238465,52.757427756671234,44.427307584565256,77.76018329710506,{}
121,73,121,0,4.033333333333323,22.299110130281747,154.72518610155228,16.782302728543172,25.08649889656681,44.61999142137209,47.38560902684844,62.731730823245904,126.82618886597696,101.73968996941016,90.59013490426936,93.37752367055452,90.59013490426936,29.267582045994686,34.84235957856504,6.968471915712939,13.936943831426106,19.511721363996458,18.118026980853813,18.814874172425164,54.35408094256155,45.99191464370591,76.66585997485072,{}
122,73,122,0,4.066666666666656,33.56458706431522,159.43178855549718,16.78229353215761,25.17344029823641,46.17249211572578,48.96833098066387,57.3565555421836,132.8671842474207,107.69546444279264,90.9040899658537,90.9040899658537,90.9040899658537,33.56458706431522,41.95573383039402,15.383769071144457,18.180817993170763,18.23452805994308,18.234528059943088,18.18081799317065,51.745405057485925,46.15130721343343,81.1264740882729,{}
123,73,123,0,4.099999999999989,34.841302169782125,160.2760492233574,16.723825041495388,27.87304173582561,45.990518864112346,51.5651272112774,55.76350140160978,135.1914360015328,107.32025999025048,89.89055959803773,93.37468981501593,91.98103772822468,36.93178029996898,42.50638864713415,13.239694824517189,21.601607345264824,19.56083917899452,18.11747712828668,18.11747712828668,51.56512721127751,45.990518864112346,79.43816894710324,{}
124,73,124,0,4.133333333333322,31.97153989955281,159.73096957771602,15.27630443983344,23.649644595403785,45.82891331950054,49.99517816672778,56.93895291210674,127.76545531497106,104.16587913556371,88.1859392663115,94.43533653715258,91.65782663900096,36.10762867596998,34.718873726894344,8.332529694454706,22.220079185212285,19.4921045757184,19.4921045757184,19.442569287060792,51.38393311580353,47.21766826857623,76.3941462009393,{}
125,73,125,0,4.166666666666655,3.138341021052273,154.48800455654197,15.438596491228168,21.0526315789474,40.79843327368028,42.198726676134434,67.38303934965784,106.70359471577952,85.66003940865761,84.2105263157896,92.63157894736844,87.01754385964921,22.456140350877263,16.84210526315792,4.21052631578948,9.824561403508824,19.699184347534302,21.09936333806728,20.350877192982463,50.5263157894737,47.71929824561403,75.78947368421052,{}
126,73,126,0,4.199999999999989,0.0,156.65971129399358,15.44720756325728,19.57934245418392,40.58131469654288,41.95573383039402,65.73064966761717,100.7034727000514,81.12647408827291,81.11441873876163,88.1070410438274,85.30999212180109,20.97786691519707,13.985244610131303,6.992622305065652,8.391146766078805,18.234528059943088,19.62922621007405,19.5793424541838,48.94835613545962,46.15130721343337,75.53326908527058,{}
127,73,127,0,4.233333333333322,1.977812260075324,153.89489244105064,16.78229353215761,21.02443271481462,42.04886542962922,43.37680927253744,65.74552590401181,104.89865765805096,83.95807220071032,83.21220543028153,90.9040899658537,86.70851658281435,23.07565360671674,16.083031301650976,7.691884535572285,10.488933457598478,19.629226210074066,19.57934245418386,19.57934245418386,50.34688059647277,46.15130721343337,76.91884535572228,{}
128,73,128,0,4.266666666666655,5.766581294570102,152.45396791530686,16.783216783216858,23.817323588708263,40.559440559440645,43.35664335664342,65.7491427890526,111.8968528054244,88.15627697521356,85.31468531468533,90.909090909091,89.51048951048949,24.4755244755246,21.678321678321595,4.895104895104964,9.090909090909122,19.63030608058489,19.630306080584887,20.279720279720262,51.74825174825179,47.552447552447575,78.33416483882765,{}
129,73,129,0,4.299999999999988,13.95807644357568,147.22788592804002,15.277685681666869,23.61096878075807,40.30147408059538,43.05529601197043,62.51505334420644,115.31054501453296,91.70819172090256,84.72171150742577,90.27723357348646,88.88835305697137,27.08317007204596,25.69428955553076,0.6944402582576004,13.19436490689418,19.493866998715937,20.87945243892032,20.13876748947007,52.77745962757672,47.22193756151603,76.38842840833468,{}
130,73,130,0,4.3333333333333215,15.499875930024524,148.75565923300587,15.499875930024524,25.259270956042545,42.09878492673738,44.90537058851987,61.888236734890434,117.95175023972897,92.7129565254625,84.89921626892044,91.214034007931,89.81074117703974,28.7675030332706,27.36421020237936,0.7016464154456798,14.73457472435814,19.646099632477444,19.646099632477444,19.646099632477444,53.32512757386735,47.71195625030237,77.18110569901853,{}
131,73,131,0,4.366666666666655,18.181818181818244,145.4545454545455,13.986013986013972,23.776223776223787,39.16083916083926,41.95804195804203,61.55435268437871,117.49084219590142,93.71673044895644,84.61538461538464,92.30769230769238,92.30769230769238,30.76923076923083,25.174825174825173,0.0,18.181818181818244,19.580419580419573,20.97902097902096,20.97902097902096,53.146853146853175,46.15384615384613,78.32167832167829,{}
132,73,132,0,4.399999999999988,12.70923424007518,145.97076120775012,16.900379585331265,23.859502250361288,40.70150383885152,42.10500397122576,61.81776836682385,115.12123747576896,91.270683007404,84.91175800863857,92.63100873669669,91.22750860432244,30.17525284604505,23.157752184174228,2.105250198561293,16.140251522303174,21.09923345706684,19.6490018532387,19.6490018532387,53.33300503021928,46.315504368348286,78.5960074129548,"{'neutral': (['m1', 'm3', 'm12', 'e1', 'e2'], 3.584894208922931, 6)}"
133,73,133,0,4.433333333333321,16.66656619818218,144.44357371757835,12.49992464863658,23.61096878075796,38.88865446242494,41.68955707763128,61.12652342227656,113.89667082303362,90.28791663767076,81.94395047439536,91.66611409000166,91.66611409000166,30.55537136333396,22.22208826424276,2.777761033030401,19.44432723121247,19.493866998715937,20.87945243892032,20.13876748947007,51.38857911106152,44.44417652848563,77.77730892484988,"{'neutral': (['m1', 'm3', 'm12', 'e1', 'e2'], 3.584894208922931, 6)}"
134,73,134,0,4.466666666666654,15.27630443983344,147.21457518717705,12.498794541681946,22.2200791852124,38.885138574121584,41.66264847227308,63.8978210369418,113.8863735273758,91.66834690608158,84.01967441908414,93.04658158807672,91.65782663900086,28.469476456053258,21.525701710674525,2.08313242361362,17.35943686344706,19.4921045757184,19.442569287060792,19.442569287060792,51.38393311580359,45.82891331950049,76.3941462009393,"{'neutral': (['m1', 'm3', 'm12', 'e1', 'e2'], 3.584894208922931, 6)}"
135,73,135,0,4.499999999999988,15.27768568166698,143.05469320106317,13.88880516515178,22.22208826424287,38.88865446242494,40.27753497894014,62.51505334420633,113.89667082303372,91.67663530829628,84.02727124916817,93.05499460651686,93.05499460651686,30.55537136333396,20.83320774772767,4.166641549545602,18.055446714697386,20.87945243892032,20.83320774772767,20.13876748947007,51.38857911106152,45.83305704500083,76.38842840833468,"{'neutral': (['m1', 'm3', 'm12', 'e1', 'e2'], 3.584894208922931, 6)}"
136,73,136,0,4.533333333333321,16.841288072711865,144.0618526090979,12.587335644180826,22.377485589654725,39.18556669535458,41.95778548060264,62.95221622341724,114.7187205960312,92.34949993380916,83.91557096120539,93.7057209066794,92.30712805732594,30.069746261098658,21.678189164978,2.0978892740301944,18.88100346627129,21.02546081700304,19.58029989094797,20.279596315624644,50.349342576723245,46.15356402866297,78.32119956379177,"{'neutral': (['m1', 'm3', 'm12', 'e1', 'e2'], 3.584894208922931, 6)}"
137,73,137,0,4.566666666666654,16.782806430601568,145.45098906521366,13.98567202550123,22.377075240802128,39.159881671403696,40.55844887395381,62.951061832339846,116.08950260956809,93.7144390583412,85.31259935555795,93.70400257085872,93.70400257085872,30.7684784561028,22.377075240802128,1.3985672025501117,18.18137363315168,19.629826116133422,19.579940835701848,20.279224436976847,50.3484192918047,46.15271768415431,76.93390933696249,"{'neutral': (['m1', 'm3', 'm12', 'e1', 'e2'], 3.584894208922931, 6)}"
138,73,138,0,4.599999999999987,18.24460328174041,144.58064375185808,14.034310216723384,22.454896346757323,39.29606860682554,42.10293065017015,60.36385069141704,115.08990096521482,92.637078873443,83.50414578950415,94.02987845204666,91.22301640870194,32.278913498463794,22.454896346757323,1.403431021672418,19.648034303412828,19.69809307066745,19.69809307066745,19.648034303412828,50.52351678020421,46.31322371518718,79.99556823532328,"{'neutral': (['m1', 'm3', 'm12', 'e1', 'e2'], 3.584894208922931, 6)}"
139,73,139,0,4.63333333333332,12.587335644180826,145.48054986286158,16.7831141922411,23.81717800026133,40.58329913717032,41.98108889005301,62.99880723723795,116.15900906987332,92.34949993380916,86.01346023523558,93.7057209066794,90.90853520797248,29.37044983642193,23.776078439008188,2.797185698706812,15.384521342887638,21.02546081700304,19.58029989094792,19.58029989094797,50.349342576723245,46.15356402866297,78.33368600461463,"{'neutral': (['m1', 'm3', 'm12', 'e1', 'e2'], 3.584894208922931, 6)}"
140,73,140,0,4.666666666666654,4.27035447118476,150.91271316726213,18.504869375133808,24.198675336713563,38.45954141978907,41.30462819730163,65.540628532811,112.48869871544596,88.2998982553937,86.1188151688923,93.94779836606438,91.1008953852746,27.045578317503328,19.928320865528804,5.693805961579642,11.387611923159284,19.928320865528804,18.55953675974361,19.216595120331363,51.24425365421689,48.39735067342707,78.3027713705314,"{'neutral': (['m1', 'm3', 'm12', 'e1', 'e2'], 3.584894208922931, 6)}"
141,73,141,0,4.699999999999987,2.826696303162408,149.87489268641448,14.133481515811924,19.786874122136624,38.18656423707058,39.59897856130506,66.48747839736467,103.21312966906532,83.43543729470838,81.97419279170902,90.45428170119612,86.21423724645251,21.90689634950843,14.840155591602525,6.360066682115303,10.600111136858914,19.83728662198684,18.42780533835363,19.08020004634608,52.29388160850402,48.05383715376041,74.90745203380311,"{'neutral': (['m1', 'm3', 'm12', 'e1', 'e2'], 3.584894208922931, 6)}"
142,73,142,0,4.73333333333332,1.4134187378145953,149.84905211337943,14.134187378146407,18.37444359159042,35.36372552180937,38.16230592099532,63.666630821293296,97.56685296683712,79.20191247181724,78.44473994871282,86.21854300669338,83.39170553106408,21.20128106721961,12.720768640331812,7.067093689073204,9.893931164702508,17.019815410832255,17.019815410832255,16.96102485377571,49.46965582351254,46.64281834788329,77.73803057980535,"{'neutral': (['m1', 'm3', 'm12', 'e1', 'e2'], 3.584894208922931, 6)}"
143,73,143,0,4.766666666666653,2.836594089691175,148.9482024406783,14.182970448455537,18.49233101209793,35.48578072472765,36.8757231659846,61.05270459402201,96.45462714046764,78.05789486636232,76.58804042166025,82.2612286010426,79.42463451135143,19.856158627837885,15.601267493301066,5.67318817938235,8.509782269073412,11.43467633919504,11.69557704879927,12.05552488118724,52.476990659285775,48.22209952474907,76.58804042166037,"{'neutral': (['m1', 'm3', 'm12', 'e1', 'e2'], 3.584894208922931, 6)}"
144,73,144,0,4.7999999999999865,1.9918377401532392,146.48473640004227,14.08441973085644,19.768425125316192,35.23920690807223,36.61949130022697,61.98744977195944,97.19270170829832,77.51550767171133,76.76008753316796,81.6896344389678,80.2811924658821,19.01396663665628,16.19708269048499,6.337988878885426,7.746430851971127,8.567218059984713,8.907769174264464,8.45065183851392,53.52079497725475,50.70391103108341,74.66071057962016,"{'neutral': (['m1', 'm3', 'm12', 'e1', 'e2'], 3.584894208922931, 6)}"
145,73,145,0,4.83333333333332,1.408450704225288,149.30241813547093,16.901408450704253,23.94366197183104,39.4617626087941,42.27698878817926,61.98783404131097,104.23486823706138,80.29404402106604,79.57746478873241,84.50704225352115,83.09859154929575,21.830985915492988,20.422535211267583,6.338028169014137,7.746478873239425,8.907824394840514,8.567271169434077,8.450704225352126,53.52112676056339,52.112676056338046,77.46478873239437,"{'neutral': (['m1', 'm3', 'm12', 'e1', 'e2'], 3.584894208922931, 6)}"
146,73,146,0,4.866666666666653,9.958262761311468,149.387218513288,16.899732305666134,25.349598458499145,42.272796098250936,43.68035057753956,60.57374759136992,112.70008431391416,87.36070115507901,82.38619499012214,90.13190563021908,84.49866152833033,26.757909483971275,25.349598458499145,2.8166220509443747,12.674799229249516,11.3541664771273,9.958262761311522,10.562332691041265,56.33244101888687,54.92412999341468,80.28608110697687,"{'neutral': (['m1', 'm3', 'm12', 'e1', 'e2'], 3.584894208922931, 6)}"
147,73,147,0,4.899999999999986,29.36614200289592,146.8906286907192,14.05362260006079,26.569366574048672,40.55324371828476,43.3725679232457,60.19567787078826,130.05757543761246,103.49013900166214,88.79761986589938,96.48875229522923,92.29358915195836,34.26049900337841,35.65888671780226,7.691132429329968,21.675009573565944,14.053622600060846,15.445697147808136,14.6830710014479,57.33389629136809,55.93550857694447,79.7203653373177,"{'neutral': (['m1', 'm3', 'm12', 'e1', 'e2'], 3.584894208922931, 6)}"
148,73,148,0,4.933333333333319,39.15700962443634,146.8987080635622,13.984646294441632,26.570827959439043,41.977240156369945,47.56835861174941,58.80207028173149,138.47624724371187,111.91212651022268,92.29866554331444,100.6894533199794,96.49405943164686,39.85624193915851,39.85624193915851,11.886949350275358,27.270060274161096,16.83974410054755,16.83974410054756,16.7815755533299,57.33704980721052,57.33704980721052,79.72475016813007,"{'neutral': (['m1', 'm3', 'm12', 'e1', 'e2'], 3.584894208922931, 6)}"
149,73,149,0,4.966666666666653,43.51827878749485,150.13671780422038,14.030856212384606,28.061712424769325,42.11594690534728,47.72554027382736,60.34899445701917,145.94788453037833,117.89259425135413,96.11136505483466,101.02216472916928,99.61907910793082,39.98794020529613,45.60028269025008,16.135484644242297,27.36016961414998,16.837027454861584,16.837027454861584,17.538570265480814,57.52651047077694,57.52651047077694,82.7939413553429,"{'neutral': (['m1', 'm3', 'm12', 'e1', 'e2'], 3.584894208922931, 6)}"
150,73,150,0,4.999999999999986,42.08868485423568,151.5777107100064,14.02956161807856,28.05912323615712,44.91651301863826,49.10346566327496,57.5895988564216,141.72635092987124,113.67408472111028,92.59510667931852,101.01284365016568,96.80397516474204,41.38720677333174,42.79016293513962,13.32808353717462,28.76060131706106,18.29231036890332,18.29231036890331,18.238430103502083,58.92415879592994,58.92415879592994,81.3835509358454,"{'neutral': (['m1', 'm3', 'm12', 'e1', 'e2'], 3.584894208922931, 6)}"
151,73,151,0,5.033333333333319,44.57739027207367,150.50672445282464,13.999913367140726,26.467825474043707,43.2068094267197,47.36347716407829,57.131767095030845,142.11774344472002,115.65616845896128,93.3339108821542,98.90608466616344,94.72695432815648,39.7017382110655,45.273911995074855,17.413043075028895,27.164347197044776,18.109564798029908,20.895651690034583,20.1991299670334,55.72173784009209,55.72173784009209,85.02131149380219,"{'neutral': (['m1', 'm3', 'm12', 'e1', 'e2'], 3.584894208922931, 6)}"
152,73,152,0,5.066666666666652,44.61132702983517,150.5155672576561,13.93423753018442,25.081627554332044,43.2859412977741,47.39689469876402,57.14736431989352,140.763388900071,115.68774310399562,93.35939145223574,100.32651021732796,97.53966271129104,41.80271259055337,41.802712590553256,15.327661283202817,29.261898813387347,18.16802296428864,20.901356295276685,20.204644418767487,55.73695012073773,57.13037387375618,83.65185974463164,"{'neutral': (['m1', 'm3', 'm12', 'e1', 'e2'], 3.584894208922931, 6)}"
153,73,153,0,5.099999999999985,36.34564484353723,144.09320453950932,12.581184753532057,26.56027892412328,40.539373094714506,43.4252859801981,58.86178097042651,134.2648150516033,107.72069013908464,89.46620269178379,99.25156861119764,93.65993094296118,37.74355426059629,37.74355426059629,9.785365919413834,25.162369507064227,19.620593656808857,18.17282242176856,18.871777130298145,54.51846726530579,55.9163766823649,78.29540769454609,"{'neutral': (['m1', 'm3', 'm12', 'e1', 'e2'], 3.584894208922931, 6)}"
154,73,154,0,5.133333333333319,14.077440075717732,140.88697526597764,15.485184083289596,25.33939213629208,39.51725742499284,40.92154684603017,62.004691679398455,116.87666924822248,91.54666544513049,84.46464045430685,94.31884850730933,88.68787247702221,29.56262415900744,25.339392136291963,1.1368683772161605e-13,16.89292809086146,19.908506678574675,21.16303289070501,20.412288109790893,53.49427228772765,57.71750431044296,83.16419744145522,"{'neutral': (['m1', 'm3', 'm12', 'e1', 'e2'], 3.584894208922931, 6)}"
155,73,155,0,5.166666666666652,2.816464948866724,135.30761936164055,15.490557218767435,23.93995206536784,36.72221013764272,39.53096934321829,64.83989241465063,107.0627203924976,83.13343897999223,81.67748351713703,92.94334331260428,87.3104134148706,25.3481845398012,16.898789693200797,8.449394846600399,12.674092269900598,19.91541464317936,19.715254642067578,19.715254642067578,52.104601554035696,56.329298977335895,83.27644385457798,"{'neutral': (['m1', 'm3', 'm12', 'e1', 'e2'], 3.584894208922931, 6)}"
156,73,156,0,5.199999999999985,2.8254267020040515,135.7381567566785,16.952560212023855,25.46805212285124,36.7577046507425,39.65675354254609,62.223568553022,107.44982961826597,81.98607413915127,80.52466100711376,91.82636781512974,86.17551441112175,26.84155366903792,18.36527356302588,8.476280106012041,12.714420159018005,21.237738503297354,19.777986914027963,19.77798691402802,52.270393987073874,56.50853404007984,82.1320002246116,"{'neutral': (['m1', 'm3', 'm12', 'e1', 'e2'], 3.584894208922931, 6)}"
157,73,157,0,5.233333333333318,5.611237937724809,131.98342558044453,16.892063082805063,26.690270713480224,35.182282882223014,39.37873875954852,63.1887431292862,112.3649521367694,85.67480199595279,82.76575958144042,93.98823545689004,88.37699751916523,28.05618968862393,21.042142266467863,7.014047422155954,14.028094844311909,19.689369379774263,18.236523297605515,18.23652329760557,50.501141439523,57.51518886167895,82.95575296678693,"{'neutral': (['m1', 'm3', 'm12', 'e1', 'e2'], 3.584894208922931, 6)}"
158,73,158,0,5.266666666666652,18.29039792988979,130.64969565949292,16.833713813174427,28.0912380341924,36.58079585977981,40.77810576670464,60.38601953372596,123.57469696088468,95.48383279405812,86.2727832925184,98.1966639101836,91.18261648802763,34.36883236856431,28.757594430839504,0.7014047422155727,20.34073752425229,21.08885074184664,19.63933278203672,20.34073752425229,51.9039509239542,57.51518886167895,84.35540296738658,"{'neutral': (['m1', 'm3', 'm12', 'e1', 'e2'], 3.584894208922931, 6)}"
159,73,159,0,5.299999999999985,25.02030716801692,130.64485912224987,15.266646225285854,26.40615948093317,37.57534215958216,40.27235276114461,61.20836227864073,127.87310871650732,101.46699796681678,88.82412349257265,99.92713892914423,92.98775428128704,35.39086170407188,31.22723091535761,3.469692323928598,22.89996933792884,19.479780984713987,19.430277014000296,19.430277014000296,49.96356946457212,55.51507718285791,79.3035355037449,"{'neutral': (['m1', 'm3', 'm12', 'e1', 'e2'], 3.584894208922931, 6)}"
160,73,160,0,5.333333333333318,31.89526128295074,134.62912017836254,12.557559782549584,26.384727517142192,38.853769245922365,43.01162633521309,61.1586838918613,131.92363758571142,105.53891006856924,89.44540664131819,99.8460353205412,94.29903335828897,36.05551275463995,34.66876226407669,6.93375245281527,24.96150883013536,20.98534287031344,19.41450686788301,19.41450686788301,48.53626716970757,56.85677011308599,79.15418255142693,"{'neutral': (['m1', 'm3', 'm12', 'e1', 'e2'], 3.584894208922931, 6)}"
161,73,161,0,5.366666666666651,28.964607149168884,137.94269241541332,15.1547645349101,26.21264181402301,38.6003583211677,42.73109715577059,59.64050348127249,129.86293794462156,103.65806206591594,88.8620284092458,99.19482241032084,92.30629307627078,36.5092054704653,33.753793736845296,6.199676400644989,24.10985266917521,19.483703218037,19.28788213534017,19.976735068745143,49.59741120516043,56.4859405392105,78.63792544206893,"{'neutral': (['m1', 'm3', 'm12', 'e1', 'e2'], 3.584894208922931, 6)}"
162,73,162,0,5.399999999999984,25.152694536969648,137.05647174132318,15.434477317547948,26.586813970101552,40.62004180140944,43.34106187690845,61.73790927019168,128.83132528016608,102.24714610682528,89.43180279811406,97.81603431043732,92.22654663555512,33.5369260492929,33.536926049292674,4.19211575616157,20.96057878080808,19.76182319133895,18.16583494336692,18.86452090272718,47.51064523649808,54.49750483010075,82.55145361838383,{}
163,73,163,0,5.433333333333318,24.759378423606883,138.883595537208,12.436694989328553,24.759378423606982,39.92329810775615,41.293554915646034,59.19989166875804,121.14007986946775,96.38316303847014,83.77759562693575,93.3914180759283,86.52440204093364,30.901572157476267,30.90157215747638,4.806911224496389,19.9143465014846,20.783361819009247,19.22764489798521,19.914346501484715,48.06911224496315,53.562725072958926,75.64946228183508,{}
164,73,164,0,5.466666666666651,17.915702985527673,143.43159478512013,15.221954411681033,26.22073050343022,40.06072974033596,41.3668924398899,59.40368088824154,118.71940665593424,92.49918351351596,83.37692543264825,90.95664592652544,85.44412193097844,28.94075097662176,30.31888197550836,2.756261997773436,16.53757198664107,20.85490629255386,19.342990329011712,19.293833984414505,48.234584961036205,52.36897795769647,81.35643182670113,{}
165,73,165,0,5.499999999999984,12.490892366143044,145.89220749095958,16.65452315485743,26.40615948093305,38.88532964672911,43.046564108119874,61.31840693816802,116.7880087746993,90.38265463080356,83.9665542390726,92.98775428128693,86.04836963342973,28.451477056214685,27.063600126643223,0.6939384647856741,14.57270776050018,20.8643652189538,19.47978098471394,19.430277014000296,49.96356946457212,52.73932332371498,81.9317720127778,{}
166,73,166,0,5.533333333333317,11.345169513371175,147.92291275800338,15.479145984066465,26.73670669975116,39.50184855932646,42.23929942413324,63.5734548252322,117.008927475261,90.33491041454543,84.431705367635,94.28207099385908,87.24609554655615,27.44030424448136,26.03310915502084,0.7035975447303144,14.775548439336148,21.15478084205193,19.70073125244812,18.997133707717865,47.84463304165985,50.65902322058105,77.5107785542063,{}
167,73,167,0,5.56666666666665,12.538683728466026,146.45040518764242,15.32505789034724,23.725121081355788,40.49839323865178,41.88838859660251,61.553017093883774,113.06294714496352,89.33795182989076,82.8946313159696,90.55716026114328,83.59122485643991,25.773960997402355,25.77396099740224,0.6965935404703032,13.235277268936445,19.554312510863006,19.554312510863006,19.504619133169285,48.76154783292327,51.5479219948046,79.46053233431299,{}
168,73,168,0,5.599999999999984,15.268576402692815,145.98325993583694,15.331539871477146,23.6376806199201,40.27744443512949,43.11908318275626,58.44673149893274,112.64624637299605,89.00869105583921,81.20106541432074,90.2234060159119,81.89509161444312,27.761048004896,26.372995604651123,1.38805240024476,15.268576402692815,20.86700312159195,20.82078600367197,20.12675980354959,48.58183400856791,51.35793880905754,76.45636559053868,{}
169,73,169,0,5.633333333333317,21.09300198831125,148.89244212781475,14.030856212384606,22.44936993981537,39.3114445106384,43.51827878749485,61.99034889841317,119.4684357427282,97.06675723891271,86.28976570616544,95.40982224421543,88.39439413802313,30.166340856626903,27.36016961414998,3.5077140530961515,18.94165588671921,21.093001988311308,19.643198697338505,18.941655886719275,49.10799674334618,50.51108236458464,78.6854619631521,{}
170,73,170,0,5.66666666666665,23.644942296009187,143.18172407450942,12.496309384927486,23.604139949307523,38.90219333868666,41.67749950552684,59.84971881665357,119.53826960863948,95.96588664476356,84.00296864312395,94.4165597972302,87.47416569449263,31.24077346231877,28.46381582122376,3.47119705136879,20.132942897938733,21.011497248886293,20.87341362438424,20.82718230821252,48.59675871916261,51.37371636025762,80.5796359475957,{}
171,73,171,0,5.699999999999983,29.158055231497546,143.12112090125947,13.884788205475049,25.03115791189884,40.28981797379786,43.065232433772415,59.84971881665357,127.86073177377084,102.83183257908412,88.16840510476652,97.19351743832522,91.6396021561352,34.71197051368756,33.32349169314,6.942394102737467,22.215661128760075,21.011497248886293,19.43870348766501,19.43870348766501,48.59675871916261,49.98523753971011,77.80438667737322,{}
172,73,172,0,5.7333333333333165,36.12997078750279,141.74480002645055,13.885875787890429,24.99457641820288,40.29297383738753,43.135708209421615,59.7738164644961,134.75739875659258,109.77748698979734,91.64678020007692,101.36689325160025,95.81254293644406,38.8804522060932,36.10327704851522,9.7201130515233,26.38316399699181,20.875048619262923,19.489755421799007,19.4402261030466,48.60056525761655,49.9891528364056,79.19819937527213,{}
173,73,173,0,5.76666666666665,45.847463395940615,143.1418193460899,13.88679624957672,23.6075536242804,41.68352698364289,44.5244558820679,58.39063440455087,141.70657377957053,118.11126357375424,95.12455430960053,104.1509718718254,98.59625337199464,43.049068373687874,40.27170912377244,15.275475874534322,30.55095174906876,22.26222794103395,20.83019437436502,20.83019437436502,49.992466498476176,49.992466498476176,80.65108866534845,{}
174,73,174,0,5.799999999999983,51.74319128943387,148.29660761872742,16.781575553329844,25.172363329994823,44.77271381993212,50.36414603454416,58.80207028173149,152.45830235149177,127.29101305510888,101.38868563470136,107.68177646720017,103.48638257886762,46.84856508637927,46.84856508637927,18.87927249749612,31.46545416249353,21.02353324910549,20.97696944166239,20.97696944166239,51.74319128943387,50.3447266599897,79.72475016813007,{}
175,73,175,0,5.833333333333316,55.93174897634299,153.97112470885523,15.381230968494265,25.20809860757313,46.22836030311258,50.33857407870869,58.79488413651032,155.2672806445471,130.0713837267853,102.0754418818259,110.46520422827734,103.47373560623453,48.241133492095855,48.24113349209574,20.275259003924248,34.25819624801011,22.416353680028863,20.97440586612862,20.97440586612862,50.33857407870869,50.33857407870869,82.51117883600037,{}
176,73,176,0,5.866666666666649,51.5601202805982,153.38815727032429,18.11571793642645,29.29701223408481,46.00716226874708,50.18595418371461,58.59402446816964,157.52287862586635,128.23383258373372,102.42348217902634,114.26837467592044,108.69430761855848,52.95363704493877,45.98605322323624,15.328684407745412,36.2314358728529,23.73073538734989,20.90275146510737,20.90275146510737,50.16660351625774,48.77308675191722,83.71545437818082,{}
177,73,177,0,5.899999999999983,62.28979204950036,155.1484794597357,16.60651134612226,26.293642964693504,44.370438202404905,49.896356804181714,58.18865125064415,163.35012797510203,137.0666076235576,105.86650983152902,116.24557942285536,109.32619969530448,54.66309984765224,50.51147201112167,22.83395310091805,39.4404644470402,22.185219101202453,20.75813918265277,20.75813918265277,51.20340998387678,48.43565809285639,81.66040770520216,{}
178,73,178,0,5.933333333333316,64.0924373095196,157.5430763724873,16.719766254657316,26.50960403364272,47.45455991642282,51.57143774700452,58.668275589987815,165.89799040718069,139.3940704779743,107.28516680071766,115.6450499280462,110.0717945098271,54.33924032763616,52.945926473081386,25.079649381985973,39.01278792753362,22.336520293112567,22.336520293112567,20.899707818321588,51.55261261852661,48.76598490941706,85.00356496600187,{}
179,73,179,0,5.966666666666649,69.67118765092209,156.21889897377295,15.327661283202929,25.120303949787395,47.45830292322055,51.63194412636958,57.19830537679475,167.2630955909096,142.15654221665017,107.29362898242016,115.65417150053088,108.68705273543856,55.04023824422859,55.04023824422848,28.565186936878035,41.10600071404417,22.338282099510973,22.29478004829513,22.29478004829513,51.55667886168237,47.37640760262707,83.6170362394476,{}
180,73,180,0,5.999999999999982,70.08281927755024,154.00549175473333,15.115902197118658,24.73511268619427,45.36852261567528,50.91862373789447,57.86230842865692,167.6997761416954,142.9734314507095,107.87257477034689,114.05635294189553,108.55966123385237,53.59274415342077,56.3410900074424,30.23180439423743,38.47684195630211,20.658348886889367,20.612593905161816,20.612593905161816,50.84439829939919,46.72187951836685,79.74940096234839,{}
181,73,181,0,6.033333333333316,66.66666666666663,152.80302821638958,13.888888888888914,27.777777777777715,47.24264264359714,51.407654231449214,59.786786805641405,168.07851082892523,140.30527783249758,106.94444444444446,113.88888888888891,111.1111111111112,52.77777777777783,55.55555555555543,26.3888888888888,38.888888888888914,20.879578303295688,20.879578303295688,20.83333333333337,51.38888888888886,45.833333333333314,83.33333333333337,{}
182,73,182,0,6.066666666666649,63.24480633949292,153.9755248310414,15.12018563703191,26.116684282146025,44.0074668758923,49.50333136520959,57.79703617173121,162.20417932751718,136.0886127902097,104.4667371285841,111.33954878178054,108.590424120502,52.23336856429216,52.23336856429205,24.74212195150676,38.48774525789952,23.367559620867496,20.66420290704708,21.3057161249086,52.23336856429211,46.73511924173505,82.47373983835598,{}
183,73,183,0,6.099999999999982,52.7765052114936,154.21924410385722,12.49969860272222,24.99939720544444,44.46506837983106,48.62977575452988,59.78534523965786,150.02210057245784,125.02784567119944,98.608733421475,108.33072122359226,104.16415502268478,46.52665591013261,43.74894510952765,17.360692503780797,34.026957307410385,22.265045834176384,20.83283100453696,21.527258704688222,52.77650521149366,45.83222820998134,80.55361321754287,{}
184,73,184,0,6.133333333333315,35.765044718971545,145.7295398782689,12.37106097575338,22.035910496478216,41.236869919177934,45.36055691109573,56.507720758963856,126.46720464562102,104.502903561078,86.59742683027366,96.21936314474864,93.4702384834701,38.48774525789952,31.614933604703083,6.872811653196322,26.11668428214614,20.66420290704708,20.66420290704708,20.618434959588967,52.23336856429211,43.98599458045652,79.73646397184855,{}
185,73,185,0,6.166666666666648,23.609830230587704,140.29766640341805,12.499321886781786,22.22101668761195,38.98585396058988,41.687546755532566,57.09358253418948,115.34679661022382,93.14373919418044,81.24559226408121,93.05050737937506,90.27288029342355,34.720338574393736,23.609830230587704,0.0,24.99864377356345,20.8322031446362,20.878445605852537,21.526609916124016,51.38610109010267,45.83084691819965,81.95176779671202,{}
186,73,186,0,6.1999999999999815,19.377162629757777,138.41522474049307,12.45674740484435,22.188539158313297,40.138408304498284,40.138408304498284,56.89911360856595,110.76124026985492,88.67857981808358,78.89273356401384,89.96539792387534,88.58131487889273,32.525951557093435,21.453287197231816,2.0761245674740394,21.453287197231816,20.80733062750572,20.80733062750578,21.453287197231816,49.82698961937717,45.67474048442909,78.89273356401384,{}
187,73,187,0,6.233333333333315,22.1873437660482,141.2299108015584,9.6880593492333,23.52814413385238,37.39384992176855,40.160101001350185,56.81182011118591,112.18154976530552,88.67380232067147,77.50447479386685,91.34455957848604,87.19253414310026,32.52419924385481,22.83613989462151,2.0760127176928336,22.83613989462151,20.806209646898854,20.80620964689886,20.76012717692868,48.44029674616678,47.05628826770487,80.27249175079078,{}
188,73,188,0,6.266666666666648,20.879578303295737,138.91666388944432,12.5,25.0,38.913682572560745,43.05555555555554,54.32668671002204,112.6370906830022,87.67618945603682,77.08333333333337,90.27777777777771,87.5,34.72222222222217,23.6111111111112,2.7777777777777146,25.0,20.879578303295688,20.87957830329568,20.83333333333337,50.0,47.22222222222223,77.79017758300253,{}
189,73,189,0,6.299999999999981,19.58041958041963,137.0700725986195,13.986013986013972,26.57342657342656,37.78812891218544,41.95804195804192,57.49595745760695,117.55741868074328,91.0058656503354,81.11888111888118,93.70629370629376,92.30769230769238,35.66433566433568,24.47552447552448,4.895104895104964,23.07692307692309,19.630306080584887,21.025589340381725,20.97902097902096,50.34965034965035,47.55244755244752,76.92307692307702,{}
190,73,190,0,6.333333333333314,15.27768568166698,140.27693216803277,13.88880516515178,26.4252540247824,37.52548514121418,40.27753497894014,61.1738410839274,116.74034398991368,90.31995824865328,82.63839073265308,93.05499460651686,93.05499460651686,31.94425187984905,23.61096878075807,5.555522066060689,19.44432723121247,22.265448477696417,20.879452438920264,20.83320774772756,48.61081807803117,47.22193756151597,76.38842840833479,{}
191,73,191,0,6.366666666666648,11.14982578397212,132.4335195810371,18.118466898954694,26.480836236933783,36.263726358906425,39.02439024390242,59.99510313597455,115.7130214477369,89.24214965063199,83.6236933797909,94.773519163763,91.98606271776998,33.44947735191636,22.29965156794424,6.968641114982574,16.72473867595818,23.73433639850368,22.29965156794424,22.29965156794424,50.174216027874536,48.78048780487802,73.88074302828467,{}
192,73,192,0,6.399999999999981,23.609830230587704,133.35503060233316,18.054576058684688,26.38745731653921,38.91157154195897,41.687546755532566,62.63533681755761,130.6149418731139,104.24431123087308,92.35610060788711,101.38338863722949,98.60576155127796,37.49796566034513,30.55389794546648,1.388813542975754,20.8322031446362,23.65064241356513,20.8322031446362,20.8322031446362,51.38610109010261,47.21966046117535,80.56315713351445,"{'neutral': (['m1', 'm3', 'm12', 'e1', 'e2'], 3.737528790028345, 133)}"
193,73,193,0,6.433333333333314,35.858658078219605,140.68303451886487,15.170970725400707,26.204403980237544,41.37537470563802,44.13373301934735,58.073105781445406,135.2228721971546,109.03368592727928,91.0258243524038,99.30089929353142,100.68007845038608,42.06496428406547,35.16906849979239,7.585485362700297,26.89399355866476,20.73360902386968,20.68768735281901,21.377276931246342,52.40880796047492,49.65044964676571,78.6132119407124,"{'neutral': (['m1', 'm3', 'm12', 'e1', 'e2'], 3.737528790028345, 133)}"
194,73,194,0,6.466666666666647,15.224093263081045,146.76364203293076,13.84008478461908,26.296161090776195,40.16010100135018,42.92657974557467,59.76929988436829,115.0060247538274,88.74937506419242,80.96449599002165,94.11257653540986,89.96055110002408,32.52419924385481,22.83613989462151,4.84402967461665,20.06812293769758,22.18734376604813,20.806209646898854,21.4521314161596,49.82430522462869,47.05628826770487,74.74927163177992,"{'neutral': (['m1', 'm3', 'm12', 'e1', 'e2'], 3.737528790028345, 133)}"
195,73,195,0,6.4999999999999805,8.332355965264796,146.57830537275387,13.766629991671127,23.287125003474102,39.74870635142845,42.464757359276405,57.79322824793347,102.88332772924046,79.638909247993,75.3406985406516,87.66917648366723,86.29934560110996,29.451363974981973,15.753055149408851,8.903900736622518,18.49271691452361,20.59307364573204,19.226492644814822,19.86254779708088,50.68374265462012,47.94408088950547,76.71052942320875,"{'neutral': (['m1', 'm3', 'm12', 'e1', 'e2'], 3.737528790028345, 133)}"
196,73,196,0,6.533333333333314,15.172052987572329,147.60847588001786,13.79277544324748,23.48825020815234,41.401307906815504,42.757603874067286,55.32605290226414,107.72501993547712,84.23761873509285,76.54990371002361,89.65304038110878,86.89448529245931,33.10266106379402,19.30988562054653,5.517110177298946,20.689163164871275,22.111501122257128,20.735088111868365,20.689163164871275,49.65399159569103,45.51615896271676,77.23954248218593,"{'neutral': (['m1', 'm3', 'm12', 'e1', 'e2'], 3.737528790028345, 133)}"
197,73,197,0,6.566666666666647,22.14532871972324,145.38802546722437,11.07266435986162,23.529411764705856,40.1622647157008,44.31227845974289,54.26241047449871,110.86496550588674,87.37281163784994,76.12456747404849,91.3494809688582,87.19723183391011,35.2941176470589,21.453287197231816,3.46020761245677,25.60553633218001,20.807330627505724,20.80733062750578,20.761245674740508,47.05882352941177,47.05882352941177,76.13714900747435,"{'neutral': (['m1', 'm3', 'm12', 'e1', 'e2'], 3.737528790028345, 133)}"
198,73,198,0,6.59999999999998,17.624587285019174,139.7001794892886,12.20163735116705,23.04753721887129,37.98485141990557,39.31638702042744,51.67832284690376,104.47098759324348,81.44586584815985,72.53195536527119,88.12293642509599,84.0557239747069,34.57130582830689,18.30245602675064,6.100818675583582,25.081143444065788,21.734125238553364,20.33606225194524,19.658193510213778,47.45081192120551,44.73933695427951,75.92129907392882,"{'neutral': (['m1', 'm3', 'm12', 'e1', 'e2'], 3.737528790028345, 133)}"
199,73,199,0,6.633333333333313,21.992997290228345,142.95448238648373,10.996498645114116,24.74212195150676,39.86230758853867,42.6114322498172,51.15514555863602,108.72953120603208,84.02837926698416,72.85180352388102,83.84830216899525,83.84830216899525,32.98949593534246,24.74212195150676,1.3745623306392645,23.36755962086761,20.66420290704708,20.66420290704708,20.618434959588967,49.48424390301358,46.73511924173505,75.60092818515966,"{'neutral': (['m1', 'm3', 'm12', 'e1', 'e2'], 3.737528790028345, 133)}"
200,73,200,0,6.666666666666647,20.47674238574882,137.88348989921704,10.920929272399462,23.2069747038488,39.58836861244788,42.31860093054775,52.16101519756752,106.6189803879463,83.45092528673364,73.03371450917109,86.00231802014537,84.63720186109549,33.44534589672321,21.15930046527388,4.77790655667468,23.88953278337374,19.160318346957293,20.52219580990364,20.47674238574893,50.509297884847285,46.41394940769749,76.4465049067959,"{'neutral': (['m1', 'm3', 'm12', 'e1', 'e2'], 3.737528790028345, 133)}"
201,73,201,0,6.69999999999998,26.02495555125222,139.77333567549155,9.588141518882368,21.915752043159728,39.745909674265725,42.46176958362196,52.33748186056236,109.71564816450568,87.83405810733247,74.65053039701297,90.40247717803402,86.29327366994153,36.29796432148328,21.23088479181104,2.054601754046189,28.079557305298408,20.59162473873448,19.17628303776479,18.49141578641604,49.31044209710944,45.20123858901695,76.70513215105916,"{'neutral': (['m1', 'm3', 'm12', 'e1', 'e2'], 3.737528790028345, 133)}"
202,73,202,0,6.733333333333313,27.87439525603895,139.37197628019476,12.62066922680522,25.08695573043508,40.41787312125655,44.62080396693154,54.64021406065669,119.93280462554456,94.86513048998624,80.83574624251298,93.37922410773048,93.37922410773048,39.02415335845456,26.480675493237072,1.3937197628018794,27.87439525603895,20.95220226259726,19.561789057069127,19.51207667922728,51.567631223672095,47.38647193526623,76.65458695410712,"{'neutral': (['m1', 'm3', 'm12', 'e1', 'e2'], 3.737528790028345, 133)}"
203,73,203,0,6.766666666666646,31.83314776483428,137.0279303518011,12.45644912537,23.56952054482573,41.52149708456648,44.31121739278087,54.04887652464912,121.80425511410924,98.30652269036878,82.35096921772367,92.73134348886526,94.11539339168417,39.44542223033818,28.3730230077872,2.076074854228409,28.373023007787083,18.045802910754723,19.426066104544084,19.37669863946445,49.825796501479886,45.67364679302324,76.12274465503867,"{'neutral': (['m1', 'm3', 'm12', 'e1', 'e2'], 3.737528790028345, 133)}"
204,73,204,0,6.799999999999979,34.040608539229474,137.4141710990001,9.52375443260405,23.12911790775252,39.45555407793074,42.198565201894105,51.8612470846667,118.39793480031764,95.27640886319128,78.23083998210393,88.43486258846542,88.43486258846542,36.734481382901095,29.93179964532669,2.7210726950296475,28.571263297811925,17.739223658168868,16.55163903154427,16.326436170178226,53.060917553079264,47.618772163019855,73.46896276580208,"{'neutral': (['m1', 'm3', 'm12', 'e1', 'e2'], 3.737528790028345, 133)}"
205,73,205,0,6.833333333333313,26.296948153558787,142.55713999034526,11.072399222551098,23.56952054482573,40.13744718174769,42.927864568602025,55.51748337947417,116.2931407369341,92.82425551789451,79.58286941208598,89.96324368322757,89.96324368322757,34.60124757047208,26.2969481535589,0.0,24.91289825073989,19.3766986394644,18.04580291075478,17.992648736645492,48.44174659866098,45.67364679302324,71.98390188853672,"{'neutral': (['m1', 'm3', 'm12', 'e1', 'e2'], 3.737528790028345, 133)}"
206,73,206,0,6.866666666666646,17.807801473244922,139.74960686876605,12.32847794301574,23.287125003474102,42.48684566108689,43.83458824183356,52.125620040221726,105.51255198084333,82.2355013062789,73.28595221681564,82.18985295343805,84.9295147185527,31.50611029881793,21.91729412091684,4.109492647671914,20.54746323835945,16.494948129264255,16.494948129264245,16.43797059068754,50.68374265462012,45.20441912439094,75.35315051967059,"{'neutral': (['m1', 'm3', 'm12', 'e1', 'e2'], 3.737528790028345, 133)}"
207,73,207,0,6.899999999999979,17.742377590397723,137.84462589462817,10.918386209475443,23.24167715669506,36.874818837704005,40.966688608466825,51.93411630721052,103.73364753744715,80.56934936032378,71.65190949968303,83.25269484725072,83.25269484725072,31.39036035224205,20.4719741427665,5.459193104737778,20.47197414276661,16.37757931421328,16.434347523647617,17.059978452305472,49.13273794263972,45.03834311408639,73.69910691395955,"{'neutral': (['m1', 'm3', 'm12', 'e1', 'e2'], 3.737528790028345, 133)}"
208,73,208,0,6.933333333333312,19.357701927148504,140.67627399916955,9.752269342830296,24.86350584045234,38.64163674278305,41.37537470563814,52.57187811138434,106.23261187311545,81.47669398049096,71.71731615643932,82.75074941127616,82.75074941127616,30.3419414508013,23.44604566652822,4.137537470563871,20.687687352819125,15.170970725400592,15.419691739388648,15.860560303827867,49.65044964676571,45.51291217620189,73.09649531329399,"{'neutral': (['m1', 'm3', 'm12', 'e1', 'e2'], 3.737528790028345, 133)}"
209,73,209,0,6.9666666666666455,26.02190438112018,136.9847802192759,9.5870174035706,24.69034487667105,39.741249857182666,41.11003733868754,52.20574321713522,112.33846028864484,87.74897587268889,74.64177835637122,83.54400880254389,86.2831566321355,32.86977395509916,27.391478295916045,1.369573914795751,23.282756551528564,13.695739147958022,13.966968233702918,14.380526105355898,49.30466093264886,45.19593918826144,75.32656531376904,"{'neutral': (['m1', 'm3', 'm12', 'e1', 'e2'], 3.737528790028345, 133)}"
210,73,210,0,6.999999999999979,26.833402717102217,135.5153254899631,10.733361086840889,24.15006244539188,38.908433939798215,41.613408425825135,49.7142648389838,111.39094598529805,87.24983122230599,73.79185747203098,84.52521855887187,85.86688869472698,35.55425860016044,26.162567649174548,0.6708350679275554,26.16256764917466,14.819231016498378,16.322121660799162,16.10004163026133,48.30012489078388,45.616784619073655,75.14550585070548,"{'neutral': (['m1', 'm3', 'm12', 'e1', 'e2'], 3.737528790028345, 133)}"
211,73,211,0,7.033333333333312,23.23734919834061,137.87974021847384,12.28089716747047,25.96222268732119,39.57177976184926,43.75061303621974,50.56183814219904,111.92589525289692,86.06369241903802,74.36765506968231,83.23719191285545,87.33082430201227,34.79587530783306,26.608610529519297,3.411360324297448,23.87952227008157,13.713498783205983,15.256067161749227,15.009985426908372,45.02995628072506,42.30086802128716,75.09953052867797,"{'neutral': (['m1', 'm3', 'm12', 'e1', 'e2'], 3.737528790028345, 133)}"
212,73,212,0,7.066666666666645,19.238420978151,145.72065611569658,9.619210489075613,23.40132170766275,41.24808433406084,42.687924992471466,55.03558283747295,107.1942967457196,83.86959129596379,74.20533805858258,82.45037562064726,86.57289440167972,29.544717930731963,22.6738532956781,3.4354323175268746,19.92550744165635,12.367556343097135,13.810266998370071,14.428815733613249,45.34770659135603,42.59936073733445,74.21806079130506,"{'neutral': (['m1', 'm3', 'm12', 'e1', 'e2'], 3.737528790028345, 133)}"
213,73,213,0,7.099999999999978,16.38072616216857,148.79785758675186,10.92048410811242,25.97204755907772,40.97456009776398,43.703260298221565,53.30731716633023,106.48347008246677,80.58483024961949,72.34820721624453,81.90363081084286,83.26869132435684,29.348801040552075,23.88855898649581,4.777711797299162,18.428316932439657,13.718688376119614,13.920940391286246,14.333135391897486,46.41205745947758,42.316875918935466,75.07832824327261,"{'neutral': (['m1', 'm3', 'm12', 'e1', 'e2'], 3.737528790028345, 133)}"
214,73,214,0,7.133333333333312,18.85137242130384,149.5190317200685,12.11873941369538,22.890952225868887,43.10988559275848,44.51691072217277,51.23883166799267,105.06359556873544,82.18225924769784,72.71243648217205,78.09854288825875,82.13812269282391,28.95032193271664,24.91074212815147,0.6732633007608229,18.178109120543013,13.532424865823716,13.731930833461876,13.465266015217026,47.12843105325959,43.08885124869448,74.07120322311845,"{'neutral': (['m1', 'm3', 'm12', 'e1', 'e2'], 3.737528790028345, 133)}"
215,73,215,0,7.166666666666645,29.82896608012561,155.97718732326842,10.846896756409365,21.69379351281873,46.0993112147396,48.82986319061887,48.980224942011866,111.25507393774936,89.57929568186248,74.57241520031414,77.28413938941651,81.35172567306995,30.50689712740132,31.862759221952388,6.101379425480218,21.015862465543137,13.62624540963169,14.975986323837343,15.592414087338454,47.4551733092909,43.38758702563735,75.92827729486532,"{'neutral': (['m1', 'm3', 'm12', 'e1', 'e2'], 3.737528790028345, 133)}"
216,73,216,0,7.199999999999978,42.754553862492685,161.45823666060923,12.412612411691384,22.06686650967368,48.2712704899111,52.48134613769679,49.72701168090469,126.91446104472892,104.85390382784308,83.44033898970349,79.99239109756707,85.50910772498548,33.10029976451051,44.13373301934723,17.929329039109803,22.06686650967368,13.860578985631104,15.233531694838993,15.170970725400592,51.02962880362031,46.8920913330565,78.6132119407124,"{'neutral': (['m1', 'm3', 'm12', 'e1', 'e2'], 3.737528790028345, 133)}"
217,73,217,0,7.233333333333311,50.35385819403725,171.54761627060995,12.24376480186504,23.12711129241165,51.71379297303552,54.48471090828555,47.63407147883019,133.3209945091968,110.19388321678514,85.02614445739596,77.54384374514507,84.34593530173674,33.33024862729917,52.37610498575589,25.16773875938918,21.08648382543413,15.02631138290324,15.02631138290324,14.964601424501666,50.33547751877842,44.893804273505054,77.55577632100179,"{'neutral': (['m1', 'm3', 'm12', 'e1', 'e2'], 3.737528790028345, 133)}"
218,73,218,0,7.266666666666644,61.22685613295239,182.3206456685245,13.602609775012866,24.522453511968266,54.41043910005146,58.55445580456999,46.26887274872884,145.5542808135545,121.09379080193835,90.45735500383556,80.25539767257601,84.3361806050799,36.04691590378423,63.25213545380973,33.3263939487814,23.804567106272657,14.962870752514164,14.962870752514164,14.962870752514164,50.329656167547626,46.24887323504379,80.26692448020063,"{'neutral': (['m1', 'm3', 'm12', 'e1', 'e2'], 3.737528790028345, 133)}"
219,73,219,0,7.299999999999978,64.1503734965537,187.0363413945816,13.717090950825844,24.60611287042452,54.59606255025835,58.754216738155606,45.06242718531559,147.41568773898692,122.8714681402812,90.76595398980476,75.06958600660539,79.16429069787478,32.075186748276906,70.29243053345772,41.62949769457202,21.155974238225213,13.649015637564617,13.717090950825844,14.331466419442847,51.866259422745486,47.7715547314761,81.90546721532165,"{'neutral': (['m1', 'm3', 'm12', 'e1', 'e2'], 3.737528790028345, 133)}"
220,73,220,0,7.333333333333311,66.42167285705887,191.00742755314727,12.45406366069858,23.52434247020836,58.11896374992648,62.33178951125832,47.13001375641748,149.47438737716536,125.95483064032662,92.7135850296446,77.49195166656864,81.64330622013483,32.518944002935086,69.88113498503071,40.82165311006747,21.4486651934252,13.906865640837989,15.221633363075966,15.221633363075966,51.20003949398284,45.66490008922796,80.27144966229712,"{'neutral': (['m1', 'm3', 'm12', 'e1', 'e2'], 3.737528790028345, 133)}"
221,73,221,0,7.366666666666644,59.10094607719384,189.67778348149744,12.369965458017418,21.991049703141925,54.97762425785481,59.116925784415045,46.81176024838682,140.21988908350806,118.23385156882998,88.65141911579087,74.21979274810394,75.5942333545504,28.176032432150578,65.2859288062026,39.17155728372154,18.55494818702596,15.181192694881926,13.744406064463703,14.431626367686874,48.10542122562299,43.98209940628385,81.09199578033588,"{'neutral': (['m1', 'm3', 'm12', 'e1', 'e2'], 3.737528790028345, 133)}"
222,73,222,0,7.399999999999977,50.69868314656209,187.65862583400263,13.697345026974858,23.285486545857225,53.419645605201936,57.54515316608397,46.65147613035102,134.29686250821246,111.02456500149464,85.60840641859272,75.33539764836166,76.70513215105916,29.449291807995905,58.21371636464312,32.1887608133909,17.121681283718544,15.129212079991143,15.0670795296723,15.067079529672355,47.94070759441195,43.831504086319455,79.44460115645404,{}
223,73,223,0,7.4333333333333105,48.1284616636086,182.8342203431188,12.370841848920918,21.99260773141497,53.6069813453239,57.7469565239436,46.8150767815656,129.21388158746234,107.22277346953346,83.15954798441271,75.59958907673877,78.34866504316562,30.239835630695552,52.232443362110416,26.116221681055208,19.24353176498812,16.551629127006983,15.1822682564288,15.807186806954403,50.85790537889699,46.7342914292567,78.34866504316574,{}
224,73,224,0,7.466666666666644,46.88651763352857,187.5663490734537,12.4111370206399,20.731144580430666,52.40257853159062,56.55643896363699,46.96756612553984,126.87689508203414,106.21998482574308,82.7409134709327,73.08780689932382,75.84583734835496,27.580304490310937,52.402578531590734,28.959319714826503,16.548182694186494,16.60554225159844,15.231721002971774,15.169167469671038,51.023563307075165,46.88651763352851,78.6038677973861,{}
225,73,225,0,7.499999999999977,47.61216265207531,180.93133209397263,13.671323220169548,21.76556006952024,51.69320516511039,55.77424767814534,43.616058990810544,126.51963138895508,104.75559088748302,80.94067650852799,74.81911273897549,76.17946024332048,31.9681663521078,51.01303141293784,26.52677633472763,21.085386317347684,16.32417005214012,15.025529294320371,14.96382254779519,48.97251015642036,43.5311201390403,80.26050275635555,{}
226,73,226,0,7.53333333333331,50.523034662069776,178.83439459412696,12.36050091643478,21.839823668023087,51.86958121155476,55.96454814930905,45.0653132208232,129.6811369824132,107.842768185581,82.58183324471202,77.80437181733203,80.53434977583493,34.124724481285966,50.50459223230325,24.56980162652588,23.20481264727448,15.014878771765837,15.014878771765837,15.01487877176578,51.8695812115547,43.67964733604606,77.8163444836824,{}
227,73,227,0,7.566666666666643,47.29932639448747,174.2606906940515,13.508580673957567,22.964587145727705,49.99999999999994,54.03432269582993,44.66011136848244,128.3386259849623,105.37558824765894,81.72691307744287,76.99890984155763,76.99890984155763,32.42059361749796,51.33260656103846,25.666303280519287,21.61372907833197,16.21029680874898,16.266485181070486,16.21029680874898,48.630890426246935,43.22745815666394,75.6480517741619,{}
228,73,228,0,7.599999999999976,50.67423484744472,173.94127911877942,12.326165233162214,21.913182636732813,50.69273922448924,54.78295659183209,46.64600670350413,131.5076255149544,109.60014718330716,84.22879575994182,82.17443488774813,83.54400880254389,36.293708742088825,48.619873975250925,23.967543508926497,25.33711742372236,13.764047497629438,12.402019273622576,13.010952190560149,49.3046609326488,42.45679135866982,75.33901495691062,{}
229,73,229,0,7.63333333333331,48.2712704899111,168.28246511179347,12.412612411691384,23.44604566652822,49.650449646765765,53.80566599607061,48.29096903000461,132.4083820879702,108.9638820238842,84.81951814655804,85.50910772498537,88.26746603869458,38.617016391928814,45.51291217620189,19.308508195964464,26.20440398023743,9.752269342830312,8.389219297883432,8.964664519554844,49.65044964676571,44.13373301934729,74.48844355287763,{}
230,73,230,0,7.666666666666643,40.96978895660919,155.62272206745007,12.284114073808157,23.203326583859848,46.406653167719696,49.13645629523262,50.57508250825358,126.94318339770284,103.74149807241513,83.25899538914416,85.98879851665708,88.71860164417001,36.85234222142447,39.58214534893739,13.649015637564617,25.93312971137277,9.93663337219786,8.302372089563251,8.18940938253877,53.23116098650195,47.7715547314761,72.35265816314549,{}
231,73,231,0,7.699999999999976,32.98482209882275,152.6105096407935,10.994940699607582,22.032788525672032,44.00123205174648,46.74870489231929,52.24404897741615,118.19561252078164,96.2155475320937,79.71332007215506,83.83642283450797,87.95952559686077,33.67200589254821,32.29763830509728,7.559021730980248,22.67706519294063,8.359951663802974,8.692263837311252,7.559021730980248,53.60033591058704,46.72849797333231,71.4803283988237,{}
232,73,232,0,7.733333333333309,26.11298416156808,145.78665322546834,11.080505730936787,23.40463665550832,42.6939720118132,44.00123205174648,53.67077002232689,114.07250975842874,90.71867204993428,77.65176869097866,82.46205524705692,87.95952559686066,31.610454511371813,28.861719336469942,1.3743675874509336,20.61551381176423,9.718246409295618,10.005547064908258,9.620573112156649,52.2259683231361,45.354130385881376,74.22857425733068,{}
233,73,233,0,7.766666666666643,20.268419695539592,135.2308530039017,13.579673131789985,27.058319206958068,39.27868900429258,41.97515284393477,51.36443946715176,112.16006194753317,85.12736272126631,74.99315287349646,81.07367878215837,86.47859070096888,32.4294715128633,28.37578757375536,2.702455959405256,18.917191715836907,10.893948249075414,12.235889765634743,11.485437827472424,52.69789120840295,47.29297928959238,72.97882120166058,{}
234,73,234,0,7.799999999999976,12.32522606648854,134.27088624953856,15.12628572475717,26.01992169592052,39.7382218548212,41.10690504439407,54.84721325336201,108.19676265421742,82.17958523054165,76.00556074334656,83.53764333953404,87.64605202836356,30.813065166221577,22.59624778856255,6.16261303324427,17.118369536789714,15.311135179289412,13.762998774489754,13.694695629431862,50.67037382889771,45.19249557712499,73.96403558571993,{}
235,73,235,0,7.833333333333309,11.07893632829484,134.69698827304518,16.547233268216267,28.8903313434026,39.87470048117425,43.99499987683402,53.66316828912856,109.94242240619164,81.12277145261346,75.5795109855934,85.1987214746689,87.94706732869042,32.98015024825884,23.36093975918345,8.245037562064681,17.86424805114018,15.178236078879111,16.547233268216257,15.802988660624123,52.21857122640995,46.72187951836679,75.5795109855934,{}
236,73,236,0,7.866666666666642,13.885875787890429,138.92123026682387,15.27446336667947,27.80644459564821,41.680764064907336,43.06860569296934,52.78459572103057,109.69841872433447,81.93843399488341,74.98372925460842,84.70384230613172,88.86960504249885,34.02039568033149,22.91169505001926,7.637231683339678,18.74593231365202,16.720808660924455,16.720808660924455,16.663050945468513,52.76632799398368,45.82339010003847,76.384939313747,{}
237,73,237,0,7.899999999999975,12.203109383070114,137.00640341261743,14.914911468196806,25.762119808703687,40.67703127690038,42.05479600485351,50.18665821707384,103.05739925034592,77.29825237985136,71.18480473457566,79.99816151123753,84.06586463892756,31.863674500238744,21.016466159731863,7.457455734098517,18.304664074605284,16.327210643509666,14.976416518692748,14.914911468196806,50.16833857484386,46.10063544715382,73.21865629842068,{}
238,73,238,0,7.933333333333309,10.95832577447959,139.77907250468274,15.067697939909635,27.43003782797642,41.116545161559216,45.28603534602493,50.75624544228304,104.11310624860236,76.75718592866647,71.2291175341179,80.81765258678763,84.92702475221745,32.19008196253412,21.231756188054305,10.273430413574715,18.492174744434465,16.49446452982678,17.859885936495523,17.122384022624487,52.0520474287784,46.5728845415386,73.98138113796439,{}
239,73,239,0,7.966666666666642,10.968487138374652,138.82829379766736,16.38226901030041,25.884771602058688,40.90479940519305,44.97799926193439,47.69424666458776,100.684222906104,74.87549192411754,69.38414294372592,78.90745668110014,82.98887685426052,33.3315980808095,19.72686417027512,8.843077041847437,18.366390779221547,15.210554919875827,16.325680692641413,15.645443997114684,50.33751546897764,46.25609529581726,74.82603650793976,{}
240,73,240,0,7.999999999999975,10.920929272399462,142.0311357848839,15.016277749549204,27.302323180998545,43.70504182461907,46.494181013661255,47.77906556674736,101.01859576969456,73.71627258869603,68.2558079524963,77.81162106584577,81.90696954299563,32.080229737673335,21.15930046527388,8.873255033824535,18.429068147174007,16.438175340237372,17.798937094918585,17.746510067649012,50.509297884847285,45.04883324864761,73.72891146964423,{}
241,73,241,0,8.033333333333308,10.882780034760003,142.84296565460147,16.380753133594553,28.56729759124528,43.531120139040354,46.27181593359389,46.271815933593786,102.02606282587568,73.45876523463039,68.01737521725045,78.90015525201045,80.26050275635544,33.32851385645267,22.445733821692784,8.842258778242467,18.364691308657484,19.09338708867037,17.736761444474794,17.684517556485048,51.69320516511033,47.61216265207531,74.81911273897549,{}
242,73,242,0,8.066666666666642,10.921501706484603,147.44027303754262,17.74744027303757,30.03412969283272,45.07187445520588,46.43645420258008,47.80106866897363,106.4933924819461,76.46270014984542,70.98976109215016,80.54607508532422,80.54607508532422,32.76450511945393,25.93856655290097,6.825938566552964,16.38225255972702,17.7998700483349,19.161322658864428,18.430034129692785,51.877133105802045,45.05119453924914,76.45051194539246,{}
243,73,243,0,8.099999999999975,14.96589982266346,144.2232703180699,14.965899822663346,27.210726950297044,43.53716312047538,46.2782393778736,51.77193886085702,108.8769158969412,81.67751947191009,74.14923093955952,81.63218085089125,82.99271719840601,30.61206781908413,26.53045877653972,3.401340868787088,17.006704343935553,17.739223658168875,16.383027106484718,17.006704343935667,51.70038120556438,46.258235815504975,77.56250541952879,{}
244,73,244,0,8.133333333333308,30.3432040337068,148.9575470745608,12.413128922879991,24.82625784576021,44.13556950357349,46.91432110340175,53.94913328675354,121.44332479626657,96.635182819391,81.3749562722137,86.8919024601604,86.8919024601604,33.10167712768009,34.48091367466691,6.896182734933404,22.06778475178669,17.983044428917832,17.93007511082675,17.930075110826806,49.65251569152025,46.8940425975469,77.2372466312537,{}
245,73,245,0,8.166666666666641,39.72579444033852,145.2627705345449,12.328694826311905,24.65738965262381,45.2052143631438,49.314779305247725,52.126537037141,128.7955107387898,104.1450211096042,84.24608131313153,89.04057374558624,93.15013868769016,39.04086694998784,37.67101196928638,10.27391235525988,28.08202710437729,17.860723769933827,17.860723769933827,17.808114749117237,50.68463428594907,45.20521436314374,75.35447613664803,{}
246,73,246,0,8.199999999999974,42.46575342465746,150.68493150684935,12.328767123287662,26.02739726027403,45.22623018964166,49.33409069964135,52.126842713535474,132.90495392575525,106.8844339897597,85.6164383561644,91.78082191780824,91.78082191780824,39.72602739726028,41.09589041095887,13.698630136986251,28.767123287671325,17.86082850740452,17.860828507404527,17.808219178082254,50.68493150684935,45.20547945205482,78.08219178082186,{}
247,73,247,0,8.233333333333308,43.685752393008784,155.65444157960775,13.651797622815252,25.93841548334888,47.8007902693937,51.87683096669787,49.22225633131784,132.45058198667166,106.51902031558704,84.64114526145465,90.1018643105806,92.83222383514374,42.32057263072727,40.95539286844564,12.286617860533624,30.033954770193645,19.16121106085363,19.112516671941307,19.112516671941307,51.87683096669792,45.0509321552903,77.81524645004686,{}
248,73,248,0,8.26666666666664,41.23613949640298,155.34711830406638,12.370841848920804,24.74168369784184,49.50245451978613,53.6069813453239,52.3047374359653,130.6100428413515,105.87512097310606,85.22135495923283,90.71950689208666,93.46858285851351,39.86160151318961,38.48706352997601,10.996303865707318,28.86529764748218,19.29255995085673,19.243531764988063,18.55626277338132,50.85790537889704,45.35975344604333,76.98639874230363,{}
249,73,249,0,8.299999999999974,35.373331183258074,153.7379393733911,13.605127378176237,23.12871654289961,46.27743630104142,48.97845856143431,53.2167474761368,125.2337010170599,102.12005347438055,84.3517897446925,89.7938406959629,89.7938406959629,36.73384392107573,35.37333118325819,9.523589164723376,24.489229280717154,19.04717832944669,17.73891582537891,18.366921960537866,53.05999677488717,47.61794582361671,74.84056785558121,{}
250,73,250,0,8.333333333333307,19.291990437197807,156.69873278459997,15.119471477498225,23.406847403538467,44.005388306701946,46.75312066722627,60.54033082689645,118.2387377411038,94.92991989787636,85.21883923680878,89.34233145794462,87.96783405089934,28.17719684442864,29.551694251474032,3.4362435176132067,14.432222773975695,20.66322689141709,19.291990437197693,19.24296369863424,53.60539887476676,46.73291183954024,74.22285998044629,{}
251,73,251,0,8.36666666666664,2.7584730939734072,158.6661638502792,17.930075110826692,23.4470212987734,42.84522355764635,44.15711481581785,62.203415360203046,106.28178828569187,82.85757098919996,81.37495627221381,88.27113900714721,84.1334293661871,24.136639572266745,19.998929931306748,4.827327914453349,8.965037555413346,19.309311657813453,17.93007511082675,18.619693384320044,52.4109887854936,46.8940425975469,74.4787735372804,{}
252,73,252,0,8.399999999999974,1.3651161590499896,154.28228542869795,16.38139390859908,21.84185854479881,40.976230391008485,42.34061320820302,61.56658742971078,101.10157550913956,79.28258066391057,78.49417914537071,86.00231802014537,83.2720857020455,23.2069747038488,16.38139390859908,6.825580795249721,9.555813113349586,20.47674238574888,19.16031834695724,19.111626226698945,50.509297884847285,43.68371708959762,73.72891146964423,{}
253,73,253,0,8.433333333333307,3.072979828079749,149.80264489828886,12.368505220329553,20.614175367215807,41.25124901486093,42.62478910887708,61.979801578222,97.72848899402992,77.15566373892533,75.58530967979152,82.45670146886334,81.08242311104902,19.927036188308648,15.804201114865464,7.558530967979095,10.30708768360796,20.65993385940736,19.2889159347313,19.927036188308648,52.22257759694679,45.351185807874856,75.59780208706286,{}
254,73,254,0,8.46666666666664,6.711371608527088,142.30640177777548,12.080468895348758,22.818663468992327,38.94909111475668,41.61050397286817,55.09868508127892,96.68102937099005,73.87388154426333,70.46940188953477,80.53645930232551,77.85191065891468,24.16093779069763,17.449566182170543,6.711371608527202,14.765017538759707,18.83971788211869,17.501115973007536,16.778429021317834,49.664149903100736,44.29505261627901,73.8372891793282,{}
255,73,255,0,8.499999999999973,14.91491146819692,145.10675328574737,12.203109383070114,27.151897217818348,43.38883336202707,46.10063544715376,50.241577064310576,104.48359119899318,77.33392026718217,69.82890369201243,82.70996359636422,79.99816151123753,31.18572397895707,23.05031772357688,5.423604170253384,20.338515638450303,14.976416518692805,14.976416518692805,14.23696094691519,51.5242396174072,46.10063544715382,75.93045838354737,{}
256,73,256,0,8.533333333333307,22.895103791126985,142.81486877977423,10.774166489942104,26.96906447810544,44.44343677101108,47.15621405167069,48.55851216233998,109.16323067022944,82.19716404540776,70.7054675902449,84.84656110829394,80.80624867456561,34.34265568669048,26.26203081923381,2.020156216864166,23.568489196748374,9.523107733338644,9.523107733338644,8.754010273077938,53.87083244971046,47.13697839349663,74.08463697768163,{}
257,73,257,0,8.56666666666664,28.40988668969085,129.73380644274886,12.236727620292449,29.729051115964808,41.890935663405,45.9448971792184,47.604088910366514,117.68907771719418,88.00199205066178,73.64696753727651,85.13319183208114,83.78187132681,37.16131389495604,33.10735237914264,0.6756602526355664,26.35074985278709,9.55527892833644,11.14327435459176,10.13490378953344,58.10678172665854,51.35017920030288,70.28165853939859,{}
258,73,258,0,8.599999999999973,47.29702738716424,121.62092756699384,10.894880729247296,29.72956007193181,39.21225765575945,43.327373126971935,48.81699673528004,136.51246426026495,106.79035328247627,83.10763383744575,94.59405477432848,94.59405477432848,45.94568374753101,41.89165282863121,8.108061837799596,35.13493463046484,9.555442512979957,9.55544251297994,8.783733657616267,56.75643286459712,51.35105830606403,68.93177281519512,{}
259,73,259,0,8.633333333333306,53.870832449710406,117.17680038462062,14.87556981758652,29.62895784734076,37.70958271479731,41.77161161040953,48.94914429689712,146.8968307334445,117.29283619491626,90.23364435326503,99.66104003196438,101.00781084320715,51.850676232846354,46.463592987875245,12.794322706806156,37.03619730917592,10.858013408124236,10.858013408124291,10.100781084320715,56.56437407219596,51.17729082722491,71.39155725030461,{}
260,73,260,0,8.66666666666664,54.48384712650454,114.28319153364372,14.61761752174516,29.23523504349032,37.208480964442174,42.52397824507671,51.97920398514171,150.21570863013596,120.99325885462471,93.68563957118464,107.63881993285042,107.63881993285042,55.8127214466632,42.52397824507682,10.630994561269176,41.19510392491805,10.95817837036996,10.95817837036993,10.630994561269176,53.15497280634588,46.51060120555269,67.82468302627272,{}
