,video_id,frame_seq,time_seconds,m1,m3,m4,m5,m6,m7,m8,m9,m10,m11,m12,m13,m14,m15,m16,m17,e1,e2,e3,b1,b2,b3,label_measures
0,228,0,0.0,39.36501917824193,164.01586636769872,26.243346118827905,45.92585570794899,44.757438970496494,50.9013984212941,24.27714107261864,134.51868834235623,88.73469603935636,65.62098107745709,92.64138505052762,37.313891200906994,44.39066367004443,64.97763812571736,25.09037511785129,27.66374692481031,20.34429044113473,19.598215798827557,18.013602648713743,28.30708987655009,106.79492998880268,72.88822957796049,"{'others': ['m1', 'm3', 'm12', 'e1', 'e2']}"
1,228,1,0.0333666666666666,32.36168392055507,155.75042359954426,23.40528274685432,41.57902435242308,43.41775506763377,48.65027856809281,28.097810131621305,125.304121254986,83.73728520731102,65.37047828374648,92.66106630511638,41.88787928861427,40.61854961320171,54.5811760427398,17.77061545577567,24.11726383283849,20.06986437972949,19.868152080561504,17.770615455775783,26.65592318366356,107.89302241006698,75.06236602729518,"{'others': ['m1', 'm3', 'm12', 'e1', 'e2']}"
2,228,2,0.0667333333333332,35.06140177304141,155.05319414596707,21.05853013173256,36.85242773053204,39.64442465168452,45.628800397792254,29.89054830675756,122.63848867958032,85.78757268446716,65.75833851101993,91.93398782123175,42.13641108473121,38.94425872982731,51.7128681494429,19.791344600404045,24.89878836825028,21.40408970489172,20.62831982476789,19.152914129423262,24.2603578972695,105.9794581828088,73.5276800714848,"{'others': ['m1', 'm3', 'm12', 'e1', 'e2']}"
3,228,3,0.1000999999999998,39.91084146205739,160.7121114633996,19.82221232584226,39.334778478930005,46.478439854051686,52.49125481478542,34.87490363240851,133.16747549896792,93.84710767683625,70.8657822788661,100.87201441496262,48.520715794538944,42.77484155571199,54.266590033366015,19.791344600404045,31.283093078058076,21.819009340738308,19.448566443437688,18.514483658442487,25.537218839231,104.70259724084724,69.49221099120938,"{'others': ['m1', 'm3', 'm12', 'e1', 'e2']}"
4,228,4,0.1334666666666664,73.21252401305823,164.73998066625836,23.593126727357507,40.66368466062885,46.9427547604107,55.03410475306695,32.293547685917666,166.970833331647,126.30977562646098,86.36739382697453,110.03845732029356,53.73971171456196,55.01922866014672,80.60956757184294,46.062610041053176,39.66502531312904,20.23093926414864,18.891841304129983,17.27347876539494,29.42888974845061,106.19990648353912,82.9715191920254,"{'others': ['m1', 'm3', 'm12', 'e1', 'e2']}"
5,228,5,0.166833333333333,69.410992309291,175.3755616151034,27.755895325631343,48.179702177540406,51.739519363234805,59.95021447261862,34.83881616980118,178.8731870313766,130.69716350659988,92.83317044345898,118.15130783712964,58.42647090847066,57.12810488828245,85.69215733242368,44.14444468640011,37.65261458545888,20.52896930181492,19.776122036234234,18.177124282635305,31.16078448451765,110.36111171600012,78.8697245435798,"{'others': ['m1', 'm3', 'm12', 'e1', 'e2']}"
6,228,6,0.2001999999999996,45.95606109282159,172.70217430107758,32.59771052985445,52.788818370805146,48.8584100606878,55.37885196201234,35.16636649071238,165.81694696984562,113.0464963867866,86.90842048852068,114.59036182930872,55.36388268157617,52.78881837080519,75.96439716774398,29.61323957386628,28.32570741848076,17.93324777956887,17.88696835330851,15.4503858646259,30.9007717292518,110.72776536315229,82.65314652084207,"{'others': ['m1', 'm3', 'm12', 'e1', 'e2']}"
7,228,7,0.2335666666666662,14.952618032511952,163.58179403383184,31.43294127299677,47.578939232766416,43.81968048305215,51.19080318120143,41.3886865615349,134.73227918240707,87.19742370769143,76.93058510256469,108.9849955619668,50.00488031666714,39.747468969658485,50.00488031666703,10.257411347008542,17.950469857265148,11.821082491310854,9.066356401112037,7.051970301068423,32.05441045940199,111.54934839871892,77.03735904028234,"{'others': ['m1', 'm3', 'm12', 'e1', 'e2']}"
8,228,8,0.2669333333333328,9.261286486943918,159.79719523598186,23.68149444417954,32.91943189216935,42.692421249052494,47.2234805179001,43.930139043122935,109.25691494089898,76.3921197755014,69.35270532667874,101.4604392742154,43.66651816864959,30.18126991068425,31.465579268585884,5.779392110556614,16.05386697376821,11.048046840175084,10.030776746313782,7.705856147408724,32.10773394753653,114.30353285323002,73.95659501928452,"{'others': ['m1', 'm3', 'm12', 'e1', 'e2']}"
9,228,9,0.3002999999999994,6.9162175556445264,158.1370274057048,26.19487390971753,34.936991711179274,39.12403467006109,43.6854009881998,42.36274510877527,107.64473954040976,72.7082453259079,68.06839596877745,100.17612991631388,43.66651816864959,30.823424589635124,30.82342458963501,3.8529280737043337,14.127402936916042,11.048046840175084,10.030776746313782,8.348010826359427,33.392043305437994,113.01922349532856,75.94819610890062,"{'others': ['m1', 'm3', 'm12', 'e1', 'e2']}"
10,228,10,0.333666666666666,6.445244579718292,160.38690368678516,27.556718386209223,35.06592162905003,41.6504451408878,46.208403276771264,42.84997145860814,107.20826947549246,72.15220293525351,68.3195925450135,101.83486435954852,43.82766314208413,31.581698440619448,29.0036006087322,1.9335733739154648,13.535013617408367,10.067793877976756,10.067793877976756,8.378817953633757,32.22622289859129,116.01440243492866,79.96260419979014,"{'others': ['m1', 'm3', 'm12', 'e1', 'e2']}"
11,228,11,0.3670333333333326,8.616519510103114,165.5378694669659,31.252622934562822,41.46288129122046,45.10317940037997,50.09452072051364,40.23093467224103,118.6176223946318,77.17545876038774,71.28835640996175,104.04246611183606,43.672146269165694,35.32305948241344,39.17648415322219,5.780137006213067,13.486986347830566,13.89372023673878,11.842273355116811,8.99132423188712,30.82739736646994,111.74931545345348,86.51870462112137,"{'others': ['m1', 'm3', 'm12', 'e1', 'e2']}"
12,228,12,0.4003999999999992,26.740913763368468,170.28411209100037,31.3957046457598,47.228315195458485,44.96913534169634,52.31920873139913,33.81032830442947,138.61897408442613,91.52894217082373,74.27813527082077,107.5752303922232,46.10367016809568,46.10367016809573,56.34893020545019,16.648547560701104,23.051835084047863,14.318186181679328,12.80657504669323,11.525917542023876,29.4551226073944,111.4172029062311,86.26157600017642,"{'others': ['m1', 'm3', 'm12', 'e1', 'e2']}"
13,228,13,0.4337666666666658,40.36481038213698,172.6741279475404,28.8412599355788,43.72685762022566,46.90054263257383,54.17619550822179,34.91602142106534,147.3286045859748,103.60289939168648,79.89789819774091,108.66114154892762,49.85628847539033,47.29955573306256,62.639952187028825,26.84569379444088,26.84569379444099,16.61876282513013,15.604450206895256,13.422846897220438,30.680792907932528,111.2178742912553,84.8935377578814,"{'others': ['m1', 'm3', 'm12', 'e1', 'e2']}"
14,228,14,0.4671333333333324,32.15018608822683,171.2902054529478,30.02214605791269,46.47453688983593,45.1569936283787,50.87455849077291,34.50720075962087,142.3930253748316,95.9778638885232,75.87443916821542,108.0246252564424,48.868282854104905,47.58227541057579,57.87033495880837,19.29011165293616,25.72014887058151,18.412824462490786,15.697721381685144,13.503078157055311,30.8641786446978,111.8826475870296,87.45796158587495,"{'others': ['m1', 'm3', 'm12', 'e1', 'e2']}"
15,228,15,0.5004999999999991,11.05562865794858,160.6488407893771,30.00307960257308,44.88978221898013,41.06581573850999,47.25588804016156,37.79859323573156,122.86853525405088,78.04822655696013,70.04289458416844,104.10044883151642,47.55205687365566,39.84091251576558,42.41129396839551,5.140762905259976,17.992670168410314,19.57544193875115,18.40113085156061,16.70747944209529,29.5593867052454,111.8115931894065,83.33944101468846,"{'others': ['m1', 'm3', 'm12', 'e1', 'e2']}"
16,228,16,0.5338666666666656,6.565151584688833,161.70194202239605,30.057740814599253,37.49350230875432,41.601437107415954,45.666571212964136,37.86745673063016,108.3058702284821,70.84937435776752,66.30790600235281,99.13997596468283,43.77609328310672,35.40713427310095,31.544537806944614,1.9312982330782236,14.806619786933084,19.140541536343864,17.274056535952663,16.09415194231866,32.188303884637264,113.30282967392328,85.1427793220657,"{'others': ['m1', 'm3', 'm12', 'e1', 'e2']}"
17,228,17,0.5672333333333321,5.292779269920329,160.4609410511855,30.21441598821832,37.381545081279846,42.22532026619532,46.53256626450536,36.14896901408234,106.3680558358512,69.00939869334327,64.82622018467896,98.84393968753034,42.36168843751295,35.943250795465474,30.80850068182769,1.2836875284095868,15.40425034091379,19.55254591038771,18.37960833292652,16.687937869323264,30.80850068182764,111.68081497162515,84.03007187010793,"{'others': ['m1', 'm3', 'm12', 'e1', 'e2']}"
18,228,18,0.6005999999999987,6.548718477429338,161.74141508884213,31.24859535821744,42.06970899886482,41.49730533386669,45.552264078813096,35.77671880974516,111.7053858826468,69.89758551167306,64.85762257402376,97.60751120051094,41.097899452846775,35.960662021240864,37.24497137914239,1.2843093579014069,14.127402936916042,20.748652666933367,18.388511576324504,17.33817633166973,32.10773394753653,110.45060477952563,82.85537455418059,"{'others': ['m1', 'm3', 'm12', 'e1', 'e2']}"
19,228,19,0.6339666666666652,19.6465561466191,171.5076797529715,27.57404889166718,45.365666007680254,46.50654936028449,52.69514569414673,34.73053269559149,126.8857385267348,81.57788413347141,68.36255894815645,103.18876822363244,41.275507289453,39.98564768665756,49.01466490622545,11.608736425158668,20.637753644726445,20.39447103336781,19.044548807817023,17.413104637737888,28.376911261498947,109.63806623760944,88.95356627283839,"{'others': ['m1', 'm3', 'm12', 'e1', 'e2']}"
20,228,20,0.6673333333333318,40.89151770667258,177.5533306244739,24.982921197455948,41.194048472665465,50.46040254159266,57.82933892679598,32.804182648534976,139.2714908232096,98.10083511581382,73.98443945007415,101.64818637488456,38.60057710438656,40.53060595960585,63.69095222223768,30.23711873176944,25.09037511785129,18.73442954063859,18.422538530660283,17.37025969697396,30.880461683509225,110.6549876992414,87.89110208614856,"{'others': ['m1', 'm3', 'm12', 'e1', 'e2']}"
21,228,21,0.7006999999999983,45.56751128770008,179.0083944873365,21.054990405213445,38.08602070321882,50.06667653658839,56.18694331028802,32.548222348357186,136.60712115989477,98.5584184212752,72.13051677013215,99.578412532218,35.74609680643715,38.29938943546836,63.83231572578086,33.19280417740606,26.80957260482785,20.185550601645097,18.27879349232577,17.23472524596076,31.916157862890373,109.79158304834291,87.20531658391683,"{'others': ['m1', 'm3', 'm12', 'e1', 'e2']}"
22,228,22,0.7340666666666649,43.12620072763605,183.89727599766744,21.205542660404237,39.92118789581011,51.63951116198764,57.78839377656483,31.625880533599787,135.1104094588336,95.19945329066351,70.07473127849454,97.71889132413918,33.43014703194234,37.28747168947427,64.28874429219672,33.43014703194228,25.71549771687876,21.553514633020388,18.409494743168093,17.35796095889316,30.8585972602545,109.29086529673458,90.67220315396624,"{'others': ['m1', 'm3', 'm12', 'e1', 'e2']}"
23,228,23,0.7674333333333314,39.504006214809,188.66304072096057,21.14912902444134,37.01097579277239,53.136529047668304,59.29415511124366,32.161282394578514,129.4669887094451,92.48966546954534,69.24713256337856,94.89421869796314,29.49414905477232,32.70003482159541,62.19418387636779,32.70003482159541,22.441200367761557,20.27580188295279,20.072019807603244,17.952960294209277,30.776503361501568,107.71776176525547,91.65021307819002,"{'others': ['m1', 'm3', 'm12', 'e1', 'e2']}"
24,228,24,0.800799999999998,39.01358091873085,192.4029459766174,20.16266314428917,35.90992381838595,52.84002783365365,58.50647600300366,31.49508665761989,126.29619235040104,90.38632013733186,67.58553558452701,93.08951127680147,28.05437326150178,31.24237022303612,60.57194226915158,33.79276779226348,22.315978730740085,21.37622687049248,19.960018170549723,18.490382376898932,29.32957204611557,108.39189669216609,91.13880595526692,"{'others': ['m1', 'm3', 'm12', 'e1', 'e2']}"
25,228,25,0.8341666666666645,38.048291672224224,194.2895566562573,22.76670548933027,37.413926749585855,52.817606636570105,60.1527712830756,29.354224880294147,127.247052929984,89.83496111037296,67.45197477188697,93.7903649209095,26.980789908754787,33.404787506077355,61.670376934296655,33.404787506077355,20.55679231143222,21.18945650597996,20.110293440872017,17.98719327250319,32.11998798661284,109.20795915448358,93.446534818547,"{'others': ['m1', 'm3', 'm12', 'e1', 'e2']}"
26,228,26,0.867533333333331,46.979563529345874,190.93171594820583,27.51787954065416,39.96643234335684,53.75639116362247,58.62208234754768,27.63804552511284,141.12667158600684,101.16039322231812,74.65946245996423,99.11687257615932,36.042499118603416,43.12227573118616,68.86691795876004,36.686115174292695,23.81379406050576,21.22957583960475,21.30748280174494,19.952097726369686,32.18080278446729,108.12749735581014,89.55287768381277,"{'others': ['m1', 'm3', 'm12', 'e1', 'e2']}"
27,228,27,0.9008999999999976,30.512904219127424,177.4509391110166,31.23346559368134,45.8188342970095,47.49643855115097,53.19177335274684,29.32881886558154,136.3672566001599,90.63415773267464,72.52834535513591,102.69500227275876,42.36168843751295,45.57090725853675,59.69147007104095,22.464531747165893,22.464531747166006,22.747000957632423,21.248809513541424,19.897156690347003,30.80850068182764,109.11343991480618,90.93365559044106,"{'others': ['m1', 'm3', 'm12', 'e1', 'e2']}"
28,228,28,0.934266666666664,7.4938853008441875,164.60980500965124,30.00307960257308,42.39181690928871,42.27476610996944,46.78164858128789,34.96096752414798,112.63580458402213,70.31062226006343,64.9021316789084,96.38930447362634,42.411293968395626,35.985340336820514,38.555721789450445,2.570381452629931,14.137097989465246,21.54372233493365,20.762891609421818,19.27786089472528,30.844577431560424,107.95602101046146,89.82554629215959,"{'others': ['m1', 'm3', 'm12', 'e1', 'e2']}"
29,228,29,0.9676333333333308,7.831752351332923,164.56252653509162,30.057740814599253,37.49350230875432,42.351784535554565,45.66657121296418,35.912685527483966,106.68662674021972,69.21608091930774,65.02037384696729,96.5649116539119,39.91349681695027,33.47583604002284,33.47583604002273,3.862596466156447,11.587789398469454,24.053085640971528,22.00135911566077,21.244280563860627,32.18830388463732,113.3028296739233,86.72463361164955,"{'others': ['m1', 'm3', 'm12', 'e1', 'e2']}"
30,228,30,1.0009999999999972,6.962633348155601,164.49181587415904,30.183721013133887,40.143297490012415,42.52929242801385,47.063309767406736,38.02616958088549,112.4550577909967,72.36935873322241,67.23228481780552,98.26257011833128,40.080785179845634,32.969678131808564,38.141392348562704,4.525249939659943,12.282821264791435,22.910752351639346,20.887900044466697,20.68685686701707,32.323213854714254,112.48478421440552,87.08812022987624,"{'others': ['m1', 'm3', 'm12', 'e1', 'e2']}"
